Time_Index,DELTOID_Affected,DELTOID_NonAffected,BICEPS_Affected,BICEPS_NonAffected,FOREARM_Affected,FOREARM_NonAffected
1,-1.44314e-05,2.46598e-05,3.46925e-05,5.13668e-05,-1.08162e-05,1.44318e-05
2,-2.17113e-05,2.31053e-05,2.75006e-05,5.43413e-05,-1.17092e-05,1.41151e-05
3,-1.09299e-05,2.12287e-05,2.9755e-05,5.56735e-05,-1.29147e-05,1.64798e-05
4,6.27312e-06,1.85931e-05,3.49386e-05,5.3039e-05,-1.43961e-05,1.98818e-05
5,1.59324e-05,1.54145e-05,3.54038e-05,4.82165e-05,-1.45826e-05,2.07329e-05
6,1.34727e-05,1.48034e-05,3.28441e-05,4.53634e-05,-1.26866e-05,1.75234e-05
7,1.83455e-06,1.47375e-05,2.76498e-05,4.675e-05,-1.01674e-05,1.28796e-05
8,-6.1807e-06,1.21418e-05,2.34797e-05,5.1779e-05,-9.03404e-06,1.04447e-05
9,-5.79808e-07,9.71213e-06,2.64204e-05,5.63839e-05,-9.52035e-06,1.16372e-05
10,1.23477e-05,9.70049e-06,3.52811e-05,5.6601e-05,-9.82117e-06,1.48895e-05
11,1.92263e-05,9.76253e-06,4.37029e-05,5.24068e-05,-8.65084e-06,1.75342e-05
12,1.32965e-05,9.10763e-06,4.62915e-05,4.80186e-05,-7.83609e-06,1.83121e-05
13,-2.50545e-06,9.09114e-06,3.93348e-05,4.74908e-05,-9.81907e-06,1.75561e-05
14,-1.42563e-05,9.57931e-06,2.95918e-05,5.13571e-05,-1.21497e-05,1.60608e-05
15,-9.6399e-06,9.27378e-06,3.06017e-05,5.51675e-05,-1.3222e-05,1.44001e-05
16,4.55501e-06,7.90808e-06,4.27761e-05,5.47161e-05,-1.52422e-05,1.49334e-05
17,1.26253e-05,6.36729e-06,5.24842e-05,5.11796e-05,-1.60474e-05,1.74078e-05
18,8.80743e-06,5.38102e-06,5.02343e-05,4.83957e-05,-1.3063e-05,1.89399e-05
19,-6.70858e-06,5.78175e-06,3.71542e-05,4.92812e-05,-8.54965e-06,1.84237e-05
20,-1.83958e-05,9.00663e-06,2.35843e-05,5.27968e-05,-4.26554e-06,1.56958e-05
21,-6.20533e-06,1.29005e-05,2.2317e-05,5.60138e-05,9.28644e-08,1.29436e-05
22,1.26374e-05,1.26989e-05,2.90516e-05,5.67929e-05,2.36385e-06,1.14675e-05
23,1.38739e-05,1.02289e-05,3.11839e-05,5.62241e-05,-3.4548e-07,1.04608e-05
24,8.24307e-06,1.00003e-05,3.1885e-05,5.71095e-05,-4.48197e-06,1.11023e-05
25,8.59754e-06,1.0695e-05,3.58849e-05,5.6747e-05,-5.35726e-06,1.3665e-05
26,1.14314e-05,1.09769e-05,3.92867e-05,5.19905e-05,-4.14183e-06,1.61852e-05
27,4.43697e-06,1.2505e-05,3.6789e-05,4.59447e-05,-3.05512e-06,1.62951e-05
28,-1.49614e-05,1.3715e-05,2.92639e-05,4.49981e-05,-3.31824e-06,1.41158e-05
29,-2.54913e-05,1.43698e-05,2.61989e-05,4.90059e-05,-4.7137e-06,1.3349e-05
30,-1.54801e-05,1.55173e-05,3.32624e-05,5.22675e-05,-7.07159e-06,1.51176e-05
31,-1.7413e-06,1.62698e-05,4.17873e-05,5.17301e-05,-1.06066e-05,1.74282e-05
32,9.58155e-07,1.69333e-05,4.23054e-05,4.79687e-05,-1.26605e-05,1.91198e-05
33,-7.51083e-06,1.81278e-05,3.53405e-05,4.40803e-05,-1.09932e-05,1.95574e-05
34,-2.18556e-05,1.93372e-05,2.56648e-05,4.4013e-05,-7.7851e-06,1.912e-05
35,-3.02296e-05,1.97367e-05,2.07555e-05,4.84351e-05,-6.04326e-06,1.80891e-05
36,-2.23484e-05,1.7908e-05,2.50161e-05,5.21959e-05,-5.13051e-06,1.60953e-05
37,-4.88264e-06,1.29862e-05,3.40887e-05,5.1659e-05,-3.72996e-06,1.43537e-05
38,6.57402e-06,7.64749e-06,3.99032e-05,4.85893e-05,-3.67602e-06,1.57357e-05
39,4.27845e-06,4.50662e-06,3.86146e-05,4.64542e-05,-7.37279e-06,2.07255e-05
40,-9.582e-06,3.33133e-06,3.20149e-05,4.80019e-05,-1.35728e-05,2.5535e-05
41,-1.9656e-05,3.29908e-06,2.82383e-05,5.30432e-05,-1.84755e-05,2.59779e-05
42,-1.09955e-05,6.13731e-06,3.29314e-05,5.67657e-05,-2.02828e-05,2.10336e-05
43,7.83984e-06,1.20959e-05,4.00914e-05,5.6059e-05,-1.97475e-05,1.37396e-05
44,1.90401e-05,1.51286e-05,4.25093e-05,5.22411e-05,-1.74359e-05,9.5601e-06
45,1.87438e-05,1.1239e-05,4.12906e-05,4.74929e-05,-1.42697e-05,1.13051e-05
46,5.81002e-06,4.1624e-06,3.66283e-05,4.67355e-05,-1.32284e-05,1.58014e-05
47,-9.6606e-06,-2.16456e-07,3.07721e-05,5.23787e-05,-1.51673e-05,1.56936e-05
48,-5.09661e-06,1.25033e-06,3.27155e-05,5.81866e-05,-1.38805e-05,7.59064e-06
49,1.03898e-05,7.11755e-06,3.88528e-05,5.76148e-05,-7.33155e-06,-2.99802e-06
50,1.59178e-05,1.4231e-05,3.95e-05,5.4649e-05,-2.56705e-06,-7.03063e-06
51,1.43827e-05,1.80551e-05,3.79274e-05,5.71236e-05,-3.01837e-06,-9.25777e-07
52,1.20488e-05,1.55323e-05,3.75969e-05,6.01405e-05,-2.89401e-06,8.63918e-06
53,9.74448e-06,1.15695e-05,3.76161e-05,5.72409e-05,4.41253e-06,1.44324e-05
54,6.01545e-07,1.23602e-05,3.57081e-05,5.24055e-05,1.45528e-05,1.58294e-05
55,-1.6746e-05,1.63258e-05,3.01624e-05,5.11513e-05,1.51111e-05,1.55743e-05
56,-2.42318e-05,1.78948e-05,2.59522e-05,5.26357e-05,2.61034e-06,1.58787e-05
57,-1.196e-05,1.51036e-05,2.85701e-05,5.39933e-05,-1.5145e-05,1.76678e-05
58,4.10821e-06,1.0486e-05,3.36433e-05,5.45162e-05,-3.07897e-05,1.92522e-05
59,9.84409e-06,9.21248e-06,3.6315e-05,5.33856e-05,-3.8656e-05,1.89542e-05
60,3.1729e-06,1.25469e-05,3.616e-05,5.07637e-05,-3.4597e-05,1.73521e-05
61,-1.08035e-05,1.66251e-05,3.22281e-05,4.994e-05,-2.11472e-05,1.53107e-05
62,-1.78453e-05,1.78066e-05,2.76503e-05,5.35233e-05,-8.10765e-06,1.3376e-05
63,-9.51216e-06,1.49575e-05,2.88532e-05,5.82504e-05,-2.29667e-06,1.23845e-05
64,3.27821e-06,1.12461e-05,3.55371e-05,5.98965e-05,-2.05135e-06,1.29115e-05
65,6.12982e-06,1.06778e-05,4.07334e-05,5.75856e-05,-3.35822e-06,1.34854e-05
66,-1.94072e-06,1.31626e-05,3.99837e-05,5.34618e-05,-4.63854e-06,1.27098e-05
67,-1.52357e-05,1.58306e-05,3.26914e-05,5.14224e-05,-5.89537e-06,1.06934e-05
68,-2.3253e-05,1.73863e-05,2.51621e-05,5.36333e-05,-7.05471e-06,8.06292e-06
69,-1.77551e-05,1.8278e-05,2.67605e-05,5.74486e-05,-8.71874e-06,7.23926e-06
70,-5.99075e-06,1.87448e-05,3.72146e-05,5.98283e-05,-1.14059e-05,9.75181e-06
71,2.57871e-07,1.83153e-05,4.80644e-05,5.83995e-05,-1.21453e-05,1.20912e-05
72,-2.79668e-06,1.7431e-05,5.23762e-05,5.29447e-05,-7.62324e-06,1.32053e-05
73,-1.59472e-05,1.73853e-05,4.55977e-05,4.99029e-05,-1.2207e-06,1.40089e-05
74,-2.83626e-05,1.86731e-05,3.41884e-05,5.31619e-05,2.21986e-06,1.26978e-05
75,-2.2718e-05,1.78876e-05,3.20824e-05,5.59154e-05,3.02067e-06,9.45875e-06
76,-8.83325e-06,1.32798e-05,3.82241e-05,5.33933e-05,2.40453e-06,6.7867e-06
77,-4.07391e-06,9.6097e-06,4.10606e-05,5.16677e-05,8.0378e-07,6.18828e-06
78,-3.54952e-06,7.04213e-06,4.12208e-05,5.49254e-05,-1.25835e-06,7.53697e-06
79,-4.474e-06,6.03432e-06,4.21724e-05,5.79156e-05,-4.33789e-06,8.20707e-06
80,-7.41856e-06,1.0577e-05,4.44033e-05,5.64147e-05,-7.24538e-06,7.79024e-06
81,-1.50516e-05,1.81838e-05,4.76567e-05,5.21042e-05,-8.76454e-06,9.22621e-06
82,-2.82452e-05,2.21076e-05,4.62493e-05,5.0037e-05,-1.02957e-05,1.17666e-05
83,-3.31794e-05,2.04506e-05,4.37202e-05,5.23077e-05,-1.05815e-05,1.12201e-05
84,-2.18799e-05,1.70934e-05,4.88829e-05,5.59653e-05,-8.92997e-06,9.03011e-06
85,-6.42863e-06,1.5269e-05,5.78918e-05,5.74291e-05,-7.68003e-06,1.03395e-05
86,-5.0005e-07,1.49534e-05,6.16895e-05,5.50422e-05,-6.80894e-06,1.50538e-05
87,-9.06841e-06,1.439e-05,5.62222e-05,5.07568e-05,-4.99669e-06,1.93911e-05
88,-2.57355e-05,1.33986e-05,4.3757e-05,4.82444e-05,-2.37252e-06,1.92441e-05
89,-3.29431e-05,1.33768e-05,3.40598e-05,4.99214e-05,-8.00005e-07,1.39248e-05
90,-2.12671e-05,1.46216e-05,3.5361e-05,5.41295e-05,-2.06036e-06,8.09662e-06
91,-2.58782e-06,1.55839e-05,4.28301e-05,5.6418e-05,-4.46489e-06,6.83603e-06
92,5.57971e-06,1.57195e-05,4.5728e-05,5.27781e-05,-3.98878e-06,8.17147e-06
93,-1.30545e-06,1.52303e-05,4.11463e-05,4.54377e-05,-1.02627e-06,6.79454e-06
94,-1.61404e-05,1.37927e-05,3.08735e-05,4.14084e-05,-5.86832e-07,2.64538e-06
95,-2.49361e-05,1.19347e-05,2.19504e-05,4.38937e-05,-5.05977e-06,-3.65088e-07
96,-1.81761e-05,1.14314e-05,2.43851e-05,4.92192e-05,-1.06758e-05,-5.09556e-07
97,-2.95497e-06,1.34347e-05,3.57132e-05,5.1028e-05,-1.34206e-05,1.33976e-06
98,6.55605e-06,1.67601e-05,4.54912e-05,4.82408e-05,-1.42914e-05,5.13073e-06
99,4.61269e-06,1.8329e-05,4.73629e-05,4.61502e-05,-1.5718e-05,1.00397e-05
100,-1.16322e-05,1.69213e-05,3.96695e-05,4.94745e-05,-1.79798e-05,1.39779e-05
101,-2.92969e-05,1.4385e-05,2.97079e-05,5.55044e-05,-1.80897e-05,1.66616e-05
102,-2.51068e-05,1.2443e-05,3.04917e-05,5.67987e-05,-1.22789e-05,1.81196e-05
103,-7.89146e-06,1.0514e-05,4.05754e-05,5.44453e-05,-4.41929e-06,1.78428e-05
104,1.64812e-06,9.40092e-06,4.42001e-05,5.31243e-05,-9.77956e-07,1.62532e-05
105,4.63782e-06,1.01476e-05,3.78288e-05,5.27217e-05,-2.25267e-06,1.54615e-05
106,5.58435e-06,1.16372e-05,3.27279e-05,5.29851e-05,-5.80295e-06,1.61574e-05
107,6.38188e-06,1.37045e-05,3.51347e-05,5.33205e-05,-8.47999e-06,1.73572e-05
108,1.22638e-06,1.44159e-05,3.75244e-05,5.26316e-05,-8.1804e-06,1.76871e-05
109,-1.34344e-05,1.22497e-05,3.34972e-05,5.34855e-05,-6.48199e-06,1.44744e-05
110,-2.09009e-05,8.78837e-06,3.06128e-05,5.7608e-05,-6.36262e-06,9.7709e-06
111,-9.05421e-06,7.2121e-06,3.56795e-05,6.06035e-05,-7.45126e-06,9.06385e-06
112,8.80862e-06,7.90074e-06,4.17577e-05,5.87336e-05,-8.0155e-06,1.27369e-05
113,1.45703e-05,1.051e-05,4.19349e-05,5.2583e-05,-7.47175e-06,1.60623e-05
114,3.1573e-06,1.54462e-05,3.65775e-05,4.65826e-05,-6.47947e-06,1.65883e-05
115,-1.68057e-05,2.00021e-05,2.84998e-05,4.44053e-05,-6.36348e-06,1.6508e-05
116,-2.73957e-05,2.09877e-05,2.55871e-05,4.63468e-05,-7.21471e-06,1.8061e-05
117,-2.03402e-05,1.91318e-05,3.31533e-05,4.90939e-05,-6.30199e-06,2.05332e-05
118,-6.96942e-06,1.78927e-05,4.30468e-05,5.01314e-05,-1.24024e-06,2.18444e-05
119,-1.3261e-06,1.73723e-05,4.56447e-05,4.9296e-05,5.86655e-06,2.15041e-05
120,-7.12571e-06,1.54145e-05,4.19605e-05,4.69953e-05,1.10002e-05,2.06533e-05
121,-2.24429e-05,1.15763e-05,3.46971e-05,4.42873e-05,1.26675e-05,1.91494e-05
122,-3.4021e-05,7.7269e-06,2.79785e-05,4.29384e-05,1.17467e-05,1.63702e-05
123,-2.58634e-05,5.7885e-06,2.97017e-05,4.48375e-05,7.77433e-06,1.41066e-05
124,-5.92295e-06,5.51462e-06,3.80003e-05,4.79187e-05,-2.38509e-06,1.38641e-05
125,4.83292e-06,5.60393e-06,4.23321e-05,4.75791e-05,-1.81057e-05,1.53805e-05
126,4.06822e-07,7.32554e-06,4.08796e-05,4.38371e-05,-2.96002e-05,1.69437e-05
127,-1.70826e-05,9.49798e-06,3.55922e-05,4.31713e-05,-3.09436e-05,1.67479e-05
128,-3.37903e-05,8.33266e-06,2.90929e-05,4.58723e-05,-2.95386e-05,1.62819e-05
129,-2.70497e-05,7.50452e-06,3.10003e-05,4.58799e-05,-3.06904e-05,1.86963e-05
130,-8.35881e-06,9.64061e-06,3.90455e-05,4.37088e-05,-3.14e-05,2.54799e-05
131,-3.94003e-07,9.98839e-06,4.19073e-05,4.4307e-05,-2.94473e-05,3.3062e-05
132,9.42249e-07,7.95732e-06,4.07711e-05,4.94643e-05,-2.39192e-05,3.36585e-05
133,-8.75892e-08,7.51e-06,3.90698e-05,5.53965e-05,-1.6309e-05,2.52422e-05
134,-3.56912e-06,9.31294e-06,3.69891e-05,5.55947e-05,-1.1948e-05,1.36691e-05
135,-1.201e-05,1.15692e-05,3.41608e-05,4.8652e-05,-1.2438e-05,4.79883e-06
136,-2.52555e-05,1.22709e-05,2.94585e-05,4.20358e-05,-1.31783e-05,1.77906e-06
137,-2.95795e-05,1.12963e-05,2.80612e-05,4.14907e-05,-1.15351e-05,4.85503e-06
138,-1.66354e-05,1.1843e-05,3.52978e-05,4.45279e-05,-8.49417e-06,1.0328e-05
139,4.90801e-07,1.41454e-05,4.59851e-05,4.77444e-05,-6.49944e-06,1.30803e-05
140,6.6754e-06,1.47607e-05,5.13604e-05,4.89952e-05,-6.14512e-06,1.24239e-05
141,-2.34457e-06,1.19706e-05,4.78521e-05,4.86109e-05,-6.56554e-06,1.22532e-05
142,-2.04356e-05,7.35279e-06,4.00663e-05,5.03435e-05,-7.66028e-06,1.42396e-05
143,-2.9889e-05,4.11809e-06,3.80886e-05,5.57592e-05,-8.80992e-06,1.64323e-05
144,-2.09117e-05,3.53736e-06,4.52397e-05,6.16082e-05,-9.37808e-06,1.77318e-05
145,-6.49629e-06,5.49649e-06,5.2201e-05,6.46014e-05,-9.8345e-06,1.87064e-05
146,-3.27455e-06,9.8175e-06,5.1472e-05,6.34523e-05,-9.30719e-06,1.99086e-05
147,-1.25471e-05,1.47387e-05,4.54257e-05,5.88044e-05,-7.25541e-06,2.21876e-05
148,-2.65369e-05,1.72178e-05,3.68549e-05,5.4586e-05,-9.53724e-06,2.51578e-05
149,-3.17883e-05,1.62251e-05,2.94926e-05,5.54841e-05,-1.93183e-05,2.46816e-05
150,-1.95982e-05,1.36796e-05,3.06218e-05,6.0926e-05,-2.90308e-05,1.82095e-05
151,-1.80379e-06,1.2424e-05,3.85448e-05,6.46253e-05,-2.76811e-05,1.04396e-05
152,3.52815e-06,1.36264e-05,4.20652e-05,6.19254e-05,-1.23304e-05,6.14509e-06
153,-4.319e-06,1.58936e-05,3.89233e-05,5.5472e-05,6.15637e-06,6.17726e-06
154,-2.01928e-05,1.67069e-05,3.27525e-05,5.2369e-05,1.61508e-05,9.0091e-06
155,-3.16465e-05,1.55788e-05,2.64188e-05,5.47984e-05,1.41271e-05,1.26605e-05
156,-2.12026e-05,1.58872e-05,2.75049e-05,5.93199e-05,-1.83354e-06,1.73406e-05
157,-1.38192e-06,1.75943e-05,3.32861e-05,6.13153e-05,-2.27863e-05,2.12335e-05
158,7.16126e-06,1.58835e-05,3.54613e-05,5.87004e-05,-2.93038e-05,1.97808e-05
159,8.04902e-06,1.19932e-05,3.70398e-05,5.48091e-05,-1.63782e-05,1.41052e-05
160,8.4381e-06,1.01092e-05,3.76378e-05,5.28989e-05,9.87908e-07,1.03402e-05
161,1.00541e-05,1.00208e-05,3.41299e-05,5.43946e-05,9.22767e-06,1.01309e-05
162,7.87211e-06,1.23326e-05,2.89015e-05,5.79075e-05,7.23841e-06,1.19119e-05
163,-2.90859e-06,1.57609e-05,2.52964e-05,5.97961e-05,8.59657e-07,1.3934e-05
164,-1.08043e-05,1.61016e-05,2.69257e-05,5.88378e-05,-4.47489e-06,1.49224e-05
165,-3.89642e-06,1.29095e-05,3.4759e-05,5.65484e-05,-7.56459e-06,1.46841e-05
166,9.58368e-06,9.25009e-06,4.24251e-05,5.48725e-05,-9.04914e-06,1.37894e-05
167,1.7098e-05,9.72799e-06,4.53547e-05,5.33174e-05,-9.30782e-06,1.35095e-05
168,1.33575e-05,1.46314e-05,4.27958e-05,5.07825e-05,-9.48638e-06,1.38828e-05
169,2.12445e-06,1.88198e-05,3.46716e-05,4.94322e-05,-9.43785e-06,1.34402e-05
170,-2.97197e-06,1.97379e-05,2.68237e-05,5.12323e-05,-6.54328e-06,1.20055e-05
171,5.93804e-06,1.85331e-05,2.67761e-05,5.22756e-05,-1.41446e-06,1.18094e-05
172,2.03046e-05,1.61866e-05,3.2756e-05,4.90623e-05,1.51527e-06,1.32232e-05
173,2.71343e-05,1.46321e-05,3.67585e-05,4.40785e-05,1.77149e-06,1.3749e-05
174,2.21875e-05,1.57573e-05,3.48763e-05,4.12673e-05,2.6823e-06,1.26899e-05
175,9.01434e-06,1.82629e-05,2.86276e-05,4.21509e-05,4.19219e-06,1.18661e-05
176,8.29063e-07,1.89276e-05,2.49696e-05,4.73304e-05,4.03027e-06,1.16662e-05
177,9.08529e-06,1.71673e-05,2.98951e-05,5.52847e-05,1.92283e-06,1.12319e-05
178,2.42594e-05,1.42403e-05,3.96528e-05,6.08842e-05,-8.32434e-07,1.05678e-05
179,2.82236e-05,1.10088e-05,4.41134e-05,6.09249e-05,-4.66189e-06,1.08838e-05
180,1.95038e-05,1.10965e-05,3.85261e-05,5.8815e-05,-9.87749e-06,1.31725e-05
181,3.49616e-06,1.41576e-05,2.75925e-05,5.81019e-05,-1.38677e-05,1.67861e-05
182,-7.80446e-06,1.47418e-05,2.21512e-05,5.84193e-05,-1.51061e-05,1.89811e-05
183,1.81237e-06,9.6049e-06,2.85714e-05,5.81129e-05,-1.41491e-05,1.88102e-05
184,1.81443e-05,3.31669e-06,3.8363e-05,5.72423e-05,-1.12392e-05,1.63123e-05
185,2.04481e-05,3.04522e-06,4.1238e-05,5.75233e-05,-8.24671e-06,1.0734e-05
186,1.73879e-05,6.03798e-06,4.19446e-05,5.83211e-05,-6.70039e-06,6.97317e-06
187,1.85943e-05,7.56499e-06,4.29358e-05,5.78938e-05,-5.96313e-06,7.81117e-06
188,2.10792e-05,7.72398e-06,4.13464e-05,5.48024e-05,-6.25259e-06,8.41185e-06
189,1.48055e-05,8.21321e-06,3.78907e-05,5.01317e-05,-7.42068e-06,6.08668e-06
190,-2.64865e-06,1.00988e-05,3.10634e-05,4.76761e-05,-8.94611e-06,3.93393e-06
191,-1.30106e-05,1.19658e-05,2.50533e-05,5.07454e-05,-1.05885e-05,5.89894e-06
192,-5.42816e-06,1.14682e-05,2.78274e-05,5.75272e-05,-1.13286e-05,1.13976e-05
193,5.86946e-06,1.02156e-05,3.62009e-05,6.19809e-05,-1.07932e-05,1.67897e-05
194,7.07569e-06,1.14509e-05,4.19391e-05,5.95155e-05,-1.03705e-05,2.06163e-05
195,-3.36986e-06,1.4371e-05,4.26316e-05,5.22848e-05,-1.18586e-05,2.27733e-05
196,-1.96665e-05,1.64102e-05,3.82037e-05,4.90541e-05,-1.4423e-05,2.19149e-05
197,-2.81497e-05,1.6184e-05,3.39458e-05,5.32889e-05,-1.38651e-05,1.83725e-05
198,-1.98582e-05,1.36535e-05,3.61385e-05,5.89445e-05,-6.97895e-06,1.54796e-05
199,-4.28459e-06,1.0406e-05,4.07605e-05,5.99505e-05,1.78785e-06,1.53033e-05
200,2.71356e-06,8.34956e-06,4.12242e-05,5.64508e-05,3.18299e-06,1.70281e-05
201,-3.64796e-06,8.03269e-06,3.67097e-05,5.16846e-05,-4.87442e-06,1.9736e-05
202,-1.95078e-05,9.08674e-06,2.88134e-05,4.92682e-05,-1.56497e-05,2.31158e-05
203,-3.2784e-05,9.77969e-06,2.26281e-05,5.10062e-05,-2.17429e-05,2.66329e-05
204,-3.03251e-05,9.21648e-06,2.50696e-05,5.41227e-05,-2.09081e-05,2.88515e-05
205,-1.72473e-05,8.75993e-06,3.5086e-05,5.41445e-05,-1.72404e-05,2.83093e-05
206,-9.09431e-06,1.01239e-05,4.36725e-05,4.97917e-05,-1.56552e-05,2.66025e-05
207,-1.06358e-05,1.24973e-05,4.50896e-05,4.42878e-05,-1.60191e-05,2.73705e-05
208,-2.20393e-05,1.30282e-05,3.99347e-05,4.30144e-05,-1.66039e-05,2.87852e-05
209,-3.40432e-05,1.2068e-05,3.52071e-05,4.60613e-05,-1.64322e-05,2.74826e-05
210,-2.80122e-05,1.27086e-05,4.00073e-05,4.99209e-05,-1.3064e-05,2.63393e-05
211,-1.18944e-05,1.37694e-05,4.77113e-05,5.2045e-05,-9.285e-06,2.62184e-05
212,-2.77959e-06,1.31691e-05,4.81271e-05,5.15833e-05,-1.04987e-05,2.43806e-05
213,2.16975e-06,1.30386e-05,4.4185e-05,5.03577e-05,-1.43342e-05,2.09165e-05
214,5.41696e-06,1.39608e-05,4.12581e-05,4.94418e-05,-1.50383e-05,1.76039e-05
215,6.48022e-06,1.54215e-05,4.13463e-05,4.80492e-05,-1.27417e-05,1.65028e-05
216,1.31011e-06,1.83528e-05,4.06316e-05,4.4329e-05,-1.13074e-05,1.6499e-05
217,-1.1699e-05,2.0216e-05,3.5676e-05,4.06404e-05,-1.07223e-05,1.40412e-05
218,-1.93463e-05,1.84118e-05,3.2046e-05,4.04094e-05,-1.02064e-05,1.06784e-05
219,-1.15674e-05,1.51952e-05,3.7743e-05,4.31194e-05,-1.08149e-05,1.07598e-05
220,7.70211e-07,1.36389e-05,4.88633e-05,4.48177e-05,-1.36181e-05,1.36513e-05
221,4.40143e-06,1.46763e-05,5.59813e-05,4.39746e-05,-1.8646e-05,1.48117e-05
222,-4.26884e-06,1.74654e-05,5.33918e-05,4.32851e-05,-2.40534e-05,1.28471e-05
223,-1.99198e-05,1.99471e-05,4.30726e-05,4.48914e-05,-2.67671e-05,1.0184e-05
224,-2.74995e-05,2.08232e-05,3.66357e-05,4.86793e-05,-2.36778e-05,9.18782e-06
225,-1.94349e-05,2.02391e-05,4.18919e-05,5.18687e-05,-1.46318e-05,1.01455e-05
226,-8.14367e-06,1.8979e-05,5.05572e-05,5.30738e-05,-4.61843e-06,1.14891e-05
227,-8.30241e-06,1.86473e-05,5.14388e-05,5.33837e-05,1.47606e-06,1.28038e-05
228,-1.91877e-05,1.99118e-05,4.51407e-05,5.25754e-05,3.36993e-06,1.50949e-05
229,-3.27025e-05,2.14049e-05,3.49331e-05,4.99599e-05,3.0167e-06,1.7153e-05
230,-3.73609e-05,2.19051e-05,2.67221e-05,4.77808e-05,1.79894e-06,1.61911e-05
231,-2.69372e-05,2.1261e-05,3.05818e-05,4.80979e-05,6.58393e-07,1.27934e-05
232,-1.40392e-05,1.94072e-05,4.2402e-05,4.94953e-05,6.19086e-07,1.06529e-05
233,-1.31196e-05,1.76898e-05,4.74319e-05,4.7931e-05,-1.61829e-07,1.14143e-05
234,-2.18685e-05,1.85135e-05,4.40495e-05,4.4419e-05,-3.67147e-06,1.36077e-05
235,-3.56571e-05,2.18784e-05,3.53083e-05,4.41556e-05,-7.91094e-06,1.50389e-05
236,-4.34825e-05,2.26261e-05,2.46843e-05,4.67078e-05,-1.04282e-05,1.40623e-05
237,-2.95597e-05,1.8112e-05,2.17013e-05,4.86432e-05,-1.10802e-05,1.25901e-05
238,-7.06225e-06,1.27663e-05,2.75351e-05,4.96563e-05,-1.16886e-05,1.3344e-05
239,2.30751e-06,1.01922e-05,3.35132e-05,5.03026e-05,-1.28431e-05,1.52838e-05
240,2.42982e-06,1.10344e-05,3.76053e-05,5.17948e-05,-1.38113e-05,1.60912e-05
241,2.97476e-06,1.38087e-05,4.09903e-05,5.44491e-05,-1.41097e-05,1.43231e-05
242,5.24842e-06,1.51566e-05,4.24481e-05,5.57738e-05,-1.25152e-05,1.10677e-05
243,1.32779e-06,1.31336e-05,3.95454e-05,5.46224e-05,-8.50023e-06,7.56644e-06
244,-1.17894e-05,1.04917e-05,2.94225e-05,5.31884e-05,-4.23303e-06,3.62902e-06
245,-1.80484e-05,1.03439e-05,1.92254e-05,5.37635e-05,-3.00409e-06,1.37228e-06
246,-8.27234e-06,1.07297e-05,1.93046e-05,5.68461e-05,-4.46193e-06,4.44148e-06
247,3.7056e-06,9.80276e-06,2.89097e-05,5.78912e-05,-6.1687e-06,1.24537e-05
248,6.59388e-06,1.00366e-05,3.96712e-05,5.11883e-05,-6.734e-06,1.84494e-05
249,-1.69221e-07,1.27995e-05,4.28938e-05,4.11853e-05,-7.31296e-06,1.6561e-05
250,-1.23575e-05,1.5074e-05,3.70609e-05,3.74751e-05,-9.60887e-06,9.75958e-06
251,-1.77659e-05,1.49886e-05,3.0888e-05,4.30945e-05,-1.2313e-05,4.31206e-06
252,-8.21777e-06,1.26016e-05,3.31498e-05,5.25609e-05,-1.34449e-05,2.49675e-06
253,7.88169e-06,8.11318e-06,4.17043e-05,5.83761e-05,-1.36722e-05,2.6006e-06
254,1.6855e-05,3.61418e-06,4.76656e-05,5.79235e-05,-1.38953e-05,2.67521e-06
255,1.33399e-05,2.37259e-06,4.55996e-05,5.31267e-05,-1.1426e-05,3.277e-06
256,-7.49499e-07,4.36261e-06,3.64813e-05,4.81648e-05,-5.14732e-06,5.17407e-06
257,-1.25703e-05,6.72689e-06,2.80009e-05,4.72492e-05,7.0313e-09,6.89408e-06
258,-8.98727e-06,7.76324e-06,2.83331e-05,4.9528e-05,-8.18603e-07,7.56039e-06
259,4.44452e-06,8.38484e-06,3.55832e-05,5.13417e-05,-5.65425e-06,8.32034e-06
260,1.37796e-05,1.15327e-05,4.06785e-05,5.10029e-05,-8.16725e-06,8.82353e-06
261,1.19967e-05,1.64092e-05,3.91255e-05,5.0007e-05,-6.4434e-06,9.8019e-06
262,-4.50738e-06,1.71921e-05,3.15208e-05,5.16809e-05,-4.12756e-06,1.35803e-05
263,-2.28612e-05,1.33526e-05,2.40922e-05,5.614e-05,-3.18211e-06,1.80186e-05
264,-1.90023e-05,1.0122e-05,2.72207e-05,5.81204e-05,-2.86342e-06,2.04431e-05
265,-1.59819e-06,8.75435e-06,3.72468e-05,5.47943e-05,-6.35417e-06,2.05412e-05
266,8.00022e-06,8.40509e-06,4.03238e-05,4.91524e-05,-1.60499e-05,1.74726e-05
267,9.73896e-06,6.41783e-06,3.87242e-05,4.61619e-05,-2.52404e-05,1.33642e-05
268,8.96979e-06,2.6002e-06,4.18609e-05,4.79181e-05,-2.6691e-05,1.25341e-05
269,7.748e-06,8.57099e-07,4.69518e-05,5.09522e-05,-2.03603e-05,1.5141e-05
270,-1.13368e-06,3.04022e-06,4.5328e-05,5.27247e-05,-9.90854e-06,1.81447e-05
271,-1.78846e-05,7.35401e-06,3.65711e-05,5.37703e-05,7.54708e-07,1.87516e-05
272,-2.47361e-05,9.45766e-06,3.10196e-05,5.49828e-05,7.26284e-06,1.67642e-05
273,-1.28841e-05,8.74221e-06,3.62805e-05,5.5857e-05,1.06856e-05,1.49041e-05
274,3.50102e-06,7.97752e-06,4.54165e-05,5.52583e-05,1.64714e-05,1.50335e-05
275,1.0672e-05,8.94968e-06,4.91484e-05,5.27705e-05,2.18308e-05,1.65314e-05
276,4.79569e-06,1.00664e-05,4.68227e-05,4.98488e-05,1.63731e-05,1.6887e-05
277,-9.05042e-06,9.21231e-06,3.98801e-05,4.98852e-05,-5.35216e-07,1.38244e-05
278,-1.49641e-05,7.49097e-06,3.31029e-05,5.42215e-05,-1.91989e-05,9.03901e-06
279,-4.13234e-06,6.69932e-06,3.48438e-05,5.94579e-05,-3.21258e-05,6.67628e-06
280,1.20164e-05,7.69662e-06,4.40006e-05,6.10215e-05,-3.57536e-05,7.58639e-06
281,1.79264e-05,1.0583e-05,5.00456e-05,5.69727e-05,-2.87291e-05,9.40001e-06
282,1.19523e-05,1.36531e-05,4.68574e-05,5.04328e-05,-1.52443e-05,1.02968e-05
283,9.78416e-08,1.52117e-05,3.57154e-05,4.81774e-05,-4.53546e-06,1.0359e-05
284,-6.99288e-06,1.47822e-05,2.54217e-05,5.16337e-05,-1.40346e-06,1.00723e-05
285,1.01412e-07,1.16004e-05,2.70093e-05,5.58438e-05,-3.45628e-06,9.49073e-06
286,1.51405e-05,6.65683e-06,3.79111e-05,5.69335e-05,-6.36308e-06,9.61374e-06
287,2.16513e-05,3.39424e-06,4.53773e-05,5.40575e-05,-6.80176e-06,1.18649e-05
288,1.32068e-05,4.06087e-06,4.50282e-05,4.99941e-05,-5.17408e-06,1.49072e-05
289,-7.40353e-06,7.39543e-06,3.91155e-05,5.01439e-05,-5.17796e-06,1.75506e-05
290,-2.65413e-05,9.92224e-06,3.21409e-05,5.4284e-05,-7.0808e-06,1.89705e-05
291,-2.32108e-05,9.13562e-06,3.0786e-05,5.70577e-05,-8.24074e-06,1.84769e-05
292,-6.42948e-06,6.95057e-06,3.34928e-05,5.6943e-05,-7.74686e-06,1.67529e-05
293,8.79926e-07,7.10343e-06,3.60036e-05,5.81786e-05,-7.83828e-06,1.50125e-05
294,-2.17462e-07,8.44744e-06,3.92213e-05,6.23938e-05,-9.2044e-06,1.63344e-05
295,-2.412e-06,8.84161e-06,4.01548e-05,6.34168e-05,-1.06929e-05,1.93408e-05
296,-1.93711e-06,9.55571e-06,3.89833e-05,5.79354e-05,-1.03081e-05,2.02883e-05
297,-3.9149e-06,1.07726e-05,3.71676e-05,5.2165e-05,-7.62033e-06,1.76655e-05
298,-1.43608e-05,1.15917e-05,3.17421e-05,5.16647e-05,-4.76618e-06,1.34171e-05
299,-2.24064e-05,1.21985e-05,2.77945e-05,5.37271e-05,-3.28542e-06,9.80209e-06
300,-1.64921e-05,1.42554e-05,3.18559e-05,5.42962e-05,-3.24192e-06,7.55726e-06
301,-5.31962e-06,1.70002e-05,3.85054e-05,5.32886e-05,-3.86623e-06,7.66066e-06
302,-2.36788e-06,1.82627e-05,4.04638e-05,5.06788e-05,-4.79528e-06,9.79027e-06
303,-1.08576e-05,1.82925e-05,3.65126e-05,4.83523e-05,-6.18808e-06,1.1714e-05
304,-2.40645e-05,1.76969e-05,2.76694e-05,5.04377e-05,-8.51469e-06,1.07172e-05
305,-2.7505e-05,1.68148e-05,2.10686e-05,5.63309e-05,-1.07198e-05,9.18607e-06
306,-1.68489e-05,1.5343e-05,2.57424e-05,6.05205e-05,-1.11021e-05,9.59833e-06
307,-5.60597e-06,1.36629e-05,3.71071e-05,5.89788e-05,-9.32469e-06,1.01758e-05
308,-4.68227e-06,1.3985e-05,4.32526e-05,5.33927e-05,-6.92554e-06,1.11809e-05
309,-1.08531e-05,1.66088e-05,4.12595e-05,4.8648e-05,-5.30255e-06,1.53964e-05
310,-1.95058e-05,1.91217e-05,3.46754e-05,4.82826e-05,-5.01481e-06,2.11871e-05
311,-2.33947e-05,2.02383e-05,2.9322e-05,5.20458e-05,-5.70212e-06,2.51047e-05
312,-1.42626e-05,1.92604e-05,3.13844e-05,5.7044e-05,-7.11408e-06,2.73245e-05
313,-3.22166e-08,1.57219e-05,3.75214e-05,6.05782e-05,-8.68277e-06,2.92804e-05
314,5.09128e-06,1.13136e-05,4.01355e-05,5.97472e-05,-9.07005e-06,3.01502e-05
315,-2.39255e-07,9.90415e-06,3.98819e-05,5.52937e-05,-7.81112e-06,2.80717e-05
316,-1.4735e-05,1.1365e-05,3.6042e-05,5.31498e-05,-5.43355e-06,2.20432e-05
317,-2.64214e-05,1.07049e-05,3.04854e-05,5.47546e-05,-1.61321e-06,1.32965e-05
318,-1.72336e-05,6.99573e-06,3.18636e-05,5.54308e-05,4.18562e-06,5.68774e-06
319,-5.89056e-07,3.93067e-06,3.63642e-05,5.19678e-05,9.56335e-06,3.28632e-06
320,3.9445e-06,3.93406e-06,3.72239e-05,4.84885e-05,1.1967e-05,7.53331e-06
321,2.11275e-06,5.80634e-06,3.88127e-05,5.07122e-05,1.12678e-05,1.38938e-05
322,1.75243e-06,6.79888e-06,4.14244e-05,5.42907e-05,5.30003e-06,1.50786e-05
323,2.70932e-06,7.64154e-06,4.21093e-05,5.26743e-05,-8.81089e-06,9.34037e-06
324,-2.08029e-06,1.00724e-05,3.9637e-05,4.8854e-05,-2.64026e-05,1.99074e-06
325,-1.4773e-05,1.12096e-05,3.32848e-05,4.87583e-05,-3.50944e-05,-1.96389e-06
326,-2.22285e-05,9.60738e-06,2.78021e-05,5.25558e-05,-2.82927e-05,-2.47986e-06
327,-1.53255e-05,8.7194e-06,2.94692e-05,5.67443e-05,-1.42202e-05,-2.01544e-07
328,-4.81973e-06,1.03816e-05,3.57857e-05,5.8352e-05,-4.73167e-06,4.75447e-06
329,-2.87104e-06,1.3566e-05,3.98724e-05,5.59176e-05,-5.22595e-06,9.75563e-06
330,-1.1695e-05,1.65244e-05,3.78871e-05,5.17741e-05,-1.64567e-05,1.23466e-05
331,-2.5874e-05,1.74819e-05,2.95001e-05,5.03984e-05,-3.14519e-05,1.36667e-05
332,-3.19709e-05,1.63408e-05,2.28607e-05,5.24444e-05,-3.5826e-05,1.62456e-05
333,-2.21307e-05,1.43872e-05,2.61945e-05,5.51951e-05,-2.36484e-05,2.03524e-05
334,-6.00601e-06,1.23951e-05,3.41129e-05,5.65395e-05,-6.3751e-06,2.37132e-05
335,2.14658e-06,9.98613e-06,3.73641e-05,5.57342e-05,1.75184e-06,2.43075e-05
336,-2.50972e-06,8.33449e-06,3.67379e-05,5.27104e-05,-1.10416e-06,2.32338e-05
337,-1.7136e-05,1.03284e-05,3.46132e-05,5.1226e-05,-7.70094e-06,2.19791e-05
338,-2.64043e-05,1.38278e-05,3.32708e-05,5.56101e-05,-1.12192e-05,2.13492e-05
339,-1.66342e-05,1.47957e-05,3.90313e-05,6.26237e-05,-1.0472e-05,2.22439e-05
340,2.08425e-06,1.43229e-05,4.86958e-05,6.49903e-05,-7.8604e-06,2.26988e-05
341,1.0852e-05,1.48603e-05,5.10676e-05,6.11087e-05,-6.34864e-06,1.96538e-05
342,5.6552e-06,1.64647e-05,4.65191e-05,5.58202e-05,-7.47612e-06,1.42403e-05
343,-1.03522e-05,1.64524e-05,4.07574e-05,5.3938e-05,-9.76407e-06,1.1132e-05
344,-2.42658e-05,1.40559e-05,3.77585e-05,5.71377e-05,-1.02216e-05,1.19462e-05
345,-1.72248e-05,1.21031e-05,4.01559e-05,6.1051e-05,-6.39158e-06,1.48354e-05
346,-1.8782e-06,1.12905e-05,4.43157e-05,6.02738e-05,-1.17923e-06,1.69433e-05
347,2.68244e-06,1.12021e-05,4.4647e-05,5.84412e-05,1.07316e-06,1.79904e-05
348,3.69065e-06,1.22715e-05,4.10835e-05,6.08324e-05,-4.94425e-07,2.08863e-05
349,4.63039e-06,1.22113e-05,3.78939e-05,6.25545e-05,-5.19971e-06,2.29831e-05
350,3.38047e-06,1.19985e-05,3.57959e-05,5.76126e-05,-9.49836e-06,2.1454e-05
351,-2.97315e-06,1.38903e-05,3.26444e-05,4.9698e-05,-1.10626e-05,1.85144e-05
352,-1.51198e-05,1.49903e-05,2.52058e-05,4.62068e-05,-1.08829e-05,1.74573e-05
353,-1.82497e-05,1.32874e-05,1.94618e-05,4.80196e-05,-1.03858e-05,1.84208e-05
354,-3.80721e-06,1.07116e-05,2.49215e-05,5.05003e-05,-1.02299e-05,1.89172e-05
355,1.29146e-05,1.13715e-05,3.57537e-05,5.02129e-05,-1.04457e-05,1.777e-05
356,1.8337e-05,1.66043e-05,4.14422e-05,4.75403e-05,-1.07727e-05,1.507e-05
357,1.07989e-05,2.18636e-05,3.94343e-05,4.47728e-05,-1.10038e-05,1.26497e-05
358,-5.30271e-06,2.15166e-05,3.31346e-05,4.39201e-05,-1.0671e-05,1.14704e-05
359,-1.4893e-05,1.68144e-05,3.06329e-05,4.62074e-05,-9.28996e-06,1.17873e-05
360,-7.21729e-06,1.30215e-05,3.71345e-05,4.93344e-05,-7.41329e-06,1.30167e-05
361,7.25707e-06,1.13325e-05,4.63486e-05,4.98131e-05,-6.61168e-06,1.39684e-05
362,1.3203e-05,9.20222e-06,5.01572e-05,4.81032e-05,-8.19863e-06,1.46811e-05
363,7.82114e-06,6.58216e-06,4.59189e-05,4.75371e-05,-1.12785e-05,1.57791e-05
364,-6.45101e-06,6.46605e-06,3.49084e-05,4.91541e-05,-1.39699e-05,1.64524e-05
365,-1.89801e-05,9.31954e-06,2.57354e-05,5.24468e-05,-1.54024e-05,1.69376e-05
366,-1.52908e-05,1.25945e-05,2.79602e-05,5.72757e-05,-1.57102e-05,1.92541e-05
367,-1.32946e-06,1.46714e-05,3.77443e-05,6.06405e-05,-1.51754e-05,2.21054e-05
368,4.78912e-06,1.6084e-05,4.34882e-05,5.7062e-05,-1.36302e-05,2.1313e-05
369,-1.48107e-06,1.80727e-05,4.05133e-05,4.8307e-05,-1.15045e-05,1.79516e-05
370,-1.66167e-05,1.89701e-05,3.18189e-05,4.53544e-05,-9.15668e-06,1.65679e-05
371,-2.68875e-05,1.65671e-05,2.56512e-05,5.07822e-05,-5.65505e-06,1.81593e-05
372,-1.58092e-05,1.33261e-05,2.80037e-05,5.44122e-05,-3.35117e-06,2.23407e-05
373,1.74096e-06,1.37537e-05,3.33948e-05,5.06945e-05,-5.48888e-06,2.45763e-05
374,7.02685e-06,1.79094e-05,3.59415e-05,4.56268e-05,-1.04586e-05,1.99068e-05
375,7.34626e-06,2.17421e-05,3.90827e-05,4.52042e-05,-1.45282e-05,1.32867e-05
376,7.14702e-06,2.34791e-05,4.38995e-05,4.67795e-05,-1.46329e-05,1.2815e-05
377,5.18803e-06,2.36789e-05,4.46802e-05,4.50906e-05,-1.28832e-05,1.89672e-05
378,-1.4331e-06,2.29172e-05,3.85388e-05,4.16887e-05,-1.29486e-05,2.4637e-05
379,-1.31225e-05,2.13147e-05,2.81241e-05,4.19594e-05,-1.40734e-05,2.33739e-05
380,-1.64797e-05,1.919e-05,2.21724e-05,4.3948e-05,-1.57019e-05,1.8402e-05
381,-5.01812e-06,1.68043e-05,2.83003e-05,4.35161e-05,-1.63545e-05,1.39473e-05
382,6.96869e-06,1.51798e-05,4.03749e-05,4.16063e-05,-1.4324e-05,9.08547e-06
383,9.11495e-06,1.61772e-05,4.60321e-05,3.98956e-05,-1.15842e-05,5.50493e-06
384,7.39112e-07,1.88971e-05,4.16163e-05,3.97757e-05,-1.07239e-05,5.76799e-06
385,-1.52809e-05,1.9507e-05,3.31777e-05,4.36252e-05,-1.18488e-05,8.28609e-06
386,-2.53185e-05,1.69043e-05,2.92238e-05,5.09249e-05,-1.32507e-05,9.3616e-06
387,-1.88445e-05,1.32207e-05,3.21489e-05,5.64535e-05,-1.35554e-05,8.18512e-06
388,-4.29389e-06,1.04318e-05,3.62102e-05,5.69339e-05,-1.22142e-05,6.44212e-06
389,3.30793e-06,9.04037e-06,3.76088e-05,5.32297e-05,-9.29305e-06,5.69844e-06
390,-1.03118e-06,9.20176e-06,3.65381e-05,4.74768e-05,-6.4908e-06,7.11766e-06
391,-1.32734e-05,1.0966e-05,3.27435e-05,4.36046e-05,-5.32035e-06,1.01852e-05
392,-2.01777e-05,1.34229e-05,2.90058e-05,4.46858e-05,-5.44872e-06,1.16043e-05
393,-1.1268e-05,1.59493e-05,3.04899e-05,4.8838e-05,-6.46368e-06,9.24417e-06
394,3.65668e-06,1.80549e-05,3.74562e-05,5.27226e-05,-7.26992e-06,5.85353e-06
395,8.70253e-06,1.94239e-05,4.53956e-05,5.30819e-05,-6.29635e-06,4.33443e-06
396,1.57424e-06,2.00665e-05,4.97011e-05,5.02317e-05,-3.24718e-06,5.72002e-06
397,-1.48949e-05,1.94042e-05,4.63703e-05,5.08635e-05,8.1194e-07,1.06569e-05
398,-2.72443e-05,1.8286e-05,3.71482e-05,5.5958e-05,3.02698e-06,1.68525e-05
399,-1.65388e-05,1.87619e-05,3.2983e-05,5.8121e-05,2.07176e-06,2.13865e-05
400,3.10187e-06,1.9168e-05,3.5014e-05,5.66385e-05,-2.10435e-07,2.22578e-05
401,1.07227e-05,1.86636e-05,3.52979e-05,5.57606e-05,-3.67237e-06,1.94288e-05
402,1.15606e-05,1.73569e-05,3.60307e-05,5.54438e-05,-7.18318e-06,1.5734e-05
403,1.08968e-05,1.40497e-05,3.85494e-05,5.49604e-05,-8.05144e-06,1.40437e-05
404,7.72851e-06,1.22132e-05,3.799e-05,5.46149e-05,-5.69195e-06,1.38447e-05
405,-2.30307e-06,1.48608e-05,3.14134e-05,5.51532e-05,-1.05419e-06,1.07702e-05
406,-1.86407e-05,1.78377e-05,2.05446e-05,5.69786e-05,2.58732e-06,5.40537e-06
407,-2.6638e-05,1.71294e-05,1.35512e-05,5.77634e-05,2.38111e-06,3.25523e-06
408,-1.75892e-05,1.38037e-05,1.77897e-05,5.53624e-05,-2.66487e-07,6.13631e-06
409,-3.3307e-06,1.07155e-05,2.96569e-05,5.15138e-05,-1.91458e-06,1.03632e-05
410,3.07665e-06,9.42131e-06,3.87956e-05,4.91046e-05,-1.50277e-06,1.21763e-05
411,-2.96754e-06,9.32571e-06,3.82308e-05,4.89411e-05,-2.72714e-07,1.05411e-05
412,-1.86007e-05,9.89155e-06,2.95973e-05,5.12682e-05,3.69057e-08,7.90365e-06
413,-2.94772e-05,1.11273e-05,2.34083e-05,5.52204e-05,-2.81462e-06,7.94659e-06
414,-2.47953e-05,1.15168e-05,2.86414e-05,5.75894e-05,-8.36967e-06,1.19704e-05
415,-1.32864e-05,9.77225e-06,4.02147e-05,5.65575e-05,-1.13616e-05,1.75343e-05
416,-8.68986e-06,7.38081e-06,4.67918e-05,5.3147e-05,-8.33699e-06,2.0091e-05
417,-1.28846e-05,5.46273e-06,4.41908e-05,4.9257e-05,-4.03371e-06,1.85128e-05
418,-2.1341e-05,3.08566e-06,3.39528e-05,4.75374e-05,-5.65925e-06,1.50443e-05
419,-2.35673e-05,1.20208e-06,2.44757e-05,5.03131e-05,-1.36737e-05,1.1877e-05
420,-1.16715e-05,1.77052e-06,2.77485e-05,5.46539e-05,-2.28906e-05,1.02612e-05
421,3.09691e-06,3.65177e-06,4.17026e-05,5.60278e-05,-2.78347e-05,1.09981e-05
422,5.00098e-06,5.45511e-06,5.35236e-05,5.48214e-05,-2.60481e-05,1.43108e-05
423,-5.49822e-06,8.23153e-06,5.56404e-05,5.36438e-05,-2.05606e-05,1.77056e-05
424,-2.3902e-05,9.82242e-06,4.68639e-05,5.62358e-05,-1.67116e-05,1.66262e-05
425,-3.80047e-05,8.54108e-06,3.7026e-05,6.14861e-05,-1.56065e-05,1.18636e-05
426,-2.86503e-05,8.8214e-06,3.75495e-05,6.11068e-05,-1.434e-05,9.05639e-06
427,-7.48237e-06,9.47218e-06,4.37279e-05,5.50336e-05,-1.20271e-05,1.02806e-05
428,1.64245e-06,8.16313e-06,4.68503e-05,5.14887e-05,-1.06411e-05,1.21366e-05
429,1.48126e-06,8.70124e-06,4.68866e-05,5.36029e-05,-1.02807e-05,1.31358e-05
430,-8.8285e-07,1.22402e-05,4.73242e-05,5.7227e-05,-9.01706e-06,1.39756e-05
431,-4.05202e-06,1.4798e-05,5.02883e-05,5.62815e-05,-7.72202e-06,1.38674e-05
432,-9.46696e-06,1.42196e-05,5.23099e-05,5.15765e-05,-8.66778e-06,1.27354e-05
433,-1.92385e-05,1.39901e-05,4.72263e-05,5.12376e-05,-1.03273e-05,1.24866e-05
434,-2.30806e-05,1.68242e-05,3.88893e-05,5.71078e-05,-9.87633e-06,1.36452e-05
435,-1.16586e-05,2.00991e-05,3.76689e-05,6.1852e-05,-8.03851e-06,1.52914e-05
436,3.94345e-06,1.80007e-05,4.21134e-05,6.00587e-05,-7.75932e-06,1.74037e-05
437,1.00424e-05,1.17689e-05,4.38442e-05,5.24216e-05,-1.00719e-05,1.94738e-05
438,4.35251e-06,8.88071e-06,4.02289e-05,4.54712e-05,-1.26604e-05,2.09647e-05
439,-7.33643e-06,1.12833e-05,3.3175e-05,4.445e-05,-1.16915e-05,2.06817e-05
440,-1.27478e-05,1.38901e-05,2.84145e-05,4.76364e-05,-8.34671e-06,1.76093e-05
441,-5.86727e-06,1.34545e-05,3.26841e-05,5.11776e-05,-7.26652e-06,1.43128e-05
442,5.11324e-06,1.18914e-05,4.28229e-05,5.31599e-05,-8.54883e-06,1.44826e-05
443,9.62387e-06,1.08247e-05,4.87331e-05,5.28374e-05,-8.29511e-06,1.68546e-05
444,5.38824e-06,1.06195e-05,4.68372e-05,5.11804e-05,-5.86636e-06,1.7769e-05
445,-5.33674e-06,1.15972e-05,3.95269e-05,5.13711e-05,-5.14391e-06,1.63239e-05
446,-1.35633e-05,1.32262e-05,3.30276e-05,5.46274e-05,-7.66788e-06,1.46397e-05
447,-1.01043e-05,1.3643e-05,3.48938e-05,5.84487e-05,-1.08369e-05,1.44426e-05
448,-1.49354e-06,1.12494e-05,4.28898e-05,6.03371e-05,-1.13385e-05,1.52822e-05
449,-9.30395e-08,7.96321e-06,4.77656e-05,5.92085e-05,-8.84997e-06,1.63224e-05
450,-7.51886e-06,7.70969e-06,4.53631e-05,5.43316e-05,-5.0016e-06,1.78936e-05
451,-2.29237e-05,1.07423e-05,3.6293e-05,5.08584e-05,-1.74394e-06,2.03718e-05
452,-3.53008e-05,1.34452e-05,2.88375e-05,5.32507e-05,-2.37599e-06,2.14834e-05
453,-2.65738e-05,1.42538e-05,3.28717e-05,5.6519e-05,-7.98874e-06,2.00451e-05
454,-1.00144e-05,1.42862e-05,4.00166e-05,5.6796e-05,-1.34506e-05,1.68323e-05
455,-5.33246e-06,1.27954e-05,3.80406e-05,5.52176e-05,-1.44691e-05,1.45148e-05
456,-3.01694e-06,1.02167e-05,3.33491e-05,5.32833e-05,-1.31125e-05,1.55547e-05
457,3.92028e-06,9.80195e-06,3.25505e-05,5.20212e-05,-1.19201e-05,1.74998e-05
458,8.89167e-06,1.34549e-05,3.2996e-05,5.0696e-05,-1.06938e-05,1.83568e-05
459,2.96872e-06,1.8603e-05,3.12273e-05,4.92784e-05,-8.99011e-06,1.7855e-05
460,-1.22522e-05,2.11136e-05,2.60676e-05,5.02866e-05,-6.75006e-06,1.54665e-05
461,-1.81783e-05,2.05781e-05,2.33109e-05,5.22051e-05,-3.39307e-06,1.28015e-05
462,-6.29873e-06,1.90316e-05,2.87681e-05,5.20695e-05,-1.20199e-06,1.31069e-05
463,7.54017e-06,1.78318e-05,3.67978e-05,5.07562e-05,-2.67318e-06,1.61591e-05
464,9.94104e-06,1.76242e-05,4.02504e-05,4.88512e-05,-6.57627e-06,1.95777e-05
465,1.55712e-06,1.88713e-05,3.90268e-05,4.58354e-05,-1.10416e-05,2.14087e-05
466,-1.10845e-05,2.02715e-05,3.41493e-05,4.34878e-05,-1.36645e-05,1.97389e-05
467,-1.62724e-05,1.94175e-05,2.97944e-05,4.43609e-05,-1.27043e-05,1.51862e-05
468,-6.02371e-06,1.55834e-05,3.36567e-05,4.75301e-05,-9.75051e-06,1.11852e-05
469,1.11899e-05,1.02774e-05,4.45404e-05,4.98752e-05,-7.64588e-06,1.08069e-05
470,1.8933e-05,6.59206e-06,5.1671e-05,4.96451e-05,-7.16346e-06,1.3522e-05
471,1.1503e-05,6.09941e-06,4.90614e-05,4.78938e-05,-7.60279e-06,1.61231e-05
472,-3.71876e-06,6.40554e-06,3.94604e-05,4.76017e-05,-7.96758e-06,1.65911e-05
473,-1.15749e-05,6.85252e-06,3.11089e-05,4.97296e-05,-7.47195e-06,1.55026e-05
474,-1.99755e-06,1.1297e-05,3.16228e-05,5.1433e-05,-6.8855e-06,1.26775e-05
475,1.57243e-05,1.96859e-05,3.94674e-05,5.16983e-05,-7.84254e-06,8.88386e-06
476,2.34701e-05,2.53698e-05,4.49612e-05,5.15342e-05,-9.23164e-06,7.35151e-06
477,1.747e-05,2.37159e-05,4.30015e-05,5.04835e-05,-9.16628e-06,8.09732e-06
478,1.75106e-06,1.60887e-05,3.5343e-05,5.0215e-05,-8.48168e-06,6.8364e-06
479,-1.0957e-05,7.83192e-06,2.86748e-05,5.30752e-05,-7.37033e-06,3.50072e-06
480,-3.52509e-06,4.67302e-06,3.11095e-05,5.6023e-05,-4.18186e-06,2.95183e-06
481,1.0886e-05,5.64334e-06,3.80143e-05,5.47683e-05,1.3955e-07,5.09091e-06
482,1.39322e-05,7.5123e-06,4.12816e-05,5.28879e-05,1.98075e-06,9.66898e-06
483,1.3544e-05,1.00757e-05,4.30412e-05,5.45902e-05,2.40164e-06,1.89601e-05
484,1.34076e-05,1.26611e-05,4.50232e-05,5.46231e-05,8.4655e-06,2.73961e-05
485,9.83392e-06,1.56283e-05,4.43543e-05,4.99938e-05,1.88785e-05,2.5123e-05
486,1.58561e-06,1.71592e-05,3.99167e-05,4.54075e-05,1.97457e-05,1.2216e-05
487,-1.24726e-05,1.39728e-05,3.31364e-05,4.61533e-05,5.6531e-06,7.37207e-07
488,-2.27772e-05,9.02001e-06,2.812e-05,5.13156e-05,-1.2969e-05,1.26851e-07
489,-1.92087e-05,8.62538e-06,2.99587e-05,5.46339e-05,-2.64935e-05,1.02261e-05
490,-8.99885e-06,1.20461e-05,3.71213e-05,5.43918e-05,-3.27776e-05,2.48925e-05
491,-3.09899e-06,1.32834e-05,4.26217e-05,5.30092e-05,-3.04418e-05,3.49719e-05
492,-7.18163e-06,1.04011e-05,4.12506e-05,5.12835e-05,-2.07782e-05,3.35813e-05
493,-2.06888e-05,6.79742e-06,3.44274e-05,5.11968e-05,-1.15106e-05,2.14289e-05
494,-3.03429e-05,6.67894e-06,2.99877e-05,5.39016e-05,-8.19248e-06,6.6224e-06
495,-2.41698e-05,1.0083e-05,3.3856e-05,5.55347e-05,-8.59989e-06,-1.76428e-06
496,-9.53835e-06,1.37197e-05,4.10088e-05,5.40454e-05,-8.42707e-06,-1.29269e-06
497,-9.11689e-07,1.52221e-05,4.3391e-05,5.0702e-05,-5.8946e-06,3.49536e-06
498,-3.88959e-06,1.55531e-05,4.01847e-05,4.70776e-05,-1.62855e-06,6.85443e-06
499,-1.61912e-05,1.53135e-05,3.33749e-05,4.53712e-05,2.40829e-06,6.19405e-06
500,-2.39506e-05,1.33552e-05,2.80458e-05,4.70611e-05,3.8331e-06,4.25948e-06
501,-1.54686e-05,1.0932e-05,3.03759e-05,5.14767e-05,1.94956e-06,6.43187e-06
502,-7.5013e-07,1.04629e-05,3.80677e-05,5.57846e-05,-1.99857e-06,1.25024e-05
503,5.79713e-06,1.06067e-05,4.42417e-05,5.52182e-05,-9.44556e-06,1.5974e-05
504,3.11691e-06,9.77736e-06,4.28083e-05,4.93416e-05,-2.26523e-05,1.48965e-05
505,-8.87449e-06,1.00986e-05,3.15239e-05,4.4576e-05,-3.36603e-05,1.27618e-05
506,-2.22201e-05,1.07414e-05,2.00883e-05,4.56839e-05,-3.31896e-05,1.03866e-05
507,-1.88569e-05,1.00914e-05,2.0671e-05,4.89493e-05,-2.42102e-05,9.19413e-06
508,-6.28142e-06,1.04885e-05,2.80868e-05,4.80595e-05,-1.58624e-05,1.06414e-05
509,-2.57109e-06,1.3701e-05,3.21219e-05,4.51586e-05,-1.23171e-05,1.20019e-05
510,-2.32044e-06,1.58796e-05,3.5423e-05,4.53374e-05,-9.77191e-06,1.32261e-05
511,9.93757e-07,1.22743e-05,3.86658e-05,4.86598e-05,-7.64338e-06,1.47208e-05
512,3.16985e-06,7.27557e-06,3.96813e-05,5.21179e-05,-6.60183e-06,1.5486e-05
513,-2.30951e-06,6.40115e-06,3.73415e-05,5.26406e-05,-5.70784e-06,1.61143e-05
514,-1.34465e-05,8.04148e-06,2.98066e-05,5.09616e-05,-5.99909e-06,1.74727e-05
515,-1.65013e-05,7.61129e-06,2.44741e-05,4.93903e-05,-7.47061e-06,1.88154e-05
516,-4.5213e-06,5.87096e-06,2.90314e-05,4.95241e-05,-8.75416e-06,1.79835e-05
517,1.06954e-05,6.38327e-06,3.72399e-05,5.04029e-05,-7.77647e-06,1.53132e-05
518,1.66718e-05,8.78268e-06,4.02116e-05,4.94749e-05,-4.91825e-06,1.3375e-05
519,1.06814e-05,1.06798e-05,3.46188e-05,4.7024e-05,-2.50569e-06,1.36309e-05
520,-3.49868e-06,1.03953e-05,2.35433e-05,4.61944e-05,-1.33104e-06,1.46391e-05
521,-1.27684e-05,9.26192e-06,1.77278e-05,4.83062e-05,-1.45311e-06,1.46218e-05
522,-7.69979e-06,8.64402e-06,2.46938e-05,5.16377e-05,-2.81695e-06,1.39801e-05
523,3.61233e-06,9.01348e-06,3.77811e-05,5.37798e-05,-4.07102e-06,1.38398e-05
524,7.63539e-06,1.07986e-05,4.47047e-05,5.22844e-05,-4.53448e-06,1.49274e-05
525,5.4607e-07,1.40966e-05,4.09251e-05,4.70692e-05,-5.9729e-06,1.64418e-05
526,-1.31343e-05,1.75825e-05,3.05034e-05,4.33989e-05,-9.54097e-06,1.73541e-05
527,-2.02593e-05,1.86095e-05,2.3009e-05,4.62206e-05,-1.25116e-05,1.78844e-05
528,-1.14264e-05,1.64618e-05,2.59577e-05,5.22098e-05,-1.22702e-05,1.69964e-05
529,1.98013e-06,1.49187e-05,3.6446e-05,5.6877e-05,-9.85837e-06,1.37121e-05
530,3.82543e-06,1.69901e-05,4.50817e-05,5.68901e-05,-6.97789e-06,8.91279e-06
531,-5.51231e-06,2.07293e-05,4.75254e-05,5.23212e-05,-5.76871e-06,5.78267e-06
532,-2.12567e-05,2.30147e-05,4.2833e-05,5.01949e-05,-9.78456e-06,6.61952e-06
533,-3.22469e-05,2.11196e-05,3.52091e-05,5.29031e-05,-1.83572e-05,1.02678e-05
534,-2.16702e-05,1.56479e-05,3.43869e-05,5.61464e-05,-2.24087e-05,1.74472e-05
535,-1.89841e-06,1.21143e-05,3.96774e-05,5.62054e-05,-1.25712e-05,2.61451e-05
536,5.61346e-06,1.29235e-05,4.51334e-05,5.44775e-05,4.42372e-06,2.94917e-05
537,3.77249e-06,1.26614e-05,5.01051e-05,5.37976e-05,1.3976e-05,2.79473e-05
538,6.23308e-07,9.31466e-06,5.06086e-05,5.28842e-05,9.53763e-06,2.65276e-05
539,-2.92792e-07,8.8376e-06,4.6585e-05,5.16265e-05,-9.65455e-06,2.59545e-05
540,-5.0366e-06,1.22666e-05,4.24388e-05,5.13137e-05,-3.3588e-05,2.49736e-05
541,-1.95548e-05,1.57306e-05,3.8769e-05,5.29095e-05,-4.3609e-05,2.26423e-05
542,-2.9301e-05,1.61535e-05,3.90754e-05,5.5195e-05,-3.33711e-05,1.98151e-05
543,-2.04448e-05,1.2833e-05,4.50912e-05,5.63549e-05,-1.67726e-05,1.93272e-05
544,-3.28446e-06,9.72514e-06,5.07287e-05,5.63684e-05,-8.50262e-06,2.0615e-05
545,6.07798e-06,9.08655e-06,5.26722e-05,5.52846e-05,-9.3323e-06,1.98507e-05
546,7.72711e-08,9.5902e-06,5.04457e-05,5.29271e-05,-1.24067e-05,1.60851e-05
547,-1.71208e-05,1.08126e-05,4.31893e-05,5.10482e-05,-1.36151e-05,1.17015e-05
548,-2.84077e-05,1.27806e-05,3.67968e-05,5.16289e-05,-1.31285e-05,8.85891e-06
549,-2.22768e-05,1.41653e-05,3.81932e-05,5.31546e-05,-1.23608e-05,8.00911e-06
550,-7.8024e-06,1.40462e-05,4.39936e-05,5.28229e-05,-1.18972e-05,8.50357e-06
551,6.3897e-07,1.38739e-05,4.71276e-05,5.0208e-05,-1.10471e-05,8.4289e-06
552,-6.91072e-07,1.56383e-05,4.54571e-05,4.83692e-05,-9.58801e-06,7.06565e-06
553,-1.03374e-05,1.65861e-05,3.83515e-05,4.98744e-05,-8.50473e-06,6.08315e-06
554,-1.88057e-05,1.21381e-05,3.02072e-05,5.30442e-05,-8.76149e-06,6.82178e-06
555,-1.30506e-05,4.31482e-06,2.96143e-05,5.46145e-05,-1.0284e-05,9.87523e-06
556,2.47627e-06,2.14863e-07,3.61704e-05,5.50074e-05,-1.175e-05,1.51512e-05
557,1.05828e-05,3.99388e-06,4.14167e-05,5.52479e-05,-1.14764e-05,1.97814e-05
558,4.83509e-06,1.18577e-05,4.06483e-05,5.31077e-05,-9.65165e-06,2.18114e-05
559,-1.16185e-05,1.6171e-05,3.44363e-05,5.04824e-05,-8.76506e-06,2.17758e-05
560,-2.43611e-05,1.47505e-05,2.90241e-05,5.22231e-05,-9.40453e-06,2.09797e-05
561,-1.5732e-05,1.18187e-05,3.05151e-05,5.54795e-05,-8.33053e-06,2.28406e-05
562,8.46317e-08,1.3596e-05,3.31236e-05,5.50776e-05,-6.26088e-06,2.48816e-05
563,5.25391e-06,2.06113e-05,3.24373e-05,5.28269e-05,-5.87135e-06,2.19161e-05
564,6.30864e-06,2.56004e-05,3.54271e-05,5.21112e-05,-7.00105e-06,1.57868e-05
565,5.32461e-06,2.49973e-05,4.18917e-05,5.13484e-05,-7.98666e-06,8.24213e-06
566,2.61804e-06,2.27375e-05,4.57613e-05,5.02488e-05,-7.14068e-06,5.20118e-07
567,-4.89655e-06,2.289e-05,4.50256e-05,4.90093e-05,-6.81107e-06,-1.51542e-06
568,-2.08094e-05,2.32642e-05,3.89932e-05,4.95349e-05,-7.52687e-06,4.54296e-06
569,-3.07027e-05,2.0325e-05,3.38591e-05,5.281e-05,-7.2772e-06,1.18569e-05
570,-2.22047e-05,1.81601e-05,3.78831e-05,5.62402e-05,-6.80329e-06,1.47736e-05
571,-7.91217e-06,2.0327e-05,4.58798e-05,5.78922e-05,-7.31829e-06,1.38928e-05
572,-2.71191e-06,2.24841e-05,4.85608e-05,5.6546e-05,-7.85418e-06,1.2461e-05
573,-9.04233e-06,2.10448e-05,4.42517e-05,5.39205e-05,-6.21376e-06,1.35789e-05
574,-2.07442e-05,1.75913e-05,3.61969e-05,5.33092e-05,-2.48591e-06,1.73069e-05
575,-2.36907e-05,1.57251e-05,3.12771e-05,5.6238e-05,2.58418e-07,2.10025e-05
576,-1.15036e-05,1.66544e-05,3.46868e-05,5.98639e-05,-1.12189e-06,2.27869e-05
577,4.26311e-06,1.80001e-05,4.24327e-05,6.04451e-05,-6.89296e-06,2.26591e-05
578,1.01634e-05,1.84089e-05,4.73882e-05,5.7124e-05,-1.21841e-05,2.05744e-05
579,5.92413e-06,1.86899e-05,4.72327e-05,5.2037e-05,-1.11856e-05,1.73788e-05
580,-4.43916e-06,1.84277e-05,4.16035e-05,4.92851e-05,-5.89715e-06,1.56613e-05
581,-1.31041e-05,1.68018e-05,3.57307e-05,5.18779e-05,-3.78446e-06,1.68995e-05
582,-1.10313e-05,1.42855e-05,3.82219e-05,5.66855e-05,-7.28931e-06,1.88328e-05
583,-2.30453e-06,1.2422e-05,4.66761e-05,5.88539e-05,-1.16643e-05,1.88294e-05
584,1.13577e-07,1.25531e-05,5.0279e-05,5.71551e-05,-1.26778e-05,1.83327e-05
585,-8.18507e-06,1.33538e-05,4.56198e-05,5.3157e-05,-1.08891e-05,1.97553e-05
586,-2.39196e-05,1.26392e-05,3.53481e-05,5.09572e-05,-8.98522e-06,2.0754e-05
587,-3.25524e-05,1.07332e-05,2.56501e-05,5.23791e-05,-7.71485e-06,1.75984e-05
588,-1.9382e-05,9.11075e-06,2.38653e-05,5.52744e-05,-7.20534e-06,1.10035e-05
589,-5.88509e-07,8.0931e-06,2.73536e-05,5.78149e-05,-7.83509e-06,6.59752e-06
590,5.18996e-06,9.89623e-06,3.08696e-05,5.84324e-05,-8.8063e-06,8.51376e-06
591,5.06028e-06,1.32516e-05,3.57052e-05,5.68483e-05,-8.94347e-06,1.23568e-05
592,5.43843e-06,1.47342e-05,4.16253e-05,5.44463e-05,-8.32087e-06,1.32456e-05
593,6.33591e-06,1.61213e-05,4.53001e-05,5.2809e-05,-8.20809e-06,1.27088e-05
594,3.08389e-06,1.83512e-05,4.18443e-05,5.1417e-05,-8.36196e-06,1.4272e-05
595,-7.96382e-06,2.01132e-05,3.10827e-05,5.14008e-05,-8.3894e-06,1.70866e-05
596,-1.49303e-05,2.14707e-05,2.33153e-05,5.42359e-05,-9.05325e-06,1.63947e-05
597,-7.64331e-06,2.19731e-05,2.6467e-05,5.63408e-05,-1.07065e-05,1.33668e-05
598,4.76553e-06,1.79086e-05,3.46688e-05,5.37616e-05,-1.25557e-05,1.20123e-05
599,9.76579e-06,1.10337e-05,3.8624e-05,4.66574e-05,-1.38546e-05,1.20311e-05
600,2.15311e-06,6.91671e-06,3.61009e-05,4.06028e-05,-1.41932e-05,1.06044e-05
601,-1.48804e-05,5.96363e-06,2.98506e-05,4.08721e-05,-1.30311e-05,7.18065e-06
602,-2.62153e-05,5.11919e-06,2.62042e-05,4.59986e-05,-9.90373e-06,5.30147e-06
603,-2.0009e-05,3.2463e-06,3.13438e-05,4.96511e-05,-6.42983e-06,7.32216e-06
604,-5.1248e-06,1.87254e-06,4.23271e-05,4.89631e-05,-5.673e-06,1.14529e-05
605,2.09561e-06,3.52549e-06,4.94875e-05,4.53308e-05,-7.43779e-06,1.4541e-05
606,-3.4358e-06,9.52177e-06,4.67836e-05,4.15355e-05,-8.63405e-06,1.41251e-05
607,-1.83367e-05,1.46554e-05,3.53534e-05,4.08224e-05,-8.28985e-06,1.05326e-05
608,-2.99972e-05,1.25659e-05,2.50387e-05,4.48887e-05,-8.30313e-06,7.84687e-06
609,-2.53665e-05,6.68944e-06,2.64422e-05,5.14265e-05,-8.99194e-06,7.85569e-06
610,-1.05827e-05,5.27641e-06,3.66293e-05,5.54658e-05,-8.30461e-06,8.51122e-06
611,-1.6341e-06,8.53171e-06,4.35465e-05,5.45218e-05,-6.04059e-06,9.19181e-06
612,-3.43973e-06,1.17509e-05,4.38337e-05,5.07171e-05,-4.91738e-06,1.01021e-05
613,-1.56943e-05,1.1824e-05,4.08884e-05,4.77619e-05,-5.38582e-06,1.03828e-05
614,-2.90645e-05,1.0239e-05,3.92834e-05,4.86866e-05,-5.70828e-06,1.00688e-05
615,-2.46865e-05,1.03531e-05,4.36784e-05,5.225e-05,-5.86117e-06,9.89144e-06
616,-9.66556e-06,1.30302e-05,4.77117e-05,5.4346e-05,-7.09243e-06,8.57122e-06
617,-3.72636e-06,1.46318e-05,4.61921e-05,5.44189e-05,-8.48905e-06,6.63932e-06
618,-5.61964e-06,1.19e-05,4.57208e-05,5.4211e-05,-9.40827e-06,6.93872e-06
619,-9.1653e-06,8.27586e-06,4.64635e-05,5.4894e-05,-1.16288e-05,7.11939e-06
620,-9.86286e-06,6.47214e-06,4.30256e-05,5.39714e-05,-1.5656e-05,6.47551e-06
621,-1.15483e-05,6.1888e-06,3.43824e-05,4.98604e-05,-1.97464e-05,6.26688e-06
622,-2.01118e-05,7.03783e-06,2.26743e-05,4.68586e-05,-1.94731e-05,5.72734e-06
623,-2.47142e-05,7.2284e-06,1.49492e-05,4.78838e-05,-1.42038e-05,6.93612e-06
624,-1.72767e-05,4.48419e-06,1.83568e-05,5.00487e-05,-8.11978e-06,1.35864e-05
625,-8.56227e-06,9.92324e-07,2.71187e-05,4.95181e-05,-2.07882e-06,2.33227e-05
626,-6.41267e-06,2.20991e-06,3.11274e-05,4.63541e-05,4.96146e-06,2.87643e-05
627,-1.0198e-05,8.56764e-06,2.88189e-05,4.38619e-05,8.83371e-06,2.69833e-05
628,-1.82059e-05,1.37712e-05,2.26589e-05,4.49431e-05,3.78396e-06,2.07787e-05
629,-2.12265e-05,1.48599e-05,1.71475e-05,4.83372e-05,-7.66302e-06,1.52046e-05
630,-1.23888e-05,1.48139e-05,1.80898e-05,5.00736e-05,-1.59051e-05,1.29262e-05
631,-3.7594e-09,1.56854e-05,2.53909e-05,4.86194e-05,-1.56798e-05,1.31506e-05
632,3.88209e-06,1.70459e-05,3.2279e-05,4.49478e-05,-1.09074e-05,1.41188e-05
633,-2.80808e-06,1.6909e-05,3.34082e-05,4.17527e-05,-7.55445e-06,1.44687e-05
634,-1.51937e-05,1.34406e-05,2.80728e-05,4.4122e-05,-6.93346e-06,1.32873e-05
635,-2.26565e-05,9.51069e-06,2.2951e-05,5.19865e-05,-6.44183e-06,1.22061e-05
636,-1.7507e-05,9.84995e-06,2.85365e-05,5.76747e-05,-4.0199e-06,1.29314e-05
637,-6.73391e-06,1.12037e-05,4.17935e-05,5.77402e-05,-2.96111e-06,1.46661e-05
638,-8.68069e-07,8.87907e-06,4.9101e-05,5.60231e-05,-8.86733e-06,1.68742e-05
639,-6.87247e-07,5.25901e-06,4.68087e-05,5.58057e-05,-1.77701e-05,1.86403e-05
640,-8.80789e-06,4.2526e-06,3.83223e-05,5.66928e-05,-1.94481e-05,1.87617e-05
641,-1.94849e-05,7.40013e-06,3.01955e-05,5.85864e-05,-1.37437e-05,1.81243e-05
642,-1.47088e-05,1.33705e-05,2.95522e-05,6.24297e-05,-9.13136e-06,1.93519e-05
643,-1.17704e-06,1.55848e-05,3.36985e-05,6.46757e-05,-8.81155e-06,2.23515e-05
644,5.02982e-06,1.24152e-05,3.64214e-05,6.32719e-05,-9.98845e-06,2.23408e-05
645,7.13285e-06,9.6721e-06,3.69292e-05,6.10685e-05,-9.55223e-06,1.94928e-05
646,9.60557e-06,7.61338e-06,3.79645e-05,5.82531e-05,-7.44139e-06,1.75568e-05
647,1.07176e-05,5.05089e-06,4.09509e-05,5.63182e-05,-5.67e-06,1.67323e-05
648,4.35485e-06,4.56346e-06,4.15239e-05,5.60706e-05,-4.6097e-06,1.6244e-05
649,-8.97527e-06,7.45578e-06,3.53515e-05,5.60526e-05,-1.31454e-06,1.63158e-05
650,-1.42527e-05,1.10449e-05,2.8292e-05,5.61804e-05,5.09542e-06,1.77074e-05
651,-3.50431e-06,1.22499e-05,2.95273e-05,5.696e-05,1.00086e-05,2.02411e-05
652,1.01292e-05,1.09298e-05,3.40447e-05,5.87494e-05,1.10654e-05,2.27048e-05
653,1.41511e-05,9.53307e-06,3.3417e-05,5.96417e-05,1.03221e-05,2.34236e-05
654,7.04036e-06,9.43227e-06,2.89988e-05,5.81501e-05,7.80371e-06,2.20929e-05
655,-6.68217e-06,8.9106e-06,2.43695e-05,5.65857e-05,1.75257e-06,1.79082e-05
656,-1.33632e-05,8.107e-06,2.38555e-05,5.71928e-05,-6.28062e-06,1.12231e-05
657,-3.29762e-06,8.91947e-06,3.03703e-05,5.82314e-05,-1.2463e-05,6.97522e-06
658,1.25733e-05,9.97352e-06,3.9321e-05,5.7263e-05,-1.38422e-05,9.88085e-06
659,1.65827e-05,9.35819e-06,4.33806e-05,5.31888e-05,-1.09252e-05,1.63324e-05
660,5.86354e-06,9.04543e-06,4.00642e-05,4.82909e-05,-6.90712e-06,1.78432e-05
661,-1.08623e-05,9.65073e-06,3.09881e-05,4.82557e-05,-5.14004e-06,1.28888e-05
662,-1.93294e-05,9.15137e-06,2.30163e-05,5.52964e-05,-6.65102e-06,8.74728e-06
663,-1.11037e-05,8.32179e-06,2.50467e-05,6.37176e-05,-9.10226e-06,1.01671e-05
664,3.48658e-06,8.02989e-06,3.60378e-05,6.70501e-05,-8.31419e-06,1.32012e-05
665,8.10231e-06,8.18768e-06,4.51791e-05,6.5211e-05,-2.9728e-06,1.35421e-05
666,3.36817e-07,1.04385e-05,4.72441e-05,6.10561e-05,3.03939e-06,1.18022e-05
667,-1.57868e-05,1.40243e-05,4.3099e-05,5.73378e-05,4.8194e-06,9.10942e-06
668,-2.82155e-05,1.57775e-05,3.69005e-05,5.60595e-05,1.65415e-06,6.87366e-06
669,-1.89701e-05,1.51554e-05,3.53303e-05,5.76239e-05,-4.90891e-06,9.49869e-06
670,-6.4791e-07,1.45825e-05,3.8846e-05,5.85158e-05,-1.46572e-05,1.54968e-05
671,5.97402e-06,1.47665e-05,4.60039e-05,5.485e-05,-2.48201e-05,1.77834e-05
672,6.75372e-06,1.54619e-05,5.43953e-05,5.18685e-05,-3.09639e-05,1.63384e-05
673,8.15002e-06,1.72807e-05,5.82205e-05,5.38617e-05,-3.23421e-05,1.44316e-05
674,7.05405e-06,1.97566e-05,5.57649e-05,5.58455e-05,-3.17153e-05,1.3884e-05
675,-1.90024e-06,2.05513e-05,4.69728e-05,5.46831e-05,-2.92263e-05,1.47278e-05
676,-1.76579e-05,1.76078e-05,3.29232e-05,5.36555e-05,-2.27257e-05,1.4258e-05
677,-2.48522e-05,1.32977e-05,2.25618e-05,5.45766e-05,-1.39848e-05,1.40686e-05
678,-1.44023e-05,1.09715e-05,2.44872e-05,5.68752e-05,-7.57711e-06,1.59235e-05
679,7.85051e-07,1.25617e-05,3.42721e-05,5.85176e-05,-5.13673e-06,1.68439e-05
680,6.77991e-06,1.67684e-05,4.27508e-05,5.58212e-05,-3.11394e-06,1.56232e-05
681,-4.49105e-07,1.95837e-05,4.27023e-05,5.01463e-05,2.43367e-06,1.4375e-05
682,-1.60052e-05,1.84224e-05,3.28576e-05,4.75612e-05,1.13746e-05,1.42757e-05
683,-2.5001e-05,1.42527e-05,2.42335e-05,5.02887e-05,1.60304e-05,1.44348e-05
684,-1.75033e-05,1.06852e-05,2.76605e-05,5.32839e-05,7.29176e-06,1.44352e-05
685,-2.11357e-06,1.05179e-05,3.78764e-05,5.2666e-05,-1.13083e-05,1.45618e-05
686,6.21666e-06,1.47961e-05,4.43752e-05,4.98951e-05,-2.71353e-05,1.53552e-05
687,2.29341e-06,2.20697e-05,4.58364e-05,4.68243e-05,-3.46971e-05,1.72498e-05
688,-1.16372e-05,2.66047e-05,4.2761e-05,4.42601e-05,-3.72031e-05,1.92575e-05
689,-2.39222e-05,2.47799e-05,3.73564e-05,4.36704e-05,-3.63329e-05,1.94484e-05
690,-1.92685e-05,2.07939e-05,3.67137e-05,4.51954e-05,-3.08235e-05,1.70649e-05
691,-2.65507e-06,1.74121e-05,4.20369e-05,4.66328e-05,-2.02026e-05,1.40432e-05
692,8.39563e-06,1.34988e-05,4.63106e-05,4.62002e-05,-5.31266e-06,1.30833e-05
693,8.48785e-06,1.05148e-05,4.47465e-05,4.44065e-05,9.05343e-06,1.41358e-05
694,-3.67175e-06,9.88969e-06,3.9042e-05,4.53501e-05,1.52805e-05,1.44292e-05
695,-2.03638e-05,9.7318e-06,3.49061e-05,5.10509e-05,8.67136e-06,1.19014e-05
696,-2.04948e-05,9.71183e-06,3.73354e-05,5.61325e-05,-1.14801e-05,6.61224e-06
697,-9.88027e-06,1.20261e-05,4.15969e-05,5.5477e-05,-3.15792e-05,2.71826e-06
698,-6.94119e-06,1.60867e-05,3.8481e-05,4.934e-05,-3.31522e-05,5.5424e-06
699,-5.54424e-06,1.63628e-05,3.44901e-05,4.5229e-05,-1.83799e-05,1.19499e-05
700,-1.67463e-06,1.15116e-05,3.88046e-05,4.82195e-05,-4.5434e-06,1.46187e-05
701,6.79954e-07,7.25136e-06,4.72629e-05,5.3002e-05,-3.18908e-06,1.23997e-05
702,-3.71753e-06,7.33069e-06,5.02878e-05,5.32562e-05,-9.36444e-06,1.06124e-05
703,-1.57532e-05,1.14549e-05,4.33438e-05,5.07315e-05,-1.38629e-05,1.25445e-05
704,-2.06964e-05,1.54535e-05,3.34608e-05,5.14132e-05,-1.38138e-05,1.77593e-05
705,-8.61427e-06,1.54283e-05,3.23615e-05,5.68473e-05,-1.24046e-05,2.44404e-05
706,7.83381e-06,1.19016e-05,3.94841e-05,6.27329e-05,-1.3902e-05,2.87978e-05
707,1.35085e-05,8.53835e-06,4.4818e-05,6.27148e-05,-1.74449e-05,2.67364e-05
708,5.52814e-06,8.34208e-06,4.33711e-05,5.56054e-05,-2.06974e-05,1.69538e-05
709,-8.1753e-06,9.85011e-06,3.62213e-05,4.76829e-05,-2.19517e-05,4.34105e-06
710,-1.22662e-05,1.07314e-05,2.91223e-05,4.54908e-05,-1.91455e-05,-3.83747e-06
711,-1.38722e-06,1.1332e-05,2.81716e-05,4.64459e-05,-1.20467e-05,-4.46023e-06
712,1.21663e-05,1.22577e-05,3.28955e-05,4.51861e-05,-3.4543e-06,-1.49459e-06
713,1.70031e-05,1.26999e-05,3.64561e-05,4.22252e-05,3.67781e-06,2.89847e-07
714,1.24461e-05,1.24807e-05,3.48928e-05,4.08179e-05,6.63492e-06,2.04975e-06
715,-1.0333e-07,1.22058e-05,3.04022e-05,4.2507e-05,4.77687e-06,5.84375e-06
716,-1.14488e-05,1.24886e-05,2.87396e-05,4.69696e-05,1.95431e-07,9.10216e-06
717,-8.71645e-06,1.42169e-05,3.54058e-05,5.16898e-05,-4.48735e-06,1.04454e-05
718,2.82116e-06,1.59728e-05,4.80069e-05,5.41827e-05,-6.82443e-06,1.11881e-05
719,7.8109e-06,1.60718e-05,5.60262e-05,5.35277e-05,-6.53026e-06,1.10096e-05
720,2.99729e-06,1.54809e-05,5.37792e-05,4.99316e-05,-6.5064e-06,1.17849e-05
721,-8.44406e-06,1.25223e-05,4.29382e-05,4.74492e-05,-7.77761e-06,1.36575e-05
722,-1.59488e-05,6.17126e-06,3.11707e-05,4.9024e-05,-8.73192e-06,1.24061e-05
723,-7.35531e-06,1.72393e-06,3.13537e-05,5.2569e-05,-8.12741e-06,1.13366e-05
724,4.01572e-06,2.05764e-06,4.17381e-05,5.47144e-05,-5.39759e-06,1.45286e-05
725,5.10086e-06,5.19034e-06,4.76093e-05,5.41484e-05,-4.58212e-06,1.67386e-05
726,3.96497e-06,7.82542e-06,4.79832e-05,5.2449e-05,-8.01863e-06,1.60607e-05
727,3.72085e-06,7.82359e-06,4.80137e-05,4.89174e-05,-9.71734e-06,1.69613e-05
728,3.55397e-06,8.29577e-06,4.74876e-05,4.44873e-05,-5.55468e-06,1.98618e-05
729,-1.81087e-06,1.12318e-05,4.46207e-05,4.32758e-05,8.20723e-08,2.21605e-05
730,-1.53876e-05,1.33871e-05,3.7862e-05,4.67436e-05,1.12144e-06,2.3069e-05
731,-2.21527e-05,1.19883e-05,3.26099e-05,5.28177e-05,-3.3723e-06,2.36893e-05
732,-1.28704e-05,8.53301e-06,3.56644e-05,5.70555e-05,-1.02028e-05,2.5635e-05
733,-1.11939e-06,7.62259e-06,4.18737e-05,5.63195e-05,-1.56054e-05,2.54243e-05
734,2.46855e-06,1.13202e-05,4.12142e-05,5.24808e-05,-1.75358e-05,1.87799e-05
735,-1.24558e-06,1.5835e-05,3.24547e-05,5.12402e-05,-1.67185e-05,8.05148e-06
736,-9.96288e-06,1.73065e-05,2.13041e-05,5.51178e-05,-1.51809e-05,3.62447e-07
737,-1.4852e-05,1.69479e-05,1.58693e-05,6.04473e-05,-1.35852e-05,-1.49153e-07
738,-7.92137e-06,1.76936e-05,2.0541e-05,6.17771e-05,-1.15102e-05,4.53321e-06
739,3.759e-06,1.97812e-05,2.97406e-05,5.86341e-05,-9.14658e-06,1.14265e-05
740,8.73141e-06,2.09261e-05,3.49623e-05,5.37022e-05,-7.40897e-06,1.73458e-05
741,5.28057e-06,2.04974e-05,3.3911e-05,4.9747e-05,-7.35299e-06,1.90025e-05
742,-3.32705e-06,1.97975e-05,2.86361e-05,4.94343e-05,-8.59076e-06,1.74348e-05
743,-8.15642e-06,2.01339e-05,2.60426e-05,5.29742e-05,-8.69859e-06,1.63145e-05
744,-9.32753e-07,2.06636e-05,3.29062e-05,5.67104e-05,-7.58589e-06,1.7712e-05
745,1.02432e-05,1.76622e-05,4.33355e-05,5.78517e-05,-8.23552e-06,2.12433e-05
746,1.17136e-05,1.18205e-05,4.62657e-05,5.76434e-05,-1.1068e-05,2.42254e-05
747,3.40979e-06,1.02237e-05,4.20055e-05,5.82026e-05,-1.33919e-05,2.43594e-05
748,-1.24344e-05,1.33143e-05,3.59527e-05,5.94526e-05,-1.45855e-05,2.11416e-05
749,-2.73991e-05,1.46017e-05,3.3068e-05,6.00886e-05,-1.45957e-05,1.57493e-05
750,-2.33329e-05,1.33176e-05,3.91763e-05,5.94691e-05,-1.31427e-05,9.15002e-06
751,-7.42041e-06,1.18234e-05,4.85076e-05,5.81448e-05,-1.24161e-05,4.46765e-06
752,1.03357e-06,1.19666e-05,5.04685e-05,5.77214e-05,-1.09852e-05,3.8307e-06
753,2.34391e-06,1.43986e-05,4.8528e-05,5.91537e-05,-9.60557e-06,6.3991e-06
754,7.05023e-07,1.69116e-05,4.7916e-05,6.00744e-05,-1.14745e-05,9.896e-06
755,-1.0585e-06,1.82496e-05,4.66778e-05,5.68597e-05,-1.20725e-05,1.12564e-05
756,-4.62598e-06,1.81264e-05,4.24687e-05,5.14955e-05,-9.10911e-06,1.17731e-05
757,-1.28894e-05,1.54768e-05,3.49505e-05,4.94439e-05,-7.9657e-06,1.24211e-05
758,-1.51085e-05,1.15089e-05,3.08126e-05,5.14147e-05,-1.03685e-05,1.35807e-05
759,-3.3613e-06,9.62238e-06,3.56228e-05,5.30983e-05,-1.1726e-05,1.52288e-05
760,1.00597e-05,9.7334e-06,4.316e-05,5.11826e-05,-9.51842e-06,1.51069e-05
761,1.2395e-05,9.89402e-06,4.58085e-05,4.69381e-05,-6.08276e-06,1.3236e-05
762,2.56499e-06,1.08621e-05,4.22066e-05,4.44706e-05,-4.65403e-06,1.27258e-05
763,-1.30698e-05,1.30312e-05,3.37337e-05,4.52284e-05,-5.70788e-06,1.47151e-05
764,-2.01618e-05,1.49737e-05,2.6801e-05,4.75007e-05,-7.27908e-06,1.64473e-05
765,-1.06663e-05,1.65592e-05,2.9372e-05,4.9919e-05,-7.75363e-06,1.66397e-05
766,3.90784e-06,1.83533e-05,3.83279e-05,5.22214e-05,-6.97171e-06,1.6826e-05
767,8.40293e-06,1.98875e-05,4.31647e-05,5.25251e-05,-5.44321e-06,1.75956e-05
768,1.01729e-06,2.1069e-05,3.96247e-05,4.83369e-05,-4.14751e-06,1.695e-05
769,-1.26472e-05,2.13507e-05,3.04782e-05,4.35631e-05,-3.32243e-06,1.39356e-05
770,-2.10363e-05,1.76895e-05,2.27344e-05,4.48551e-05,-1.86104e-06,1.04138e-05
771,-1.41574e-05,1.02359e-05,2.3675e-05,4.97678e-05,-5.42382e-07,9.44964e-06
772,-2.54857e-07,4.90024e-06,3.17402e-05,5.17163e-05,-1.9368e-06,1.23132e-05
773,4.3601e-06,4.46256e-06,3.98056e-05,4.97486e-05,-4.93907e-06,1.63641e-05
774,-2.38392e-06,6.39783e-06,4.2988e-05,4.69756e-05,-5.2313e-06,1.93359e-05
775,-1.57046e-05,8.30982e-06,3.8355e-05,4.81278e-05,-2.22348e-06,2.12755e-05
776,-2.45043e-05,9.7393e-06,3.10314e-05,5.06906e-05,1.73671e-07,2.09745e-05
777,-1.51825e-05,1.27402e-05,3.08421e-05,5.13159e-05,1.44692e-06,1.91834e-05
778,-1.95353e-06,1.61908e-05,3.57032e-05,5.32254e-05,2.65167e-06,1.81631e-05
779,-8.31786e-07,1.55066e-05,3.64178e-05,5.4675e-05,3.43895e-06,1.72302e-05
780,-2.30913e-06,1.37079e-05,3.30465e-05,5.45703e-05,3.98883e-06,1.62246e-05
781,-1.22597e-06,1.71921e-05,3.25146e-05,5.37517e-05,3.23417e-06,1.54215e-05
782,-2.09332e-06,2.42024e-05,3.6588e-05,5.09258e-05,1.53918e-06,1.47229e-05
783,-9.0989e-06,2.70339e-05,3.79442e-05,4.81806e-05,7.4559e-07,1.33804e-05
784,-1.97599e-05,2.47553e-05,3.204e-05,4.99598e-05,3.49122e-07,1.09675e-05
785,-2.1291e-05,2.219e-05,2.6921e-05,5.45571e-05,-2.29526e-06,1.04836e-05
786,-9.33684e-06,2.06073e-05,3.15163e-05,5.62619e-05,-6.71851e-06,1.29249e-05
787,3.37703e-06,1.97148e-05,4.15255e-05,5.33132e-05,-9.87945e-06,1.5177e-05
788,6.83761e-06,1.92821e-05,4.77971e-05,4.76692e-05,-1.11323e-05,1.48577e-05
789,-3.21942e-07,1.86043e-05,4.59703e-05,4.39842e-05,-1.18584e-05,1.23764e-05
790,-1.41948e-05,1.82568e-05,3.6348e-05,4.59313e-05,-1.27616e-05,9.39519e-06
791,-2.21473e-05,1.99257e-05,2.70411e-05,5.18299e-05,-1.32007e-05,7.60732e-06
792,-1.58872e-05,2.17886e-05,2.78501e-05,5.61589e-05,-1.21072e-05,8.1771e-06
793,-4.58126e-06,1.99976e-05,3.64505e-05,5.53406e-05,-9.42837e-06,9.38084e-06
794,-3.448e-07,1.60833e-05,4.31678e-05,5.03268e-05,-6.37453e-06,9.15414e-06
795,-5.70264e-06,1.41101e-05,4.30182e-05,4.58238e-05,-4.19999e-06,8.58932e-06
796,-1.90844e-05,1.33911e-05,3.57307e-05,4.56967e-05,-4.1274e-06,9.49093e-06
797,-3.00839e-05,1.22159e-05,2.80713e-05,4.85816e-05,-6.277e-06,1.04147e-05
798,-2.48616e-05,1.15459e-05,2.8665e-05,5.05597e-05,-7.7829e-06,9.6973e-06
799,-8.55878e-06,1.12725e-05,3.55384e-05,5.14738e-05,-6.60896e-06,9.0976e-06
800,9.96687e-07,1.07192e-05,4.1457e-05,5.16642e-05,-6.51387e-06,1.04235e-05
801,-3.89177e-06,1.18295e-05,4.32571e-05,4.89821e-05,-9.79762e-06,1.30425e-05
802,-2.21428e-05,1.42181e-05,3.80243e-05,4.53848e-05,-1.21708e-05,1.5798e-05
803,-3.795e-05,1.39232e-05,3.05371e-05,4.58304e-05,-1.107e-05,1.66108e-05
804,-2.9623e-05,1.11787e-05,3.16112e-05,4.8915e-05,-8.02635e-06,1.51599e-05
805,-1.06054e-05,7.63861e-06,3.81326e-05,4.84081e-05,-7.53831e-06,1.39806e-05
806,-4.335e-06,2.97443e-06,4.21821e-05,4.46426e-05,-1.23509e-05,1.33109e-05
807,-6.35367e-06,8.85794e-07,4.46537e-05,4.49703e-05,-1.61737e-05,1.30975e-05
808,-9.24414e-06,3.56687e-06,4.52392e-05,4.96749e-05,-1.55192e-05,1.31011e-05
809,-1.11268e-05,7.32252e-06,4.06213e-05,5.12432e-05,-1.46694e-05,1.37156e-05
810,-1.52961e-05,8.29087e-06,3.29743e-05,4.73048e-05,-1.40358e-05,1.41299e-05
811,-2.569e-05,6.40673e-06,2.58364e-05,4.45791e-05,-1.11362e-05,1.27745e-05
812,-3.06995e-05,4.30326e-06,2.32493e-05,4.83688e-05,-6.7302e-06,1.19594e-05
813,-2.0412e-05,3.33644e-06,2.87077e-05,5.35329e-05,-2.76874e-06,1.32063e-05
814,-6.05849e-06,4.9604e-06,3.59519e-05,5.31241e-05,-1.3358e-06,1.44975e-05
815,7.82321e-08,9.5827e-06,3.93382e-05,4.79065e-05,-2.60007e-06,1.36421e-05
816,-4.22296e-06,1.29229e-05,3.79741e-05,4.4499e-05,-4.78247e-06,1.22504e-05
817,-1.54337e-05,1.11826e-05,3.07607e-05,4.76811e-05,-6.49508e-06,1.42814e-05
818,-2.23294e-05,6.921e-06,2.20352e-05,5.46289e-05,-5.77289e-06,1.9556e-05
819,-1.67257e-05,4.58819e-06,2.00373e-05,5.76006e-05,-1.35249e-06,2.27834e-05
820,-4.66447e-06,5.06747e-06,2.54718e-05,5.40809e-05,4.71116e-06,2.16496e-05
821,1.71853e-06,6.10955e-06,3.30428e-05,4.87401e-05,6.8791e-06,1.92577e-05
822,-4.31691e-06,6.96622e-06,3.79431e-05,4.66121e-05,5.28138e-07,1.80884e-05
823,-2.18101e-05,8.58772e-06,3.51492e-05,4.90697e-05,-1.11965e-05,1.77558e-05
824,-3.6039e-05,1.10556e-05,2.74291e-05,5.35599e-05,-1.909e-05,1.8736e-05
825,-3.06019e-05,1.29878e-05,2.60083e-05,5.62288e-05,-1.92913e-05,2.03311e-05
826,-1.19821e-05,1.22839e-05,3.33248e-05,5.58041e-05,-1.65398e-05,1.80957e-05
827,2.86881e-07,1.08391e-05,4.07717e-05,5.32291e-05,-1.60549e-05,1.25296e-05
828,-9.74207e-07,1.14451e-05,4.26183e-05,4.98312e-05,-1.54751e-05,9.9397e-06
829,-1.36438e-05,1.17705e-05,3.74931e-05,4.80495e-05,-1.2589e-05,1.19439e-05
830,-2.46763e-05,9.55846e-06,2.98663e-05,5.0869e-05,-1.192e-05,1.52778e-05
831,-1.70409e-05,6.17067e-06,3.02393e-05,5.77732e-05,-1.55757e-05,1.46169e-05
832,-3.53297e-06,6.45415e-06,3.8162e-05,6.15046e-05,-1.96574e-05,9.39412e-06
833,-8.4466e-07,1.24156e-05,4.21897e-05,5.93575e-05,-1.99485e-05,7.31319e-06
834,-3.75232e-07,1.95598e-05,4.17091e-05,5.80822e-05,-1.62256e-05,1.15134e-05
835,2.62201e-06,2.4751e-05,4.06751e-05,5.88068e-05,-1.13813e-05,1.68128e-05
836,4.73258e-06,2.56652e-05,3.91097e-05,5.63946e-05,-8.48603e-06,2.06904e-05
837,9.45352e-07,2.25969e-05,3.66583e-05,5.0333e-05,-8.27123e-06,2.43051e-05
838,-1.00778e-05,1.89624e-05,3.11667e-05,4.70302e-05,-1.00512e-05,2.49604e-05
839,-1.62404e-05,1.49024e-05,2.68047e-05,4.92764e-05,-1.14069e-05,2.00471e-05
840,-9.07369e-06,9.72086e-06,3.00349e-05,5.25385e-05,-8.94397e-06,1.33493e-05
841,1.83079e-06,6.28679e-06,3.68916e-05,5.36811e-05,-4.64574e-06,1.08602e-05
842,6.01877e-06,7.49965e-06,4.12011e-05,5.23064e-05,-3.24319e-06,1.37656e-05
843,-7.70888e-07,1.08417e-05,4.15481e-05,4.8686e-05,-4.02687e-06,1.79948e-05
844,-1.67686e-05,1.18637e-05,3.84493e-05,4.51724e-05,-2.64976e-06,1.90178e-05
845,-2.75496e-05,1.04757e-05,3.65134e-05,4.54768e-05,2.03018e-06,1.77789e-05
846,-2.10149e-05,8.75277e-06,4.0892e-05,4.97734e-05,7.19648e-06,1.86927e-05
847,-5.05635e-06,7.6186e-06,4.80962e-05,5.38026e-05,9.78152e-06,2.25408e-05
848,4.03906e-06,6.35727e-06,5.18895e-05,5.42395e-05,9.60234e-06,2.63647e-05
849,2.6891e-08,3.57762e-06,5.07857e-05,5.1993e-05,7.11462e-06,2.73975e-05
850,-1.26811e-05,1.35198e-06,4.37906e-05,4.89727e-05,2.71955e-07,2.56517e-05
851,-1.97132e-05,2.61107e-06,3.53487e-05,4.7208e-05,-1.12575e-05,2.36293e-05
852,-1.02821e-05,5.68964e-06,3.46551e-05,4.74312e-05,-2.21796e-05,2.28238e-05
853,6.52742e-06,8.63679e-06,3.92713e-05,4.77555e-05,-2.80287e-05,2.17327e-05
854,1.54665e-05,1.09871e-05,4.11635e-05,4.74508e-05,-3.07143e-05,1.90879e-05
855,1.20949e-05,1.25133e-05,4.24655e-05,4.84435e-05,-3.17009e-05,1.48216e-05
856,-4.27785e-06,1.18284e-05,4.24937e-05,5.11309e-05,-2.97609e-05,8.60789e-06
857,-2.1659e-05,7.71748e-06,3.77597e-05,5.32107e-05,-2.51678e-05,3.18084e-06
858,-1.80384e-05,5.95972e-06,3.54775e-05,5.38666e-05,-1.84393e-05,3.04925e-06
859,-2.34598e-06,9.73875e-06,3.88657e-05,5.31518e-05,-1.17135e-05,7.26869e-06
860,3.69195e-06,1.52608e-05,4.27831e-05,5.09285e-05,-8.69052e-06,1.18391e-05
861,2.70792e-06,1.77034e-05,4.7586e-05,5.00028e-05,-7.30562e-06,1.53571e-05
862,2.04591e-06,1.54825e-05,5.31459e-05,5.12719e-05,-4.94415e-06,1.85487e-05
863,3.93151e-06,1.36133e-05,5.4504e-05,5.00872e-05,-3.16555e-06,2.18299e-05
864,2.30864e-06,1.51651e-05,4.8441e-05,4.56707e-05,-2.93308e-06,2.26105e-05
865,-8.54448e-06,1.68292e-05,3.70234e-05,4.4765e-05,-3.64467e-06,2.14642e-05
866,-1.36467e-05,1.55677e-05,2.88856e-05,4.96088e-05,-3.54825e-06,2.15902e-05
867,-1.82617e-06,1.37136e-05,3.11485e-05,5.47225e-05,-3.10378e-06,2.10336e-05
868,1.3366e-05,1.38701e-05,3.86971e-05,5.609e-05,-3.43382e-06,1.7438e-05
869,1.78672e-05,1.47584e-05,4.32073e-05,5.39906e-05,-4.16713e-06,1.39895e-05
870,1.03126e-05,1.47732e-05,4.21664e-05,5.14041e-05,-5.4188e-06,1.38157e-05
871,-3.89759e-06,1.3515e-05,3.5945e-05,5.25312e-05,-7.30151e-06,1.36586e-05
872,-1.25472e-05,1.32975e-05,2.99615e-05,5.75547e-05,-8.95379e-06,1.09582e-05
873,-5.55252e-06,1.56572e-05,3.05478e-05,6.1371e-05,-9.5017e-06,8.29653e-06
874,1.01325e-05,1.71538e-05,3.53022e-05,6.21543e-05,-9.204e-06,8.06314e-06
875,1.90914e-05,1.63057e-05,3.7947e-05,6.19979e-05,-9.46414e-06,9.14732e-06
876,1.45014e-05,1.70208e-05,3.58625e-05,6.03298e-05,-1.11688e-05,9.50955e-06
877,-4.86819e-07,2.14416e-05,2.84637e-05,5.74323e-05,-1.15021e-05,1.06866e-05
878,-1.18703e-05,2.58434e-05,2.13934e-05,5.66325e-05,-7.65427e-06,1.68363e-05
879,-6.40966e-06,2.49867e-05,2.37627e-05,5.80045e-05,-2.81838e-06,2.74831e-05
880,7.32962e-06,1.84211e-05,3.30675e-05,5.7848e-05,-1.5381e-06,3.4734e-05
881,1.34104e-05,1.2156e-05,3.79413e-05,5.47248e-05,-2.39385e-06,3.07855e-05
882,8.42797e-06,1.14869e-05,3.52222e-05,5.25463e-05,-1.60535e-06,1.91717e-05
883,-9.29927e-06,1.39468e-05,2.82687e-05,5.42246e-05,-7.53172e-07,1.04861e-05
884,-2.71918e-05,1.4602e-05,2.28295e-05,5.74033e-05,-2.01547e-06,6.03592e-06
885,-2.16909e-05,1.34806e-05,2.47551e-05,5.87511e-05,-3.64083e-06,1.68645e-06
886,-3.77713e-06,1.29063e-05,2.86474e-05,5.72533e-05,-5.85238e-06,-1.27192e-06
887,2.28135e-06,1.30838e-05,2.83267e-05,5.51773e-05,-8.3703e-06,-1.40947e-06
888,4.23896e-07,1.22696e-05,2.8096e-05,5.47377e-05,-8.36988e-06,7.81738e-07
889,-1.09373e-06,1.04062e-05,3.21166e-05,5.42008e-05,-6.13763e-06,4.64918e-06
890,-1.91123e-06,1.0362e-05,3.84477e-05,5.22137e-05,-4.07377e-06,7.84376e-06
891,-5.9801e-06,1.28611e-05,3.96619e-05,4.9764e-05,-3.15658e-06,8.93582e-06
892,-1.74917e-05,1.40616e-05,3.35153e-05,5.02491e-05,-3.82195e-06,9.05766e-06
893,-2.41517e-05,1.337e-05,2.91449e-05,5.33338e-05,-8.19945e-06,9.72316e-06
894,-1.38238e-05,1.33019e-05,3.34034e-05,5.49568e-05,-1.73609e-05,1.14708e-05
895,3.00314e-06,1.35422e-05,4.12766e-05,5.52201e-05,-2.71447e-05,1.34012e-05
896,1.08585e-05,1.34983e-05,4.60852e-05,5.51327e-05,-3.18038e-05,1.43126e-05
897,5.52376e-06,1.29094e-05,4.60812e-05,5.43576e-05,-2.94044e-05,1.35662e-05
898,-6.87091e-06,1.08578e-05,4.03482e-05,5.39843e-05,-2.27389e-05,1.16514e-05
899,-1.31737e-05,6.84131e-06,3.41255e-05,5.60119e-05,-1.62094e-05,1.02513e-05
900,-6.77796e-06,2.97593e-06,3.6901e-05,5.89238e-05,-1.26507e-05,1.04529e-05
901,3.9319e-06,3.07802e-06,4.75744e-05,5.95801e-05,-1.24359e-05,1.19724e-05
902,8.80515e-06,7.2632e-06,5.57095e-05,5.65329e-05,-1.37892e-05,1.28721e-05
903,5.39758e-06,1.18024e-05,5.53283e-05,5.18163e-05,-1.51941e-05,1.14276e-05
904,-5.27156e-06,1.44747e-05,4.83587e-05,4.92646e-05,-1.59789e-05,8.80307e-06
905,-1.40029e-05,1.55217e-05,4.2817e-05,4.9998e-05,-1.46081e-05,7.88415e-06
906,-9.09911e-06,1.5916e-05,4.65847e-05,5.20418e-05,-1.03951e-05,8.35434e-06
907,4.0983e-06,1.65565e-05,5.55776e-05,5.44019e-05,-6.0284e-06,8.2319e-06
908,1.09361e-05,1.70286e-05,5.83943e-05,5.61527e-05,-4.28912e-06,8.53562e-06
909,6.36964e-06,1.62589e-05,5.14999e-05,5.56453e-05,-4.90185e-06,1.06207e-05
910,-1.02857e-05,1.44825e-05,3.76651e-05,5.47422e-05,-5.28732e-06,1.13598e-05
911,-2.76857e-05,1.46066e-05,2.56824e-05,5.50537e-05,-4.03004e-06,1.02424e-05
912,-2.28683e-05,1.70345e-05,2.66336e-05,5.50823e-05,-3.01985e-06,1.20749e-05
913,-5.27949e-06,1.54565e-05,3.39698e-05,5.38255e-05,-4.80756e-06,1.48833e-05
914,4.677e-07,1.09163e-05,3.59301e-05,5.2461e-05,-9.54002e-06,1.48486e-05
915,-1.84998e-06,1.02856e-05,3.65323e-05,5.42549e-05,-1.53229e-05,1.51157e-05
916,-3.34273e-06,1.34269e-05,3.9145e-05,5.90544e-05,-1.9163e-05,1.74895e-05
917,-2.9165e-06,1.63254e-05,3.93505e-05,5.95193e-05,-1.99399e-05,1.83492e-05
918,-5.47903e-06,1.70539e-05,3.33148e-05,5.21978e-05,-1.99551e-05,1.59147e-05
919,-1.66032e-05,1.92932e-05,2.27366e-05,4.53873e-05,-1.90768e-05,1.3691e-05
920,-2.32382e-05,2.3908e-05,1.79771e-05,4.62573e-05,-1.55841e-05,1.43581e-05
921,-1.30988e-05,2.46174e-05,2.63882e-05,5.09262e-05,-9.88896e-06,1.6171e-05
922,1.7765e-06,1.97254e-05,3.97492e-05,5.23197e-05,-6.17049e-06,1.62225e-05
923,8.13679e-06,1.64047e-05,4.5478e-05,4.88024e-05,-6.53698e-06,1.40575e-05
924,4.62714e-06,1.83569e-05,4.0197e-05,4.54966e-05,-6.19656e-06,1.16466e-05
925,-5.35945e-06,2.08008e-05,2.86853e-05,4.65477e-05,-3.82958e-06,1.04066e-05
926,-1.25402e-05,1.94674e-05,2.22501e-05,4.93913e-05,-2.7972e-06,9.98581e-06
927,-7.98846e-06,1.57351e-05,2.94656e-05,4.96274e-05,-4.25292e-06,1.11419e-05
928,3.43776e-06,1.32636e-05,4.34959e-05,4.75977e-05,-6.37056e-06,1.49455e-05
929,9.3682e-06,1.38575e-05,5.10783e-05,4.67847e-05,-7.16088e-06,1.87418e-05
930,4.56364e-06,1.53904e-05,4.7853e-05,4.79063e-05,-6.18908e-06,1.88731e-05
931,-8.36991e-06,1.52842e-05,3.7717e-05,5.02875e-05,-4.75405e-06,1.61275e-05
932,-1.79919e-05,1.41965e-05,2.97505e-05,5.43688e-05,-4.11073e-06,1.45969e-05
933,-1.20988e-05,1.30849e-05,3.14995e-05,5.8547e-05,-4.73554e-06,1.48947e-05
934,2.63093e-06,1.14227e-05,3.87759e-05,6.01631e-05,-6.71391e-06,1.36628e-05
935,9.9224e-06,9.74657e-06,4.27733e-05,5.8399e-05,-9.22091e-06,1.13614e-05
936,6.65499e-06,9.8569e-06,3.96059e-05,5.46456e-05,-9.18114e-06,1.08652e-05
937,-7.21668e-06,1.10585e-05,2.95139e-05,5.20649e-05,-7.16036e-06,1.04487e-05
938,-2.34805e-05,1.10778e-05,2.1487e-05,5.22003e-05,-1.05681e-05,8.39599e-06
939,-2.19651e-05,1.11806e-05,2.64668e-05,5.4428e-05,-1.98872e-05,7.35712e-06
940,-8.82676e-06,1.37143e-05,3.61222e-05,5.66547e-05,-2.52106e-05,9.3553e-06
941,-3.51375e-06,1.61354e-05,3.7996e-05,5.66639e-05,-1.75781e-05,1.29083e-05
942,-3.80568e-06,1.66038e-05,3.54853e-05,5.63428e-05,-1.84575e-07,1.78387e-05
943,-3.084e-06,1.77876e-05,3.32117e-05,5.65907e-05,1.52763e-05,2.29089e-05
944,-1.87433e-06,2.10384e-05,3.41048e-05,5.36334e-05,2.01099e-05,2.20498e-05
945,-6.70866e-06,2.43959e-05,3.48859e-05,4.80999e-05,9.42072e-06,1.42706e-05
946,-2.0481e-05,2.39051e-05,3.10422e-05,4.58831e-05,-1.2733e-05,7.6025e-06
947,-2.8673e-05,1.85892e-05,2.9424e-05,4.89894e-05,-2.88758e-05,7.81875e-06
948,-1.95585e-05,1.31309e-05,3.60915e-05,5.28769e-05,-2.52901e-05,1.27172e-05
949,-4.16768e-06,1.05465e-05,4.56318e-05,5.29176e-05,-7.79744e-06,1.83482e-05
950,4.11465e-06,1.0077e-05,4.94095e-05,4.79645e-05,5.70726e-06,2.17833e-05
951,1.23396e-06,8.3538e-06,4.5038e-05,4.24493e-05,5.22916e-06,2.17176e-05
952,-1.10495e-05,4.17613e-06,3.7275e-05,4.32764e-05,-1.37358e-06,1.7938e-05
953,-2.13451e-05,1.09674e-06,3.46987e-05,4.99053e-05,-1.83897e-07,1.23411e-05
954,-1.88784e-05,1.27156e-06,3.97411e-05,5.58147e-05,1.05505e-05,9.01313e-06
955,-8.64962e-06,2.51024e-06,4.51432e-05,5.76093e-05,1.6474e-05,9.01325e-06
956,-2.59667e-06,2.14993e-06,4.38878e-05,5.47016e-05,6.0698e-06,9.11963e-06
957,-5.42748e-06,1.3794e-06,3.70825e-05,4.7859e-05,-1.37254e-05,7.08588e-06
958,-1.7298e-05,2.85241e-06,2.81188e-05,4.27927e-05,-2.9091e-05,5.64911e-06
959,-2.91139e-05,6.3851e-06,2.12047e-05,4.38768e-05,-3.44319e-05,7.13206e-06
960,-2.51563e-05,9.52919e-06,2.2431e-05,4.7836e-05,-3.11022e-05,1.02465e-05
961,-8.36352e-06,1.15779e-05,2.96745e-05,4.93605e-05,-2.21881e-05,1.33577e-05
962,1.8728e-06,1.22791e-05,3.40755e-05,4.58672e-05,-1.20861e-05,1.57301e-05
963,-2.59362e-06,1.12878e-05,3.50945e-05,3.77213e-05,-6.15029e-06,1.63936e-05
964,-2.01499e-05,9.84758e-06,3.37151e-05,3.17517e-05,-6.88594e-06,1.43287e-05
965,-3.75713e-05,8.89852e-06,3.02183e-05,3.38929e-05,-1.02301e-05,1.1917e-05
966,-3.21682e-05,8.23856e-06,3.11542e-05,3.97292e-05,-1.12658e-05,1.3572e-05
967,-1.0768e-05,7.61063e-06,3.58657e-05,4.24796e-05,-1.16653e-05,1.83338e-05
968,2.97069e-06,5.50337e-06,3.71531e-05,4.0885e-05,-1.46817e-05,2.21903e-05
969,7.33561e-06,1.31379e-06,3.6728e-05,3.98936e-05,-1.85247e-05,2.45458e-05
970,9.10592e-06,-1.55441e-06,3.74691e-05,4.33287e-05,-1.84351e-05,2.62532e-05
971,1.0486e-05,5.47258e-07,3.71218e-05,4.60624e-05,-1.40455e-05,2.70825e-05
972,4.31105e-06,6.15724e-06,3.45707e-05,4.40921e-05,-9.06797e-06,2.59943e-05
973,-1.32136e-05,1.04899e-05,2.96812e-05,4.29108e-05,-6.13631e-06,2.19584e-05
974,-2.40793e-05,1.09048e-05,2.72391e-05,4.67817e-05,-4.64376e-06,1.58978e-05
975,-1.53352e-05,9.97479e-06,3.29046e-05,5.32513e-05,-3.31102e-06,1.06651e-05
976,1.17802e-08,1.07327e-05,4.18873e-05,5.68848e-05,-2.6361e-06,6.84715e-06
977,6.55491e-06,1.24829e-05,4.6462e-05,5.48633e-05,-3.61543e-06,2.32552e-06
978,7.67195e-07,1.33781e-05,4.44811e-05,4.98134e-05,-6.42319e-06,-1.43209e-06
979,-1.27595e-05,1.2927e-05,3.62611e-05,4.62573e-05,-8.28264e-06,-7.37868e-07
980,-2.10319e-05,1.21075e-05,2.79781e-05,4.68543e-05,-6.56917e-06,4.40159e-06
981,-1.44321e-05,1.11262e-05,2.94071e-05,5.02829e-05,-3.39037e-06,1.16966e-05
982,-3.14028e-07,9.70796e-06,3.92914e-05,5.36324e-05,-3.07496e-06,2.03775e-05
983,8.29615e-06,9.86225e-06,4.77086e-05,5.46032e-05,-5.76001e-06,2.99311e-05
984,5.397e-06,1.28125e-05,4.91962e-05,5.31798e-05,-9.05304e-06,3.63148e-05
985,-9.30169e-06,1.47395e-05,4.32994e-05,5.27179e-05,-1.21654e-05,3.53059e-05
986,-2.29868e-05,1.28916e-05,3.50834e-05,5.56665e-05,-1.48018e-05,2.87534e-05
987,-1.879e-05,9.39456e-06,3.50658e-05,5.97492e-05,-1.48317e-05,2.18907e-05
988,-2.1074e-06,6.45359e-06,4.53086e-05,6.17059e-05,-1.20495e-05,1.66865e-05
989,7.67497e-06,5.55917e-06,5.39016e-05,6.13557e-05,-9.84884e-06,1.25984e-05
990,4.36681e-06,9.4846e-06,5.22974e-05,6.08632e-05,-8.23754e-06,1.13791e-05
991,-7.33842e-06,1.57103e-05,4.13256e-05,6.18979e-05,-6.6329e-06,1.27446e-05
992,-1.50927e-05,1.84648e-05,2.88939e-05,6.41118e-05,-7.54585e-06,1.29286e-05
993,-4.16958e-06,1.78472e-05,2.62962e-05,6.63849e-05,-9.98746e-06,1.22646e-05
994,1.22335e-05,1.65296e-05,3.00868e-05,6.64354e-05,-1.01865e-05,1.23845e-05
995,1.60987e-05,1.5805e-05,3.14734e-05,6.41817e-05,-8.82498e-06,1.17413e-05
996,1.54519e-05,1.55034e-05,3.33572e-05,6.23182e-05,-8.96068e-06,1.21505e-05
997,1.6534e-05,1.50181e-05,3.60259e-05,5.96851e-05,-9.79027e-06,1.67995e-05
998,1.73655e-05,1.46698e-05,3.79941e-05,5.51032e-05,-9.78796e-06,2.13706e-05
999,1.08614e-05,1.44722e-05,3.85476e-05,5.0711e-05,-9.11399e-06,2.17531e-05
1000,-5.36417e-06,1.35193e-05,3.34365e-05,4.95461e-05,-7.36904e-06,1.86298e-05
1001,-1.39588e-05,1.23506e-05,2.7327e-05,5.28383e-05,-4.32474e-06,1.57566e-05
1002,-3.54371e-06,1.43561e-05,3.12087e-05,5.66344e-05,-3.05947e-06,1.57324e-05
1003,1.0915e-05,1.89897e-05,4.22457e-05,5.71825e-05,-6.5008e-06,1.8004e-05
1004,1.38556e-05,2.25351e-05,4.8683e-05,5.42879e-05,-1.09302e-05,2.22567e-05
1005,5.53988e-06,2.43108e-05,4.52573e-05,4.98333e-05,-9.43552e-06,2.6095e-05
1006,-5.87383e-06,2.49305e-05,3.53206e-05,4.82337e-05,8.81612e-07,2.5847e-05
1007,-8.27381e-06,2.48603e-05,2.93081e-05,5.20096e-05,1.5182e-05,2.2869e-05
1008,2.49458e-06,2.38439e-05,3.44194e-05,5.77119e-05,2.29121e-05,2.15014e-05
1009,1.50276e-05,2.12425e-05,4.50274e-05,6.01915e-05,1.69591e-05,2.09695e-05
1010,1.78073e-05,1.85326e-05,5.03132e-05,5.72072e-05,2.2591e-06,1.95035e-05
1011,1.00997e-05,1.90848e-05,4.76298e-05,5.19244e-05,-1.06716e-05,1.81791e-05
1012,-3.42721e-06,2.2822e-05,4.06442e-05,4.9972e-05,-1.91218e-05,1.81033e-05
1013,-1.07307e-05,2.40942e-05,3.63436e-05,5.18691e-05,-2.77706e-05,1.84594e-05
1014,-1.66008e-06,2.00809e-05,4.1687e-05,5.45844e-05,-3.68436e-05,1.83988e-05
1015,1.45056e-05,1.54368e-05,5.20187e-05,5.68842e-05,-4.18828e-05,1.77303e-05
1016,2.02554e-05,1.39187e-05,5.46616e-05,5.72457e-05,-4.0867e-05,1.56839e-05
1017,1.16363e-05,1.61874e-05,4.64732e-05,5.35876e-05,-3.519e-05,1.50531e-05
1018,-6.71317e-06,1.87992e-05,3.37875e-05,4.88377e-05,-2.89285e-05,1.78375e-05
1019,-2.17856e-05,1.67993e-05,2.41908e-05,5.00025e-05,-2.38484e-05,1.94733e-05
1020,-1.77728e-05,1.11637e-05,2.51646e-05,5.77015e-05,-1.8523e-05,1.80517e-05
1021,-6.66354e-06,7.42288e-06,3.39129e-05,6.30739e-05,-1.61896e-05,1.60397e-05
1022,-5.2384e-06,8.35367e-06,4.12082e-05,6.14252e-05,-1.82347e-05,1.29808e-05
1023,-7.05545e-06,1.06441e-05,4.4829e-05,5.89298e-05,-1.74959e-05,9.5862e-06
1024,-6.17235e-06,1.16458e-05,4.50745e-05,6.0073e-05,-1.1976e-05,8.74994e-06
1025,-4.86297e-06,1.22591e-05,4.6306e-05,6.00627e-05,-7.82294e-06,8.51301e-06
1026,-1.11166e-05,1.42819e-05,4.98216e-05,5.57055e-05,-8.28606e-06,7.12154e-06
1027,-2.70144e-05,1.60031e-05,4.89449e-05,5.27663e-05,-9.77972e-06,5.61209e-06
1028,-3.46794e-05,1.48233e-05,4.44548e-05,5.50671e-05,-8.07852e-06,4.83016e-06
1029,-2.19287e-05,1.28547e-05,4.49602e-05,5.86562e-05,-5.43027e-06,5.12357e-06
1030,-4.3422e-06,1.24357e-05,5.00168e-05,5.78281e-05,-6.27797e-06,6.86642e-06
1031,1.75435e-06,1.40892e-05,5.20886e-05,5.12267e-05,-9.53944e-06,1.01128e-05
1032,-5.79827e-06,1.64114e-05,4.79078e-05,4.34607e-05,-1.18282e-05,1.28718e-05
1033,-2.14865e-05,1.63997e-05,3.82678e-05,4.14915e-05,-1.21037e-05,1.26468e-05
1034,-3.05734e-05,1.33603e-05,2.98324e-05,4.59752e-05,-1.09733e-05,1.01234e-05
1035,-2.33681e-05,9.72031e-06,2.95346e-05,5.0234e-05,-8.94023e-06,8.24175e-06
1036,-1.0454e-05,8.92044e-06,3.44989e-05,5.12403e-05,-6.57991e-06,6.767e-06
1037,-6.18313e-06,1.07396e-05,3.84247e-05,5.01532e-05,-5.71221e-06,5.23371e-06
1038,-1.26264e-05,1.18143e-05,3.95897e-05,4.75503e-05,-6.91144e-06,4.75093e-06
1039,-2.53932e-05,1.0706e-05,3.50449e-05,4.59355e-05,-7.83319e-06,4.77881e-06
1040,-3.19412e-05,7.98001e-06,2.67069e-05,4.83421e-05,-7.05058e-06,4.56805e-06
1041,-2.09437e-05,7.67803e-06,2.62939e-05,5.28185e-05,-6.71902e-06,5.11507e-06
1042,-2.8784e-06,1.2185e-05,3.61283e-05,5.59412e-05,-7.26568e-06,7.50283e-06
1043,3.6193e-06,1.61036e-05,4.37418e-05,5.57387e-05,-6.27079e-06,1.19704e-05
1044,-5.05274e-06,1.58891e-05,4.13987e-05,5.22087e-05,-3.19353e-06,1.58553e-05
1045,-2.3436e-05,1.37425e-05,3.0784e-05,4.88942e-05,-1.49759e-06,1.67477e-05
1046,-3.60885e-05,1.29237e-05,1.97928e-05,4.91867e-05,-3.69577e-06,1.61126e-05
1047,-2.57823e-05,1.57581e-05,1.95005e-05,5.13095e-05,-4.77989e-06,1.50008e-05
1048,-6.87597e-06,1.87618e-05,2.74276e-05,5.0989e-05,-1.89374e-06,1.30532e-05
1049,-1.10656e-06,1.72541e-05,3.40364e-05,5.07339e-05,1.69291e-06,1.23693e-05
1050,-2.63148e-06,1.27307e-05,3.78737e-05,5.42895e-05,4.6656e-06,1.51124e-05
1051,-3.05423e-06,9.19355e-06,4.02223e-05,5.75319e-05,5.82075e-06,1.78258e-05
1052,-4.11408e-06,8.53878e-06,4.30059e-05,5.51388e-05,4.94551e-06,1.76249e-05
1053,-1.18234e-05,1.10229e-05,4.33046e-05,4.93094e-05,3.55678e-06,1.64303e-05
1054,-2.44725e-05,1.47743e-05,3.67972e-05,4.70691e-05,3.12658e-06,1.45722e-05
1055,-2.78433e-05,1.61846e-05,2.92125e-05,4.99592e-05,3.79275e-06,1.21795e-05
1056,-1.63238e-05,1.69651e-05,2.83764e-05,5.19487e-05,2.68507e-06,1.18723e-05
1057,-2.98068e-06,1.85421e-05,3.07491e-05,4.91789e-05,-2.00236e-06,1.44092e-05
1058,1.17228e-06,1.82991e-05,2.95905e-05,4.55278e-05,-1.00927e-05,1.67963e-05
1059,-5.57499e-06,1.62643e-05,2.35774e-05,4.55083e-05,-1.88525e-05,1.77078e-05
1060,-1.90032e-05,1.41703e-05,1.58583e-05,4.96704e-05,-2.31013e-05,1.82301e-05
1061,-2.51194e-05,1.18148e-05,1.39791e-05,5.44805e-05,-2.00386e-05,1.78584e-05
1062,-1.50405e-05,7.92022e-06,2.15017e-05,5.57128e-05,-1.24309e-05,1.69471e-05
1063,4.39007e-07,4.08487e-06,3.2249e-05,5.366e-05,-6.38805e-06,1.76264e-05
1064,4.97792e-06,3.8371e-06,3.98318e-05,5.12079e-05,-5.45742e-06,1.93428e-05
1065,-3.83874e-06,8.00689e-06,4.25182e-05,4.95609e-05,-7.68382e-06,1.90862e-05
1066,-1.73381e-05,1.38899e-05,3.71627e-05,5.05961e-05,-9.82081e-06,1.56287e-05
1067,-2.31392e-05,1.90268e-05,2.74534e-05,5.50236e-05,-1.09948e-05,1.10904e-05
1068,-1.52174e-05,2.18511e-05,2.79527e-05,5.88495e-05,-1.08996e-05,9.4462e-06
1069,-1.70724e-06,2.14505e-05,4.07836e-05,5.96682e-05,-9.17753e-06,1.14398e-05
1070,5.19583e-06,1.80461e-05,5.11612e-05,5.78283e-05,-7.20431e-06,1.43375e-05
1071,4.91448e-07,1.26037e-05,5.28555e-05,5.3571e-05,-7.14054e-06,1.60214e-05
1072,-1.59705e-05,7.56154e-06,4.77537e-05,4.88607e-05,-7.88803e-06,1.67776e-05
1073,-2.97179e-05,4.69475e-06,4.04365e-05,4.83478e-05,-5.69473e-06,1.67833e-05
1074,-1.97925e-05,4.31441e-06,4.12974e-05,5.21916e-05,-2.86748e-06,1.42762e-05
1075,2.0684e-06,6.22869e-06,4.77809e-05,5.50188e-05,-8.80855e-06,9.9574e-06
1076,1.08326e-05,8.2458e-06,4.79361e-05,5.50898e-05,-2.10637e-05,8.80392e-06
1077,9.07416e-06,9.00674e-06,4.57715e-05,5.55723e-05,-2.50638e-05,1.27388e-05
1078,7.52267e-06,8.40718e-06,4.56967e-05,5.66135e-05,-1.36427e-05,1.876e-05
1079,9.68005e-06,7.89415e-06,4.40986e-05,5.39514e-05,5.11869e-06,2.22238e-05
1080,9.18919e-06,1.03473e-05,4.00135e-05,4.79123e-05,1.67815e-05,2.10742e-05
1081,-2.43245e-06,1.58269e-05,3.42685e-05,4.47139e-05,1.35869e-05,1.71089e-05
1082,-1.23155e-05,2.16986e-05,3.24665e-05,4.72239e-05,-4.81781e-06,1.41661e-05
1083,-6.34552e-06,2.48897e-05,3.77891e-05,5.22019e-05,-2.78685e-05,1.40429e-05
1084,5.73143e-06,2.47158e-05,4.40351e-05,5.39754e-05,-3.83889e-05,1.48639e-05
1085,1.16834e-05,2.27331e-05,4.55587e-05,4.99059e-05,-2.96193e-05,1.6053e-05
1086,8.51355e-06,1.96016e-05,4.22432e-05,4.42043e-05,-1.21015e-05,1.69029e-05
1087,-1.80793e-06,1.59186e-05,3.60552e-05,4.32167e-05,-4.36096e-07,1.67953e-05
1088,-7.757e-06,1.38287e-05,3.28305e-05,4.67165e-05,6.40269e-07,1.65781e-05
1089,5.01486e-08,1.45146e-05,3.7307e-05,5.00071e-05,-4.35213e-06,1.77763e-05
1090,1.22476e-05,1.5942e-05,4.4674e-05,5.18404e-05,-9.40066e-06,1.9554e-05
1091,1.42273e-05,1.50571e-05,4.59354e-05,5.13833e-05,-1.25299e-05,1.96705e-05
1092,4.75347e-06,1.20316e-05,3.98822e-05,4.80503e-05,-1.4351e-05,1.73426e-05
1093,-1.04924e-05,9.26153e-06,3.26714e-05,4.60631e-05,-1.51468e-05,1.20399e-05
1094,-2.10091e-05,7.81622e-06,3.11508e-05,4.74941e-05,-1.38779e-05,5.3811e-06
1095,-1.6709e-05,6.87743e-06,3.84056e-05,4.8406e-05,-1.05042e-05,7.5968e-07
1096,-4.77043e-06,6.41435e-06,4.72905e-05,4.81493e-05,-8.33602e-06,-7.45969e-07
1097,3.7213e-07,7.6866e-06,4.93739e-05,4.89229e-05,-8.77255e-06,1.08401e-07
1098,-3.92517e-06,1.00786e-05,4.65351e-05,4.95894e-05,-7.60531e-06,3.5776e-06
1099,-1.76117e-05,1.33569e-05,3.88343e-05,5.03828e-05,-3.15949e-06,9.0505e-06
1100,-3.05515e-05,1.56084e-05,3.03681e-05,5.33843e-05,6.76159e-07,1.24284e-05
1101,-2.28633e-05,1.25016e-05,3.15833e-05,5.80499e-05,4.00348e-06,1.21319e-05
1102,-4.0255e-06,8.1658e-06,3.81534e-05,6.22528e-05,8.35088e-06,1.05228e-05
1103,3.48857e-06,9.96063e-06,4.10036e-05,6.51996e-05,1.0339e-05,9.58045e-06
1104,5.96573e-07,1.50054e-05,4.12716e-05,6.54559e-05,8.19645e-06,9.99826e-06
1105,-5.29566e-06,1.6054e-05,4.32766e-05,6.27804e-05,4.04812e-06,1.10264e-05
1106,-9.20245e-06,1.44183e-05,4.85658e-05,5.88514e-05,6.2252e-06,1.30851e-05
1107,-1.40697e-05,1.50401e-05,5.06331e-05,5.32233e-05,1.53347e-05,1.60119e-05
1108,-2.61068e-05,1.6254e-05,4.34145e-05,4.9021e-05,1.6425e-05,1.72547e-05
1109,-3.25561e-05,1.44468e-05,3.41683e-05,4.915e-05,1.9137e-06,1.61209e-05
1110,-2.26184e-05,1.00669e-05,3.26756e-05,5.24683e-05,-1.96152e-05,1.57759e-05
1111,-7.87112e-06,6.50117e-06,3.80877e-05,5.65568e-05,-3.66036e-05,1.61988e-05
1112,-1.94467e-06,7.4667e-06,4.29831e-05,5.80486e-05,-4.21754e-05,1.48697e-05
1113,-8.01659e-06,1.25021e-05,4.05188e-05,5.56072e-05,-3.57515e-05,1.20409e-05
1114,-2.04668e-05,1.7089e-05,2.97976e-05,5.20498e-05,-2.21747e-05,1.05954e-05
1115,-2.58828e-05,1.74523e-05,2.14299e-05,5.11442e-05,-8.7969e-06,1.20677e-05
1116,-1.69067e-05,1.44746e-05,2.65437e-05,5.1929e-05,-1.6628e-06,1.42533e-05
1117,-4.44588e-06,1.26445e-05,3.95708e-05,5.16898e-05,-9.2774e-07,1.49891e-05
1118,-1.26315e-07,1.31655e-05,4.66472e-05,4.95179e-05,-2.9081e-06,1.49852e-05
1119,-3.04967e-06,1.42016e-05,4.34194e-05,4.55163e-05,-4.29881e-06,1.5928e-05
1120,-1.16634e-05,1.4677e-05,3.34104e-05,4.23726e-05,-4.90448e-06,1.68578e-05
1121,-1.95443e-05,1.40365e-05,2.53325e-05,4.35232e-05,-6.3133e-06,1.62611e-05
1122,-1.46655e-05,1.26191e-05,2.76159e-05,4.68686e-05,-7.24303e-06,1.50338e-05
1123,-1.53749e-06,1.24575e-05,3.52582e-05,4.92051e-05,-4.59064e-06,1.51457e-05
1124,5.66913e-06,1.46263e-05,3.84486e-05,5.01369e-05,-4.98545e-07,1.74701e-05
1125,2.10322e-06,1.6912e-05,3.57028e-05,4.98805e-05,8.0059e-07,2.07844e-05
1126,-1.17789e-05,1.49367e-05,2.86156e-05,5.02181e-05,4.03618e-07,1.89921e-05
1127,-2.31589e-05,9.22916e-06,2.31632e-05,5.32124e-05,1.34397e-06,1.1077e-05
1128,-1.41538e-05,5.42206e-06,2.74386e-05,5.86636e-05,2.8147e-06,6.37269e-06
1129,2.30184e-06,5.14782e-06,3.42726e-05,6.18042e-05,2.46194e-06,8.16867e-06
1130,6.67204e-06,6.5441e-06,3.26807e-05,5.88744e-05,-3.31115e-07,1.26119e-05
1131,6.3309e-06,9.29009e-06,2.65222e-05,5.46667e-05,-4.86351e-06,1.58396e-05
1132,7.10781e-06,1.20324e-05,2.34098e-05,5.3185e-05,-9.49303e-06,1.43018e-05
1133,6.09081e-06,1.28613e-05,2.57311e-05,5.21546e-05,-1.25512e-05,1.08796e-05
1134,-5.55302e-07,1.36294e-05,2.91602e-05,4.9488e-05,-1.52138e-05,1.23313e-05
1135,-1.33561e-05,1.50546e-05,2.75138e-05,4.75993e-05,-1.75835e-05,1.7451e-05
1136,-1.96342e-05,1.62272e-05,2.38903e-05,4.97776e-05,-1.55359e-05,1.97562e-05
1137,-9.95998e-06,1.71871e-05,2.74634e-05,5.31791e-05,-8.2552e-06,1.89874e-05
1138,4.62667e-06,1.59007e-05,3.66458e-05,5.26736e-05,-1.43672e-06,1.74544e-05
1139,1.03578e-05,1.22434e-05,4.29286e-05,4.81656e-05,4.448e-07,1.45273e-05
1140,4.00608e-06,9.12393e-06,4.20848e-05,4.35382e-05,-2.1304e-06,9.86928e-06
1141,-9.38032e-06,7.30622e-06,3.38835e-05,4.23154e-05,-6.80772e-06,5.91668e-06
1142,-1.64632e-05,5.1771e-06,2.5079e-05,4.5353e-05,-1.09677e-05,5.71058e-06
1143,-8.54298e-06,2.49581e-06,2.50751e-05,5.02587e-05,-1.26558e-05,1.17721e-05
1144,5.64797e-06,1.98963e-06,3.18087e-05,5.30853e-05,-1.16904e-05,2.2795e-05
1145,1.07786e-05,5.0027e-06,3.54748e-05,5.11748e-05,-1.0741e-05,3.04614e-05
1146,1.81558e-06,8.34558e-06,3.20662e-05,4.64394e-05,-1.1705e-05,2.79791e-05
1147,-1.56274e-05,7.55694e-06,2.31927e-05,4.45377e-05,-1.31487e-05,1.77994e-05
1148,-2.64587e-05,3.1047e-06,1.83565e-05,4.76604e-05,-1.27753e-05,7.30127e-06
1149,-1.80292e-05,2.37756e-07,2.64052e-05,5.15914e-05,-1.08425e-05,1.20181e-06
1150,-8.69565e-07,5.23822e-07,3.97683e-05,5.24033e-05,-9.2666e-06,-8.05924e-07
1151,6.2582e-06,5.44378e-07,4.54464e-05,5.17212e-05,-9.75186e-06,-1.5755e-06
1152,8.09674e-07,-3.78239e-07,4.26762e-05,5.18426e-05,-1.21473e-05,-1.80383e-06
1153,-1.44367e-05,-8.3624e-07,3.77554e-05,5.17098e-05,-1.29302e-05,3.28348e-07
1154,-2.83568e-05,-8.37067e-07,3.44139e-05,5.16946e-05,-1.0406e-05,5.70856e-06
1155,-1.96959e-05,7.13498e-07,3.47735e-05,5.26527e-05,-6.85298e-06,1.10899e-05
1156,1.6854e-06,3.53493e-06,3.48081e-05,5.32234e-05,-4.29558e-06,1.17606e-05
1157,8.18362e-06,5.97801e-06,3.12305e-05,5.34802e-05,-4.95849e-06,9.13588e-06
1158,1.99167e-06,8.52104e-06,3.24758e-05,5.37261e-05,-8.53918e-06,7.81442e-06
1159,-3.04957e-06,1.06167e-05,3.85647e-05,5.26386e-05,-9.91802e-06,8.24736e-06
1160,-3.89105e-06,1.22114e-05,4.02261e-05,5.06383e-05,-8.04142e-06,1.04573e-05
1161,-7.63741e-06,1.44824e-05,3.43166e-05,4.91381e-05,-8.76814e-06,1.43644e-05
1162,-1.98474e-05,1.57845e-05,2.35575e-05,4.93909e-05,-1.23723e-05,1.64227e-05
1163,-2.81804e-05,1.41757e-05,1.74141e-05,5.1932e-05,-1.24226e-05,1.3289e-05
1164,-2.16445e-05,1.11669e-05,2.31497e-05,5.51363e-05,-8.90089e-06,8.44635e-06
1165,-1.05889e-05,8.94147e-06,3.45708e-05,5.63884e-05,-7.18808e-06,8.38444e-06
1166,-5.97865e-06,7.45217e-06,4.18883e-05,5.53475e-05,-9.394e-06,1.38571e-05
1167,-8.98555e-06,7.19657e-06,4.15901e-05,5.4248e-05,-1.31603e-05,2.00559e-05
1168,-1.71385e-05,9.7592e-06,3.56118e-05,5.5661e-05,-1.55582e-05,2.2145e-05
1169,-2.01165e-05,1.37583e-05,3.05255e-05,5.86953e-05,-1.51413e-05,2.00239e-05
1170,-1.03123e-05,1.52767e-05,3.34931e-05,5.94665e-05,-1.15491e-05,1.72619e-05
1171,2.96754e-06,1.39289e-05,4.3179e-05,5.77367e-05,-4.12476e-06,1.56012e-05
1172,7.47764e-06,1.31413e-05,4.99562e-05,5.50681e-05,6.40002e-06,1.45836e-05
1173,3.15302e-06,1.59888e-05,4.85264e-05,5.13278e-05,1.43063e-05,1.41708e-05
1174,-6.59103e-06,2.0459e-05,4.09609e-05,4.89424e-05,1.39008e-05,1.35145e-05
1175,-1.49312e-05,2.14768e-05,3.35235e-05,5.05619e-05,6.62702e-06,1.20672e-05
1176,-1.19509e-05,1.84334e-05,3.37024e-05,5.40767e-05,-2.71952e-06,1.09448e-05
1177,-1.70109e-07,1.45371e-05,4.01262e-05,5.70519e-05,-1.24887e-05,1.16707e-05
1178,9.60484e-06,1.2206e-05,4.24828e-05,5.74838e-05,-2.12876e-05,1.56379e-05
1179,1.00813e-05,1.06324e-05,3.88038e-05,5.44465e-05,-2.62266e-05,2.32614e-05
1180,-4.60665e-06,9.5701e-06,3.39442e-05,5.1433e-05,-2.85214e-05,2.96463e-05
1181,-2.32864e-05,1.17397e-05,3.32315e-05,5.20236e-05,-3.12127e-05,2.75483e-05
1182,-2.09681e-05,1.59655e-05,4.13892e-05,5.507e-05,-3.16659e-05,1.70185e-05
1183,-3.46915e-06,1.74999e-05,5.02951e-05,5.72086e-05,-2.69627e-05,6.19368e-06
1184,7.19536e-06,1.72733e-05,4.97413e-05,5.64104e-05,-1.95619e-05,3.68852e-06
1185,1.00533e-05,1.86753e-05,4.57467e-05,5.44589e-05,-1.41455e-05,9.55256e-06
1186,9.45335e-06,2.0158e-05,4.56177e-05,5.34864e-05,-1.33428e-05,1.56016e-05
1187,7.50854e-06,2.00511e-05,4.73314e-05,5.28656e-05,-1.5028e-05,1.62013e-05
1188,9.76101e-07,1.95931e-05,4.50777e-05,5.21795e-05,-1.73173e-05,1.25587e-05
1189,-1.31883e-05,1.8086e-05,3.68192e-05,5.32743e-05,-1.92221e-05,7.89996e-06
1190,-2.25376e-05,1.61365e-05,3.10919e-05,5.61876e-05,-1.87833e-05,5.62783e-06
1191,-1.48798e-05,1.60142e-05,3.45554e-05,5.72261e-05,-1.80952e-05,7.07639e-06
1192,-1.88722e-07,1.64231e-05,4.10621e-05,5.4462e-05,-1.97522e-05,9.22479e-06
1193,5.37226e-06,1.63283e-05,4.48347e-05,5.05447e-05,-1.96166e-05,9.82005e-06
1194,-1.88253e-06,1.775e-05,4.44955e-05,4.88015e-05,-1.28188e-05,9.63538e-06
1195,-1.61994e-05,2.04344e-05,3.98833e-05,4.98111e-05,-3.44504e-06,1.01301e-05
1196,-2.36536e-05,2.12839e-05,3.70757e-05,5.16118e-05,-1.12526e-06,1.18901e-05
1197,-1.42044e-05,2.01736e-05,4.22246e-05,5.12235e-05,-8.1302e-06,1.46681e-05
1198,3.04035e-06,1.91617e-05,5.00659e-05,4.87505e-05,-1.67469e-05,1.74759e-05
1199,1.20705e-05,1.90872e-05,5.14242e-05,4.62926e-05,-1.96383e-05,1.84609e-05
1200,8.44526e-06,1.90965e-05,4.59882e-05,4.46189e-05,-1.70883e-05,1.70119e-05
1201,-4.45481e-06,1.80382e-05,3.73201e-05,4.44419e-05,-1.47054e-05,1.45842e-05
1202,-1.55928e-05,1.60517e-05,3.06385e-05,4.73121e-05,-1.65513e-05,1.26417e-05
1203,-1.2574e-05,1.48438e-05,3.38322e-05,5.17544e-05,-2.06007e-05,1.28259e-05
1204,-1.61092e-06,1.51809e-05,4.50768e-05,5.49006e-05,-2.23198e-05,1.55327e-05
1205,1.94551e-06,1.55906e-05,5.25892e-05,5.56441e-05,-2.12787e-05,1.76401e-05
1206,-2.9687e-06,1.55114e-05,5.12802e-05,5.38726e-05,-1.96199e-05,1.63861e-05
1207,-1.41037e-05,1.61014e-05,4.19535e-05,5.18602e-05,-1.74489e-05,1.23521e-05
1208,-2.29739e-05,1.62843e-05,3.1419e-05,5.15278e-05,-1.21096e-05,1.0072e-05
1209,-1.23131e-05,1.48577e-05,3.02868e-05,5.27737e-05,-4.96625e-06,1.40867e-05
1210,5.12314e-06,1.46527e-05,3.48916e-05,5.56667e-05,-1.23527e-06,2.05227e-05
1211,8.66761e-06,1.6299e-05,3.53995e-05,5.89457e-05,3.01964e-07,2.44934e-05
1212,8.07995e-06,1.59808e-05,3.40108e-05,6.14522e-05,2.12625e-06,2.67841e-05
1213,1.15205e-05,1.43342e-05,3.41703e-05,6.09579e-05,3.59569e-06,2.57768e-05
1214,1.46002e-05,1.56956e-05,3.40182e-05,5.57656e-05,3.8094e-06,2.12603e-05
1215,9.78041e-06,2.00729e-05,3.07505e-05,5.05767e-05,3.90731e-07,1.65479e-05
1216,-4.67484e-06,2.31154e-05,2.26525e-05,4.95559e-05,-6.35349e-06,1.4616e-05
1217,-1.26162e-05,2.1492e-05,1.50476e-05,5.18133e-05,-1.19946e-05,1.60033e-05
1218,-3.19219e-06,1.73399e-05,1.49799e-05,5.45476e-05,-1.19483e-05,1.66851e-05
1219,9.90472e-06,1.47224e-05,2.05802e-05,5.46456e-05,-7.42571e-06,1.34401e-05
1220,1.28711e-05,1.49973e-05,2.72256e-05,5.20407e-05,-2.7991e-06,1.06933e-05
1221,5.1235e-06,1.72296e-05,3.16747e-05,4.91618e-05,2.72681e-07,1.25558e-05
1222,-9.52089e-06,1.85007e-05,3.01332e-05,4.85269e-05,2.24057e-06,1.6024e-05
1223,-1.86885e-05,1.72494e-05,2.58857e-05,5.14663e-05,4.12153e-06,1.85579e-05
1224,-1.15151e-05,1.45693e-05,2.60036e-05,5.62789e-05,4.95073e-06,1.98619e-05
1225,3.2739e-06,1.24598e-05,3.02468e-05,5.88762e-05,3.06466e-06,2.0014e-05
1226,9.00065e-06,1.16382e-05,3.38313e-05,5.56419e-05,-6.76521e-07,2.03704e-05
1227,1.15233e-06,1.12022e-05,3.35826e-05,4.79519e-05,-3.60959e-06,2.27826e-05
1228,-1.42349e-05,1.0201e-05,2.86237e-05,4.32156e-05,-4.12464e-06,2.64591e-05
1229,-2.33888e-05,8.44832e-06,2.35515e-05,4.7113e-05,-2.38709e-06,2.82559e-05
1230,-1.55541e-05,7.72807e-06,2.56477e-05,5.59602e-05,1.60808e-07,2.67592e-05
1231,-1.29571e-06,8.60362e-06,3.50538e-05,6.15712e-05,2.42024e-06,2.39086e-05
1232,3.9368e-06,9.81587e-06,4.33363e-05,5.99099e-05,3.84235e-06,2.10429e-05
1233,-1.41041e-06,1.04357e-05,4.60447e-05,5.36199e-05,4.91388e-06,1.62674e-05
1234,-1.72555e-05,1.08265e-05,4.50856e-05,4.8726e-05,5.58674e-06,8.86088e-06
1235,-3.23502e-05,1.20734e-05,4.34824e-05,4.8666e-05,6.20924e-06,1.53507e-06
1236,-2.52043e-05,1.49334e-05,4.65155e-05,5.03233e-05,6.58236e-06,-1.54477e-06
1237,-7.435e-06,1.77019e-05,5.04969e-05,5.05443e-05,5.91702e-07,1.34113e-06
1238,-3.77397e-06,1.67405e-05,4.70011e-05,5.06445e-05,-1.22166e-05,7.24033e-06
1239,-8.17725e-06,1.24182e-05,4.06868e-05,5.1816e-05,-2.09023e-05,1.23385e-05
1240,-8.49145e-06,1.03105e-05,4.07876e-05,5.38296e-05,-2.05705e-05,1.38736e-05
1241,-4.91877e-06,1.23363e-05,4.48456e-05,5.48251e-05,-1.57975e-05,1.33725e-05
1242,-6.69383e-06,1.37804e-05,4.38449e-05,5.38914e-05,-1.19484e-05,1.38535e-05
1243,-1.84265e-05,1.22949e-05,3.76744e-05,5.29071e-05,-1.36056e-05,1.48478e-05
1244,-2.46828e-05,9.18916e-06,3.47761e-05,5.33527e-05,-1.96861e-05,1.49053e-05
1245,-1.40197e-05,6.09651e-06,3.92158e-05,5.52075e-05,-2.32421e-05,1.41213e-05
1246,4.82989e-07,3.32127e-06,4.5631e-05,5.54704e-05,-1.78727e-05,1.39294e-05
1247,5.66389e-06,1.36619e-06,4.86497e-05,5.05739e-05,-5.87399e-06,1.50476e-05
1248,7.77528e-07,1.19323e-06,4.62517e-05,4.36817e-05,4.78233e-06,1.53988e-05
1249,-1.08628e-05,1.84434e-06,3.83651e-05,4.18479e-05,8.39703e-06,1.4069e-05
1250,-1.83237e-05,2.33997e-06,3.10622e-05,4.59912e-05,-1.23647e-06,1.31914e-05
1251,-1.22774e-05,2.58675e-06,3.39684e-05,5.1194e-05,-2.32732e-05,1.25375e-05
1252,-2.3252e-07,2.87609e-06,4.55514e-05,5.42491e-05,-4.14187e-05,1.11047e-05
1253,4.97747e-06,3.25116e-06,5.3252e-05,5.38568e-05,-3.89461e-05,1.02848e-05
1254,1.02116e-06,3.04929e-06,5.08721e-05,4.96628e-05,-1.91724e-05,1.18818e-05
1255,-9.78426e-06,1.66616e-06,4.26118e-05,4.51618e-05,-9.90949e-07,1.57986e-05
1256,-1.84766e-05,-9.55102e-07,3.74538e-05,4.48643e-05,4.59083e-06,2.01006e-05
1257,-1.2426e-05,-3.95057e-06,4.12563e-05,4.65832e-05,3.59847e-06,2.18763e-05
1258,3.55853e-06,-5.9235e-06,4.82346e-05,4.59493e-05,2.9874e-06,2.0531e-05
1259,1.24499e-05,-6.91911e-06,4.89902e-05,4.38229e-05,1.72659e-06,1.87455e-05
1260,8.24239e-06,-6.0163e-06,4.35581e-05,4.29623e-05,-4.22525e-07,1.69715e-05
1261,-6.92369e-06,-3.89347e-06,3.5426e-05,4.6114e-05,-1.60803e-06,1.36611e-05
1262,-2.04301e-05,-3.85271e-06,2.83969e-05,5.18392e-05,-3.00942e-06,1.10795e-05
1263,-1.44581e-05,-3.62652e-06,3.04387e-05,5.51738e-05,-6.6573e-06,1.026e-05
1264,-6.58995e-07,-8.83279e-07,3.8552e-05,5.46966e-05,-1.07187e-05,1.05069e-05
1265,2.83845e-06,1.64938e-06,4.10023e-05,5.25758e-05,-1.25037e-05,1.12039e-05
1266,3.29701e-06,3.29331e-06,3.8931e-05,5.14438e-05,-1.31483e-05,1.22115e-05
1267,6.55257e-06,5.17688e-06,3.66588e-05,5.18831e-05,-1.37035e-05,1.40893e-05
1268,8.65939e-06,7.26646e-06,3.58968e-05,5.14716e-05,-1.27653e-05,1.55246e-05
1269,2.55838e-06,8.64648e-06,3.56336e-05,4.79724e-05,-1.0878e-05,1.56914e-05
1270,-1.30378e-05,8.90658e-06,3.04374e-05,4.51222e-05,-1.11422e-05,1.44339e-05
1271,-2.24714e-05,9.31756e-06,2.35659e-05,4.74966e-05,-1.29035e-05,1.33082e-05
1272,-1.35888e-05,1.06401e-05,2.49626e-05,5.24221e-05,-1.2308e-05,1.44372e-05
1273,3.57655e-06,1.22649e-05,3.32615e-05,5.42161e-05,-1.00226e-05,1.59675e-05
1274,1.44564e-05,1.43262e-05,3.89241e-05,5.12334e-05,-9.38999e-06,1.44225e-05
1275,1.29715e-05,1.67162e-05,3.68616e-05,4.62188e-05,-1.14982e-05,1.10186e-05
1276,1.00666e-06,1.75001e-05,2.9687e-05,4.36486e-05,-1.41294e-05,9.51562e-06
1277,-7.97198e-06,1.6119e-05,2.62667e-05,4.52492e-05,-1.48108e-05,1.13288e-05
1278,-1.93691e-06,1.49121e-05,3.04226e-05,4.85072e-05,-1.36012e-05,1.48183e-05
1279,1.16599e-05,1.59564e-05,3.68728e-05,5.0636e-05,-1.18917e-05,1.72967e-05
1280,1.71691e-05,1.90102e-05,4.0073e-05,5.01632e-05,-1.1363e-05,1.69891e-05
1281,9.96226e-06,2.28459e-05,3.84464e-05,4.8036e-05,-1.25349e-05,1.46109e-05
1282,-6.31879e-06,2.56055e-05,3.17757e-05,4.74959e-05,-1.40716e-05,1.28012e-05
1283,-1.92764e-05,2.51007e-05,2.52033e-05,4.92353e-05,-1.39591e-05,1.41483e-05
1284,-1.49873e-05,2.19334e-05,2.6764e-05,5.01785e-05,-1.22347e-05,1.9139e-05
1285,1.45764e-07,1.8545e-05,3.40386e-05,4.84239e-05,-1.15482e-05,2.31345e-05
1286,8.86142e-06,1.62144e-05,3.84095e-05,4.59539e-05,-1.22419e-05,2.19265e-05
1287,5.44778e-06,1.55854e-05,3.78742e-05,4.44869e-05,-1.22832e-05,1.89853e-05
1288,-9.06439e-06,1.53999e-05,3.21509e-05,4.45413e-05,-1.24113e-05,1.89467e-05
1289,-2.2106e-05,1.4606e-05,2.3877e-05,4.79715e-05,-1.25871e-05,2.14639e-05
1290,-1.33724e-05,1.48668e-05,2.30238e-05,5.43844e-05,-8.42535e-06,2.37744e-05
1291,6.2896e-06,1.9154e-05,3.12423e-05,5.9281e-05,-1.8329e-06,2.21494e-05
1292,1.40105e-05,2.58786e-05,3.88513e-05,5.88388e-05,6.23744e-07,1.62883e-05
1293,1.30165e-05,2.76655e-05,4.29631e-05,5.5794e-05,2.26718e-07,1.25055e-05
1294,9.90182e-06,2.31652e-05,4.57228e-05,5.44782e-05,4.31598e-06,1.34411e-05
1295,5.65107e-06,1.82247e-05,4.70024e-05,5.32867e-05,1.33942e-05,1.48849e-05
1296,-2.38367e-06,1.70374e-05,4.41972e-05,5.01084e-05,1.35851e-05,1.53478e-05
1297,-1.58254e-05,1.82429e-05,3.6635e-05,4.92435e-05,-2.84115e-06,1.47864e-05
1298,-2.04979e-05,1.73613e-05,3.17853e-05,5.22645e-05,-2.48848e-05,1.17616e-05
1299,-6.86175e-06,1.29004e-05,3.4214e-05,5.47843e-05,-3.85824e-05,8.69183e-06
1300,1.05914e-05,8.40614e-06,3.88964e-05,5.5397e-05,-4.00156e-05,1.0593e-05
1301,1.7158e-05,8.39776e-06,4.18551e-05,5.4117e-05,-3.30527e-05,1.67233e-05
1302,1.08063e-05,1.20715e-05,4.13287e-05,5.03896e-05,-2.25601e-05,2.062e-05
1303,-3.71385e-06,1.5142e-05,3.54927e-05,4.70161e-05,-1.25349e-05,1.93478e-05
1304,-1.3153e-05,1.55686e-05,3.08932e-05,4.81041e-05,-6.06995e-06,1.57611e-05
1305,-7.71285e-06,1.59717e-05,3.55213e-05,5.2856e-05,-4.77026e-06,1.27724e-05
1306,5.39477e-06,1.85312e-05,4.46654e-05,5.62952e-05,-7.59642e-06,1.12089e-05
1307,1.22791e-05,2.048e-05,4.87975e-05,5.45597e-05,-1.15192e-05,1.18198e-05
1308,6.72467e-06,2.02244e-05,4.50377e-05,4.85722e-05,-1.35475e-05,1.49389e-05
1309,-9.0038e-06,1.92705e-05,3.56761e-05,4.36694e-05,-1.2615e-05,1.79599e-05
1310,-2.08061e-05,1.76336e-05,2.94387e-05,4.44452e-05,-9.8611e-06,1.61103e-05
1311,-1.57777e-05,1.49837e-05,3.32482e-05,4.89492e-05,-7.99702e-06,8.27414e-06
1312,-2.22931e-06,1.31098e-05,3.98464e-05,5.25464e-05,-7.66107e-06,7.68659e-07
1313,3.32925e-06,1.33439e-05,4.09029e-05,5.44931e-05,-7.21585e-06,1.08913e-06
1314,-3.8945e-06,1.52182e-05,3.75941e-05,5.55914e-05,-5.69867e-06,9.55551e-06
1315,-2.17687e-05,1.65495e-05,3.06657e-05,5.75696e-05,-2.16163e-06,2.05326e-05
1316,-3.75213e-05,1.57921e-05,2.46937e-05,6.09017e-05,1.99104e-06,2.70017e-05
1317,-3.2924e-05,1.40087e-05,2.73103e-05,6.18361e-05,2.62401e-06,2.39069e-05
1318,-2.06483e-05,1.35358e-05,3.45163e-05,5.84494e-05,-2.61715e-06,1.44452e-05
1319,-1.816e-05,1.54863e-05,3.95127e-05,5.35006e-05,-1.00637e-05,5.79939e-06
1320,-1.70981e-05,1.88089e-05,4.36812e-05,5.10438e-05,-1.28441e-05,1.816e-06
1321,-1.2959e-05,2.11796e-05,4.69025e-05,5.17615e-05,-9.1984e-06,2.92215e-06
1322,-7.8401e-06,2.23906e-05,4.78867e-05,5.16502e-05,-3.01766e-06,7.14991e-06
1323,-1.06355e-05,2.43901e-05,4.63529e-05,4.85941e-05,-1.24419e-07,1.20383e-05
1324,-2.65982e-05,2.63795e-05,3.9696e-05,4.87531e-05,-2.61769e-06,1.5472e-05
1325,-3.72268e-05,2.65576e-05,3.23453e-05,5.53746e-05,-7.74043e-06,1.66686e-05
1326,-2.87127e-05,2.44676e-05,3.28704e-05,6.25498e-05,-1.12742e-05,1.65582e-05
1327,-1.35178e-05,2.13713e-05,3.8527e-05,6.30665e-05,-1.12143e-05,1.6257e-05
1328,-4.32175e-06,2.07188e-05,3.99543e-05,5.60987e-05,-9.68607e-06,1.465e-05
1329,-4.98603e-06,2.3538e-05,3.3777e-05,4.92549e-05,-1.0072e-05,1.0774e-05
1330,-1.4721e-05,2.68628e-05,2.46604e-05,4.93867e-05,-1.29076e-05,6.14663e-06
1331,-2.00235e-05,2.75602e-05,2.22131e-05,5.47377e-05,-1.43817e-05,3.4296e-06
1332,-1.03438e-05,2.49346e-05,3.07885e-05,5.81218e-05,-1.0443e-05,3.99783e-06
1333,3.77706e-06,2.10823e-05,4.22486e-05,5.64272e-05,-2.11016e-06,6.14451e-06
1334,6.83607e-06,1.85503e-05,4.6887e-05,5.16951e-05,5.71998e-06,8.18548e-06
1335,-2.03539e-06,1.91523e-05,4.42877e-05,4.62414e-05,9.53425e-06,1.09166e-05
1336,-1.52839e-05,2.25243e-05,3.6621e-05,4.29464e-05,7.63069e-06,1.40034e-05
1337,-2.09511e-05,2.54936e-05,2.77097e-05,4.51002e-05,1.02839e-06,1.44756e-05
1338,-1.10842e-05,2.57202e-05,2.69826e-05,4.97138e-05,-6.24636e-06,1.2178e-05
1339,3.95039e-06,2.41839e-05,3.77332e-05,5.09516e-05,-1.16671e-05,1.15181e-05
1340,9.75229e-06,2.21619e-05,4.9739e-05,4.84869e-05,-1.39152e-05,1.39578e-05
1341,5.3141e-06,1.95009e-05,5.27891e-05,4.59308e-05,-1.25162e-05,1.52732e-05
1342,-8.80162e-06,1.60466e-05,4.69e-05,4.67642e-05,-9.74651e-06,1.20191e-05
1343,-2.10941e-05,1.16229e-05,4.03174e-05,5.14815e-05,-6.74059e-06,6.91633e-06
1344,-1.09155e-05,8.60438e-06,4.20872e-05,5.56334e-05,-5.64631e-06,2.71414e-06
1345,6.82666e-06,9.68123e-06,4.66435e-05,5.49616e-05,-8.43879e-06,1.22989e-06
1346,1.0313e-05,1.12387e-05,4.37082e-05,5.12392e-05,-1.211e-05,3.56886e-06
1347,9.10972e-06,9.57264e-06,3.83907e-05,5.03796e-05,-1.32493e-05,5.39634e-06
1348,1.06757e-05,7.37377e-06,3.64217e-05,5.30237e-05,-1.15135e-05,5.6742e-06
1349,1.28388e-05,7.86969e-06,3.53955e-05,5.40572e-05,-8.92894e-06,5.47005e-06
1350,8.44546e-06,1.00376e-05,2.94961e-05,5.2895e-05,-8.06176e-06,5.92495e-06
1351,-4.99568e-06,9.61185e-06,1.9475e-05,5.30552e-05,-8.56664e-06,7.44815e-06
1352,-1.13768e-05,6.53213e-06,1.48207e-05,5.53113e-05,-8.61937e-06,8.24153e-06
1353,-8.89997e-07,4.55601e-06,1.86763e-05,5.74488e-05,-8.44798e-06,8.5021e-06
1354,1.28679e-05,4.40551e-06,2.52676e-05,5.71391e-05,-8.39149e-06,9.43046e-06
1355,1.69298e-05,4.44634e-06,2.95337e-05,5.41985e-05,-7.93991e-06,1.14188e-05
1356,9.25161e-06,5.20028e-06,2.90427e-05,5.21962e-05,-6.49306e-06,1.32299e-05
1357,-6.39793e-06,8.50387e-06,2.39459e-05,5.46229e-05,-4.61764e-06,1.41147e-05
1358,-1.63211e-05,1.29512e-05,2.15527e-05,6.06415e-05,-3.52205e-06,1.49952e-05
1359,-9.49793e-06,1.43209e-05,2.90307e-05,6.54891e-05,-3.90989e-06,1.76312e-05
1360,4.6629e-06,1.15281e-05,4.09403e-05,6.51712e-05,-5.47008e-06,2.15161e-05
1361,8.80456e-06,9.05281e-06,4.6047e-05,5.96061e-05,-7.35166e-06,2.47673e-05
1362,-1.59926e-06,1.02914e-05,4.18413e-05,5.23425e-05,-8.82322e-06,2.59831e-05
1363,-1.9903e-05,1.36031e-05,3.24744e-05,4.84875e-05,-9.21697e-06,2.47854e-05
1364,-3.16961e-05,1.44185e-05,2.6173e-05,5.03678e-05,-8.77193e-06,2.23601e-05
1365,-2.47392e-05,1.26774e-05,3.04082e-05,5.36564e-05,-8.85291e-06,2.08853e-05
1366,-7.7315e-06,1.22616e-05,4.03094e-05,5.29528e-05,-8.14885e-06,2.1421e-05
1367,-2.50215e-08,1.21672e-05,4.47793e-05,4.96489e-05,-4.76782e-06,2.29155e-05
1368,-5.82836e-06,1.0481e-05,4.18416e-05,4.82431e-05,-1.42873e-06,2.3654e-05
1369,-2.09398e-05,1.09108e-05,3.52219e-05,5.05981e-05,-4.84101e-07,2.33758e-05
1370,-3.31907e-05,1.40764e-05,3.023e-05,5.51918e-05,-2.49729e-06,2.16671e-05
1371,-2.71666e-05,1.56266e-05,3.33287e-05,5.8198e-05,-6.52652e-06,1.95101e-05
1372,-1.4977e-05,1.29399e-05,4.20784e-05,5.66853e-05,-9.16866e-06,1.88312e-05
1373,-1.32653e-05,8.30651e-06,4.75298e-05,5.41548e-05,-9.57247e-06,1.70732e-05
1374,-1.47091e-05,6.32255e-06,4.64298e-05,5.56642e-05,-1.0094e-05,1.42866e-05
1375,-1.36845e-05,5.19058e-06,4.32568e-05,5.75772e-05,-1.09711e-05,1.26479e-05
1376,-1.14778e-05,1.61089e-06,4.44808e-05,5.47143e-05,-1.10835e-05,1.21317e-05
1377,-1.26667e-05,-1.9394e-06,4.69587e-05,5.07838e-05,-1.08346e-05,1.14984e-05
1378,-2.14109e-05,-2.74533e-06,4.36511e-05,5.29445e-05,-1.08348e-05,9.92669e-06
1379,-2.6901e-05,-1.2345e-06,3.86119e-05,5.96669e-05,-1.09398e-05,8.25475e-06
1380,-1.96586e-05,1.32708e-06,3.90791e-05,6.35447e-05,-1.00704e-05,7.56799e-06
1381,-8.63044e-06,2.62836e-06,4.38503e-05,6.12608e-05,-8.64099e-06,9.512e-06
1382,-4.94536e-06,1.90493e-06,4.8474e-05,5.57861e-05,-7.93839e-06,1.38677e-05
1383,-1.08484e-05,2.09091e-06,4.88147e-05,5.06368e-05,-7.98842e-06,1.75898e-05
1384,-2.16575e-05,5.14686e-06,4.21651e-05,4.74407e-05,-7.4981e-06,1.90469e-05
1385,-2.54971e-05,8.6825e-06,3.43361e-05,4.78709e-05,-6.84346e-06,1.96796e-05
1386,-1.595e-05,8.53153e-06,3.53527e-05,5.08899e-05,-7.66071e-06,2.08367e-05
1387,-2.89689e-06,5.61311e-06,4.42733e-05,5.39547e-05,-9.17734e-06,2.26535e-05
1388,1.84044e-06,5.78939e-06,4.95287e-05,5.47148e-05,-9.91288e-06,2.40743e-05
1389,-3.12585e-06,1.09658e-05,4.59424e-05,5.1984e-05,-9.6404e-06,2.25335e-05
1390,-1.46052e-05,1.64729e-05,3.7884e-05,4.85223e-05,-8.38993e-06,1.64831e-05
1391,-2.19054e-05,1.91511e-05,3.19172e-05,4.82629e-05,-5.99556e-06,8.63969e-06
1392,-1.49382e-05,2.07081e-05,3.35474e-05,5.06724e-05,-4.44669e-06,2.87979e-06
1393,-9.86704e-07,2.23011e-05,4.1491e-05,5.25781e-05,-6.07117e-06,1.46169e-06
1394,7.1804e-06,2.19894e-05,4.79568e-05,5.1614e-05,-1.01692e-05,5.75558e-06
1395,4.89128e-06,1.93331e-05,4.75005e-05,4.85029e-05,-1.35247e-05,1.50033e-05
1396,-1.00172e-05,1.60976e-05,4.04945e-05,4.64794e-05,-1.49891e-05,2.34975e-05
1397,-2.54365e-05,1.47723e-05,3.35975e-05,4.83128e-05,-1.80923e-05,2.53602e-05
1398,-1.91643e-05,1.66502e-05,3.2904e-05,5.52619e-05,-2.25132e-05,2.12737e-05
1399,-1.5046e-06,1.66656e-05,3.69508e-05,6.04455e-05,-2.1677e-05,1.3843e-05
1400,4.88881e-06,1.17364e-05,4.17819e-05,5.70245e-05,-1.56269e-05,8.35572e-06
1401,4.14382e-06,6.20901e-06,4.59654e-05,5.25882e-05,-1.18402e-05,1.00083e-05
1402,4.77867e-06,5.46936e-06,4.67958e-05,5.24201e-05,-1.35407e-05,1.54454e-05
1403,5.65055e-06,9.6275e-06,4.40386e-05,5.12373e-05,-1.6189e-05,1.80741e-05
1404,-5.02485e-07,1.38528e-05,3.89887e-05,4.71529e-05,-1.60416e-05,1.63297e-05
1405,-1.54269e-05,1.55374e-05,3.0331e-05,4.62552e-05,-1.46788e-05,1.39865e-05
1406,-2.37547e-05,1.59875e-05,2.29351e-05,5.11684e-05,-1.36923e-05,1.34047e-05
1407,-1.31902e-05,1.64453e-05,2.43805e-05,5.68882e-05,-1.34056e-05,1.38543e-05
1408,4.40511e-06,1.54725e-05,3.07028e-05,5.82716e-05,-1.39269e-05,1.36433e-05
1409,1.22294e-05,1.26824e-05,3.32992e-05,5.50698e-05,-1.41157e-05,1.2291e-05
1410,5.93821e-06,1.0845e-05,3.10628e-05,5.1754e-05,-1.31287e-05,1.15583e-05
1411,-8.99514e-06,1.1311e-05,2.51198e-05,5.19428e-05,-1.16825e-05,1.12849e-05
1412,-1.7485e-05,1.19686e-05,1.97098e-05,5.58258e-05,-9.70712e-06,1.06516e-05
1413,-9.81051e-06,1.00915e-05,2.25926e-05,5.98284e-05,-7.29395e-06,1.07618e-05
1414,3.67265e-06,5.86139e-06,3.28532e-05,6.00272e-05,-6.03528e-06,1.05061e-05
1415,7.47503e-06,2.60126e-06,4.03907e-05,5.5995e-05,-6.72479e-06,7.90155e-06
1416,-1.218e-06,3.00372e-06,3.87553e-05,5.12415e-05,-9.23688e-06,5.05705e-06
1417,-1.58161e-05,5.59043e-06,2.99835e-05,4.86265e-05,-1.23688e-05,4.90535e-06
1418,-2.36344e-05,7.89909e-06,2.3813e-05,4.90198e-05,-1.29255e-05,6.60697e-06
1419,-1.6303e-05,8.78998e-06,2.87075e-05,5.06036e-05,-9.79297e-06,7.4551e-06
1420,-2.8803e-06,7.69414e-06,3.95538e-05,4.96221e-05,-5.22061e-06,8.67043e-06
1421,2.20201e-06,7.90083e-06,4.56224e-05,4.52974e-05,-1.59082e-06,1.45117e-05
1422,-3.23191e-06,1.17187e-05,4.38866e-05,4.13263e-05,-9.04763e-07,2.24667e-05
1423,-1.59425e-05,1.52359e-05,3.59507e-05,4.13447e-05,-3.27063e-06,2.32346e-05
1424,-2.59679e-05,1.31381e-05,2.8238e-05,4.51141e-05,-5.52921e-06,1.56886e-05
1425,-1.76431e-05,8.07509e-06,2.98027e-05,5.01224e-05,-4.21926e-06,7.83195e-06
1426,-6.69782e-07,8.67304e-06,3.71794e-05,5.2116e-05,-1.14879e-06,4.8531e-06
1427,7.25267e-06,1.32101e-05,4.21962e-05,4.98514e-05,-3.4649e-08,7.27003e-06
1428,8.67264e-06,1.35078e-05,4.49988e-05,4.6471e-05,-1.22148e-06,1.3285e-05
1429,5.99049e-06,1.06052e-05,4.45072e-05,4.3491e-05,-4.37379e-06,1.97119e-05
1430,1.83926e-07,9.81933e-06,4.0236e-05,4.073e-05,-6.97369e-06,2.16998e-05
1431,-7.71464e-06,1.08272e-05,3.50612e-05,3.88045e-05,-6.22892e-06,1.83017e-05
1432,-1.90963e-05,1.15391e-05,2.90359e-05,3.97641e-05,-2.73791e-06,1.43069e-05
1433,-2.42148e-05,1.16813e-05,2.57418e-05,4.26528e-05,9.09387e-07,1.21028e-05
1434,-1.4186e-05,9.81771e-06,3.08471e-05,4.4315e-05,1.28903e-06,1.22533e-05
1435,1.12963e-06,8.20778e-06,3.88472e-05,4.52253e-05,-2.82744e-06,1.43892e-05
1436,9.1119e-06,1.04783e-05,4.37758e-05,4.60654e-05,-7.73034e-06,1.5949e-05
1437,4.18931e-06,1.34838e-05,4.52422e-05,4.57258e-05,-9.27612e-06,1.59354e-05
1438,-1.07138e-05,1.24204e-05,4.20578e-05,4.57416e-05,-5.76245e-06,1.48031e-05
1439,-2.019e-05,8.77095e-06,3.76472e-05,4.85451e-05,7.41985e-07,1.28682e-05
1440,-1.38951e-05,6.93619e-06,3.8235e-05,5.27717e-05,3.3971e-06,1.14157e-05
1441,-2.0219e-06,8.11233e-06,4.23181e-05,5.57564e-05,-2.93472e-06,1.24372e-05
1442,1.20612e-06,1.08894e-05,4.41235e-05,5.5487e-05,-1.55735e-05,1.55329e-05
1443,-5.33187e-06,1.25521e-05,4.35552e-05,5.20485e-05,-2.53353e-05,1.76271e-05
1444,-1.68203e-05,1.09232e-05,4.06329e-05,4.85645e-05,-2.50386e-05,1.7266e-05
1445,-2.40671e-05,6.71766e-06,3.64383e-05,4.77292e-05,-1.74095e-05,1.61683e-05
1446,-1.77044e-05,3.25398e-06,3.69558e-05,4.99972e-05,-1.14543e-05,1.56431e-05
1447,-4.27922e-06,3.02795e-06,4.26947e-05,5.48147e-05,-1.09925e-05,1.48116e-05
1448,1.64871e-06,5.05576e-06,4.6721e-05,5.88471e-05,-1.21827e-05,1.30263e-05
1449,-2.90891e-06,6.49396e-06,4.55104e-05,5.74263e-05,-1.04457e-05,1.11261e-05
1450,-1.58092e-05,6.13098e-06,3.70264e-05,5.3596e-05,-6.98001e-06,9.67514e-06
1451,-2.71189e-05,4.55253e-06,2.4628e-05,5.3352e-05,-4.87891e-06,8.40492e-06
1452,-1.877e-05,3.99273e-06,1.9533e-05,5.54478e-05,-4.363e-06,7.87461e-06
1453,-1.0748e-07,4.07324e-06,2.15254e-05,5.7598e-05,-3.78134e-06,9.51407e-06
1454,7.1698e-06,3.9881e-06,2.33144e-05,5.98344e-05,-3.05147e-06,1.17584e-05
1455,6.25861e-06,5.14254e-06,2.69631e-05,6.21188e-05,-3.15339e-06,1.25198e-05
1456,4.91666e-06,8.31891e-06,3.16606e-05,6.35894e-05,-3.98396e-06,1.38922e-05
1457,5.88663e-06,1.35235e-05,3.5623e-05,6.2819e-05,-5.88089e-06,1.68887e-05
1458,6.09986e-06,1.83512e-05,3.93178e-05,6.07672e-05,-7.32836e-06,1.89683e-05
1459,-1.36896e-06,1.9835e-05,3.77137e-05,6.04249e-05,-7.20324e-06,1.85098e-05
1460,-7.87556e-06,1.70425e-05,3.25672e-05,6.24841e-05,-7.02303e-06,1.78315e-05
1461,-1.72748e-06,1.31842e-05,3.24137e-05,6.59987e-05,-7.17402e-06,1.90543e-05
1462,9.52804e-06,1.22479e-05,3.70562e-05,6.78051e-05,-7.11224e-06,2.12228e-05
1463,1.33599e-05,1.33871e-05,4.08166e-05,6.37574e-05,-7.04893e-06,2.19456e-05
1464,5.35444e-06,1.36757e-05,4.04877e-05,5.67104e-05,-7.13455e-06,1.9221e-05
1465,-1.10109e-05,1.34096e-05,3.53263e-05,5.41117e-05,-7.38087e-06,1.47809e-05
1466,-2.14946e-05,1.38813e-05,3.11448e-05,5.60039e-05,-8.14334e-06,1.2547e-05
1467,-1.56876e-05,1.47182e-05,3.31148e-05,5.66834e-05,-1.04085e-05,1.42382e-05
1468,-3.20812e-06,1.46161e-05,3.63045e-05,5.50772e-05,-1.41816e-05,1.81527e-05
1469,1.44725e-06,1.39681e-05,3.52116e-05,5.16711e-05,-1.70846e-05,2.11087e-05
1470,-3.82893e-06,1.58655e-05,3.21254e-05,4.52239e-05,-1.66091e-05,2.14834e-05
1471,-1.50531e-05,1.96167e-05,2.78347e-05,3.9709e-05,-1.31498e-05,1.92796e-05
1472,-2.25935e-05,2.05579e-05,2.28096e-05,4.16914e-05,-9.49974e-06,1.60778e-05
1473,-1.63367e-05,1.90165e-05,2.28049e-05,4.87383e-05,-7.36461e-06,1.52379e-05
1474,-2.44606e-06,1.88508e-05,2.92037e-05,5.42169e-05,-6.46788e-06,1.75229e-05
1475,5.72649e-06,2.12004e-05,3.47149e-05,5.49874e-05,-5.96101e-06,1.97354e-05
1476,5.46868e-06,2.40311e-05,3.33018e-05,5.2172e-05,-5.38643e-06,1.92074e-05
1477,-3.47914e-06,2.32344e-05,2.67043e-05,5.12204e-05,-5.42265e-06,1.63131e-05
1478,-1.28592e-05,2.05012e-05,2.16826e-05,5.45005e-05,-6.36648e-06,1.31246e-05
1479,-6.28726e-06,2.26756e-05,2.50435e-05,5.75167e-05,-7.65202e-06,1.08389e-05
1480,6.57142e-06,2.8356e-05,3.16458e-05,5.66201e-05,-8.53672e-06,9.45294e-06
1481,1.0286e-05,3.0555e-05,3.33759e-05,5.36756e-05,-7.45996e-06,1.04726e-05
1482,1.25422e-05,2.83224e-05,3.45793e-05,5.32183e-05,-4.49383e-06,1.38945e-05
1483,1.67405e-05,2.45549e-05,3.84536e-05,5.50637e-05,-3.45953e-06,1.59364e-05
1484,1.81078e-05,2.19075e-05,4.27368e-05,5.32401e-05,-6.10392e-06,1.48552e-05
1485,1.14561e-05,2.16863e-05,4.16899e-05,4.59152e-05,-9.2029e-06,1.36e-05
1486,-4.76088e-06,2.14292e-05,3.21492e-05,3.93993e-05,-9.52637e-06,1.42427e-05
1487,-1.49599e-05,1.79596e-05,2.37097e-05,3.8517e-05,-7.41463e-06,1.44522e-05
1488,-6.98992e-06,1.32102e-05,2.5784e-05,4.09759e-05,-5.2487e-06,1.28787e-05
1489,7.02864e-06,1.11231e-05,3.44631e-05,4.24151e-05,-4.57883e-06,1.27793e-05
1490,1.21644e-05,1.25545e-05,4.08134e-05,3.99824e-05,-6.54314e-06,1.66085e-05
1491,3.50405e-06,1.67394e-05,3.9947e-05,3.65105e-05,-1.03607e-05,2.11441e-05
1492,-1.51507e-05,2.02068e-05,3.30648e-05,3.82742e-05,-1.35968e-05,2.2138e-05
1493,-2.79814e-05,1.91912e-05,2.86988e-05,4.54945e-05,-1.44955e-05,1.86298e-05
1494,-2.24136e-05,1.58041e-05,3.34243e-05,5.26036e-05,-1.31267e-05,1.2678e-05
1495,-8.0268e-06,1.54407e-05,4.23294e-05,5.71134e-05,-1.04339e-05,8.71677e-06
1496,-2.24035e-06,1.92869e-05,4.70697e-05,6.0059e-05,-7.07402e-06,9.13708e-06
1497,-8.94839e-06,2.33893e-05,4.50932e-05,6.07069e-05,-5.67496e-06,1.13183e-05
1498,-2.20113e-05,2.37783e-05,3.79623e-05,5.87075e-05,-9.51446e-06,1.15357e-05
1499,-2.92636e-05,2.00103e-05,3.19152e-05,5.65474e-05,-1.592e-05,8.25749e-06
1500,-2.05752e-05,1.48227e-05,3.50363e-05,5.59937e-05,-1.97898e-05,3.24597e-06
1501,-3.78318e-06,1.11958e-05,4.48538e-05,5.62751e-05,-2.24544e-05,1.07318e-06
1502,5.02162e-06,1.00225e-05,4.99077e-05,5.53987e-05,-2.61515e-05,4.66804e-06
1503,4.96641e-07,1.06363e-05,4.7468e-05,5.28379e-05,-2.84607e-05,1.11434e-05
1504,-1.7289e-05,9.97282e-06,3.99619e-05,5.03708e-05,-2.62824e-05,1.61637e-05
1505,-3.59265e-05,7.58322e-06,3.16361e-05,4.98432e-05,-2.12114e-05,1.82869e-05
1506,-3.42683e-05,7.46008e-06,3.41224e-05,5.05014e-05,-1.66528e-05,1.8468e-05
1507,-1.92196e-05,9.5599e-06,4.33842e-05,5.04028e-05,-1.34285e-05,1.91865e-05
1508,-1.14521e-05,1.045e-05,4.57302e-05,5.01719e-05,-1.17103e-05,2.1225e-05
1509,-1.12791e-05,8.33065e-06,4.45782e-05,5.0475e-05,-1.11258e-05,2.44563e-05
1510,-1.13775e-05,5.749e-06,4.53817e-05,5.22139e-05,-1.15868e-05,2.7946e-05
1511,-1.01662e-05,5.55805e-06,4.71202e-05,5.49927e-05,-1.15739e-05,2.84249e-05
1512,-1.51508e-05,6.14061e-06,4.41644e-05,5.69373e-05,-9.55933e-06,2.29957e-05
1513,-2.90852e-05,4.95157e-06,3.59009e-05,5.9383e-05,-7.64816e-06,1.33526e-05
1514,-3.58505e-05,4.24743e-06,3.33528e-05,6.30666e-05,-7.73394e-06,6.53435e-06
1515,-2.46071e-05,6.47946e-06,3.98543e-05,6.49125e-05,-9.33567e-06,7.3477e-06
1516,-7.72684e-06,8.88651e-06,4.62832e-05,6.1052e-05,-1.07054e-05,1.27508e-05
1517,8.8636e-07,9.47779e-06,4.67386e-05,5.30401e-05,-1.05414e-05,1.66704e-05
1518,-3.14557e-06,9.30707e-06,4.1864e-05,4.65469e-05,-9.35208e-06,1.64402e-05
1519,-1.68755e-05,8.68451e-06,3.35119e-05,4.60277e-05,-8.55656e-06,1.33868e-05
1520,-2.46512e-05,7.14399e-06,2.86797e-05,5.00001e-05,-8.10293e-06,1.04104e-05
1521,-1.43647e-05,5.3514e-06,3.43692e-05,5.21547e-05,-7.23249e-06,9.35535e-06
1522,2.87704e-06,4.46987e-06,4.47028e-05,4.97134e-05,-5.92321e-06,1.03808e-05
1523,1.04641e-05,5.72274e-06,4.79423e-05,4.49476e-05,-4.46136e-06,1.22134e-05
1524,6.73476e-06,9.28472e-06,4.197e-05,4.0921e-05,-4.2496e-06,1.24347e-05
1525,-4.01083e-06,1.42132e-05,3.2672e-05,3.97208e-05,-6.38059e-06,9.84563e-06
1526,-1.26781e-05,1.78841e-05,2.8403e-05,4.17239e-05,-9.10434e-06,6.70778e-06
1527,-8.58714e-06,1.76806e-05,3.38005e-05,4.52155e-05,-1.03312e-05,6.63209e-06
1528,3.15571e-06,1.49907e-05,4.38869e-05,4.95537e-05,-9.83682e-06,9.45547e-06
1529,9.91247e-06,1.46102e-05,5.12348e-05,5.25582e-05,-8.52164e-06,1.16809e-05
1530,9.55748e-06,1.84029e-05,5.25559e-05,5.17823e-05,-8.23063e-06,1.1301e-05
1531,1.2406e-06,2.20688e-05,4.45553e-05,5.05226e-05,-9.90794e-06,9.86552e-06
1532,-7.97909e-06,2.16839e-05,3.31867e-05,5.28222e-05,-1.10789e-05,8.90282e-06
1533,-2.57821e-07,2.01508e-05,3.29379e-05,5.86944e-05,-9.69412e-06,9.15379e-06
1534,1.61507e-05,1.92611e-05,4.13903e-05,6.33417e-05,-7.66725e-06,1.0784e-05
1535,2.10238e-05,1.66484e-05,4.59657e-05,6.28439e-05,-6.47411e-06,1.22808e-05
1536,1.73072e-05,1.45841e-05,4.61761e-05,6.09527e-05,-6.33574e-06,1.32939e-05
1537,1.1828e-05,1.52085e-05,4.62722e-05,6.08555e-05,-6.28734e-06,1.45024e-05
1538,7.22537e-06,1.73826e-05,4.63551e-05,5.86389e-05,-5.79241e-06,1.65814e-05
1539,1.21951e-06,1.9746e-05,4.25467e-05,5.20159e-05,-5.46926e-06,1.79596e-05
1540,-1.0506e-05,1.99335e-05,3.21481e-05,4.87651e-05,-5.12283e-06,1.69761e-05
1541,-1.61676e-05,1.77215e-05,2.38508e-05,5.24961e-05,-5.24321e-06,1.48652e-05
1542,-4.83416e-06,1.54778e-05,2.75636e-05,5.62038e-05,-6.10282e-06,1.28145e-05
1543,1.18002e-05,1.48276e-05,3.78991e-05,5.57242e-05,-7.6391e-06,1.16482e-05
1544,1.85373e-05,1.68568e-05,4.40199e-05,5.37094e-05,-8.72079e-06,1.33023e-05
1545,1.20285e-05,1.96011e-05,4.18493e-05,5.28063e-05,-7.77966e-06,1.74419e-05
1546,-1.57028e-06,1.82596e-05,3.25837e-05,5.12512e-05,-5.86736e-06,1.9306e-05
1547,-8.35685e-06,1.32503e-05,2.50227e-05,4.89193e-05,-5.61278e-06,1.77081e-05
1548,-8.40168e-07,9.93105e-06,3.00808e-05,4.78327e-05,-5.74535e-06,1.6849e-05
1549,1.1277e-05,1.05672e-05,4.45384e-05,4.75327e-05,-8.31452e-07,1.82752e-05
1550,1.50466e-05,1.36121e-05,5.3861e-05,4.6205e-05,8.79786e-06,1.98725e-05
1551,7.21875e-06,1.72433e-05,4.99633e-05,4.45435e-05,1.23582e-05,1.90508e-05
1552,-9.18155e-06,1.92851e-05,3.62463e-05,4.54279e-05,1.11981e-06,1.44302e-05
1553,-2.15544e-05,1.80352e-05,2.40084e-05,4.97203e-05,-1.68678e-05,9.30318e-06
1554,-1.68426e-05,1.50762e-05,2.43341e-05,5.43373e-05,-2.32255e-05,8.44772e-06
