Time_Index,DELTOID_Affected,DELTOID_NonAffected,BICEPS_Affected,BICEPS_NonAffected,FOREARM_Affected,FOREARM_NonAffected
1,4.9174e-06,1.92179e-05,4.88788e-05,5.46483e-05,-1.3978e-05,1.81454e-05
2,-6.7501e-06,1.89132e-05,4.6307e-05,4.99911e-05,-1.28251e-05,2.10226e-05
3,-2.27489e-05,2.09111e-05,3.70286e-05,4.88191e-05,-8.63559e-06,2.26391e-05
4,-2.38525e-05,1.98288e-05,3.26876e-05,5.29751e-05,-8.5407e-06,2.52357e-05
5,-2.55037e-06,1.45837e-05,3.88355e-05,5.45778e-05,-1.0893e-05,2.90167e-05
6,9.18985e-06,1.2097e-05,4.08482e-05,5.07806e-05,-1.0168e-05,2.69017e-05
7,3.61691e-06,1.5338e-05,3.99839e-05,4.78193e-05,-7.30112e-06,1.60197e-05
8,2.93838e-07,1.99833e-05,4.40994e-05,4.93025e-05,-5.97114e-06,6.05776e-06
9,5.0765e-07,2.34538e-05,4.73834e-05,5.21142e-05,-7.54988e-06,1.81505e-06
10,2.54376e-06,2.46342e-05,4.58355e-05,5.41616e-05,-1.32603e-05,4.7251e-06
11,-6.32508e-06,2.4997e-05,3.68617e-05,5.47552e-05,-2.09036e-05,9.26681e-06
12,-2.2286e-05,2.40677e-05,2.52903e-05,5.589e-05,-2.65828e-05,1.21151e-05
13,-2.27805e-05,2.22791e-05,2.43337e-05,5.77525e-05,-2.72603e-05,1.42482e-05
14,-6.67664e-06,1.88696e-05,3.50304e-05,5.69588e-05,-2.2832e-05,1.79783e-05
15,5.54084e-06,1.43185e-05,4.28787e-05,5.39822e-05,-1.87978e-05,1.98087e-05
16,6.76575e-06,1.32595e-05,4.20661e-05,4.89346e-05,-1.64192e-05,1.63419e-05
17,-2.50864e-06,1.53218e-05,3.34288e-05,4.48781e-05,-1.29776e-05,1.32186e-05
18,-1.50849e-05,1.68683e-05,2.2579e-05,4.65801e-05,-6.88485e-06,1.37552e-05
19,-1.59454e-05,1.7795e-05,2.18199e-05,5.24774e-05,-1.72595e-06,1.59632e-05
20,-3.67359e-06,1.96803e-05,3.35043e-05,5.52342e-05,3.43604e-07,1.68234e-05
21,7.14968e-06,2.20667e-05,4.46775e-05,5.38978e-05,6.82352e-07,1.75109e-05
22,4.79227e-06,2.27733e-05,4.73252e-05,5.13001e-05,2.29373e-06,1.87817e-05
23,-9.06846e-06,2.06659e-05,4.12209e-05,4.92291e-05,5.17147e-06,1.92143e-05
24,-2.47268e-05,1.7611e-05,3.10592e-05,4.92734e-05,5.37597e-06,1.86251e-05
25,-2.50482e-05,1.58251e-05,2.99289e-05,5.16632e-05,3.65761e-07,2.00372e-05
26,-7.82234e-06,1.59098e-05,4.01669e-05,5.57107e-05,-7.37088e-06,2.01654e-05
27,8.33708e-06,1.58931e-05,4.75187e-05,5.85782e-05,-1.04722e-05,2.03189e-05
28,1.01484e-05,1.4822e-05,4.63404e-05,5.73018e-05,-3.24148e-06,2.16821e-05
29,-1.0971e-07,1.49018e-05,4.25497e-05,5.19497e-05,7.63769e-06,2.14337e-05
30,-1.66857e-05,1.36927e-05,3.79309e-05,4.63715e-05,8.66283e-06,1.89993e-05
31,-1.83833e-05,1.06245e-05,3.96067e-05,4.51132e-05,6.33559e-07,1.54584e-05
32,-9.61621e-07,1.15743e-05,4.42822e-05,4.44379e-05,-8.39275e-06,1.46358e-05
33,5.04146e-06,1.37801e-05,4.13223e-05,4.1996e-05,-1.21609e-05,1.3905e-05
34,-7.80365e-07,1.31759e-05,3.67811e-05,4.31478e-05,-1.05435e-05,1.21042e-05
35,-2.0783e-06,1.14113e-05,3.99832e-05,4.8702e-05,-6.25666e-06,1.69531e-05
36,-9.35862e-07,8.54428e-06,4.54873e-05,5.21276e-05,-6.57627e-06,2.4995e-05
37,8.84217e-07,7.4439e-06,4.46553e-05,4.78467e-05,-1.31558e-05,2.81785e-05
38,-8.16308e-06,1.04708e-05,3.84436e-05,4.20371e-05,-1.82219e-05,2.32906e-05
39,-2.19597e-05,1.05941e-05,3.36095e-05,4.28772e-05,-1.85298e-05,1.52739e-05
40,-2.10256e-05,9.65845e-06,3.50817e-05,5.04341e-05,-1.41864e-05,9.54341e-06
41,-5.40439e-06,1.09357e-05,3.96033e-05,5.67101e-05,-9.34513e-06,6.17353e-06
42,7.79478e-06,1.26598e-05,3.7079e-05,5.56203e-05,-7.10767e-06,1.9376e-06
43,1.23932e-05,1.52766e-05,2.95994e-05,4.99525e-05,-8.39623e-06,-1.70271e-06
44,5.80358e-06,1.74916e-05,2.4089e-05,4.57257e-05,-8.37419e-06,-1.36672e-06
45,-6.01023e-06,1.79982e-05,2.29247e-05,4.78914e-05,-5.74781e-06,3.03001e-06
46,-7.14919e-06,1.65641e-05,2.76708e-05,5.31524e-05,-2.7074e-06,8.93897e-06
47,4.44347e-06,1.53054e-05,3.71644e-05,5.43066e-05,1.02645e-07,1.18334e-05
48,1.34193e-05,1.47631e-05,4.5441e-05,5.03942e-05,1.28584e-06,1.225e-05
49,8.63717e-06,1.44636e-05,4.88755e-05,4.57934e-05,-2.47016e-06,1.16894e-05
50,-7.32626e-06,1.40197e-05,4.58049e-05,4.40405e-05,-1.18721e-05,1.02655e-05
51,-2.37244e-05,1.28149e-05,3.683e-05,4.59788e-05,-1.8258e-05,7.62422e-06
52,-2.24791e-05,1.06387e-05,3.19684e-05,4.94897e-05,-1.25306e-05,5.7631e-06
53,-4.20769e-06,9.93978e-06,3.77152e-05,5.17937e-05,5.2824e-06,7.72782e-06
54,1.09911e-05,1.09341e-05,4.59965e-05,5.10021e-05,2.16634e-05,1.3098e-05
55,1.12496e-05,1.10142e-05,4.40734e-05,4.75467e-05,2.49326e-05,1.60235e-05
56,9.47884e-08,1.02004e-05,3.19403e-05,4.58053e-05,1.32045e-05,1.53522e-05
57,-1.72028e-05,9.44315e-06,2.20019e-05,4.69932e-05,-1.11259e-05,1.38436e-05
58,-1.85643e-05,8.1842e-06,2.63301e-05,4.70801e-05,-3.37568e-05,1.31015e-05
59,-1.67267e-06,1.03283e-05,3.9218e-05,4.80034e-05,-3.64661e-05,1.14368e-05
60,3.46262e-06,1.29325e-05,4.52698e-05,5.11119e-05,-2.0647e-05,7.47098e-06
61,5.53523e-07,1.3604e-05,4.31756e-05,5.45267e-05,-6.48235e-06,5.46684e-06
62,5.10999e-06,1.25312e-05,4.06905e-05,5.83663e-05,-2.44365e-06,9.32064e-06
63,8.31954e-06,9.32301e-06,4.18981e-05,5.85402e-05,-2.80532e-06,1.38537e-05
64,5.91426e-06,7.72523e-06,4.68793e-05,5.36279e-05,-5.00769e-06,1.76084e-05
65,-6.64226e-06,8.06157e-06,4.37754e-05,4.90127e-05,-6.97162e-06,2.16204e-05
66,-1.83832e-05,7.93939e-06,3.21791e-05,5.15114e-05,-8.0451e-06,2.49743e-05
67,-1.37908e-05,5.75453e-06,2.82981e-05,5.7523e-05,-7.41551e-06,2.3972e-05
68,1.18516e-06,5.084e-06,3.49821e-05,6.1115e-05,-6.68165e-06,1.98709e-05
69,7.24796e-06,5.16094e-06,4.24763e-05,5.98256e-05,-5.81321e-06,1.61115e-05
70,2.00825e-06,6.35202e-06,4.51234e-05,5.72589e-05,-7.64502e-06,1.29071e-05
71,-1.22308e-05,7.9994e-06,3.88536e-05,5.56799e-05,-1.09089e-05,1.19046e-05
72,-2.81585e-05,8.60439e-06,2.65778e-05,5.37849e-05,-1.16354e-05,1.39246e-05
73,-2.83926e-05,7.89415e-06,2.28009e-05,5.15491e-05,-9.86724e-06,1.64738e-05
74,-1.16191e-05,6.71992e-06,3.33289e-05,5.00928e-05,-8.76082e-06,1.70932e-05
75,3.63833e-06,5.2999e-06,4.56441e-05,5.05129e-05,-1.01764e-05,1.75936e-05
76,4.96741e-06,2.98282e-06,4.67695e-05,5.13947e-05,-1.13333e-05,1.97663e-05
77,-6.31908e-06,2.41925e-06,3.59565e-05,5.08865e-05,-1.18444e-05,2.27826e-05
78,-2.30052e-05,3.85031e-06,2.21514e-05,4.96677e-05,-1.03638e-05,2.0864e-05
79,-2.57825e-05,5.0116e-06,2.03935e-05,5.25569e-05,-5.6433e-06,1.5877e-05
80,-1.12144e-05,5.65397e-06,3.33454e-05,5.65958e-05,1.04779e-08,1.42152e-05
81,1.39721e-06,8.81497e-06,4.41505e-05,5.60041e-05,4.79162e-06,1.7347e-05
82,1.04582e-06,1.32652e-05,4.4935e-05,5.13138e-05,8.75248e-06,2.05467e-05
83,-8.86592e-06,1.41404e-05,4.23788e-05,4.8504e-05,8.70923e-06,2.11896e-05
84,-2.80648e-05,1.04213e-05,3.60175e-05,5.01494e-05,5.27776e-06,2.12437e-05
85,-3.355e-05,8.55524e-06,3.07884e-05,5.30203e-05,-8.01274e-07,2.16127e-05
86,-1.25161e-05,8.11018e-06,3.12707e-05,5.14373e-05,-4.87545e-06,2.00503e-05
87,3.2969e-06,5.32268e-06,2.9189e-05,4.75013e-05,-4.84321e-06,1.62593e-05
88,2.43489e-06,5.08303e-06,2.98835e-05,4.66845e-05,-7.44709e-06,1.59437e-05
89,-4.16922e-07,8.81815e-06,4.07531e-05,5.10467e-05,-1.44357e-05,1.91452e-05
90,-3.36529e-06,1.25412e-05,5.04572e-05,5.62864e-05,-1.95249e-05,2.05837e-05
91,-3.69325e-06,1.41271e-05,5.19773e-05,5.60244e-05,-2.17963e-05,2.07348e-05
92,-1.07816e-05,1.38754e-05,4.30098e-05,5.26906e-05,-2.47978e-05,1.96754e-05
93,-2.3631e-05,1.28392e-05,3.03372e-05,5.14245e-05,-2.88897e-05,1.66188e-05
94,-2.35725e-05,9.52907e-06,3.08385e-05,5.35315e-05,-3.09066e-05,1.2982e-05
95,-9.22568e-06,5.43361e-06,4.32923e-05,5.75268e-05,-2.98492e-05,1.05025e-05
96,1.25123e-06,5.57618e-06,5.28827e-05,6.044e-05,-2.43441e-05,9.31652e-06
97,1.61644e-07,9.61267e-06,5.25137e-05,6.01373e-05,-1.42463e-05,9.27019e-06
98,-1.12003e-05,1.33101e-05,4.1689e-05,5.88745e-05,-5.9707e-06,9.35536e-06
99,-2.33643e-05,1.47808e-05,2.8121e-05,5.96251e-05,-2.67653e-06,9.14338e-06
100,-2.21093e-05,1.49924e-05,2.43511e-05,6.04588e-05,-2.67576e-06,9.81581e-06
101,-8.85041e-06,1.4014e-05,3.14115e-05,5.78043e-05,-2.58389e-06,1.23897e-05
102,6.056e-07,1.21193e-05,3.9032e-05,5.3093e-05,-1.87317e-06,1.54889e-05
103,-1.76029e-06,1.21641e-05,4.01238e-05,4.91075e-05,-2.84827e-06,1.69473e-05
104,-1.20827e-05,1.5602e-05,3.33022e-05,4.70941e-05,-7.00551e-06,1.55793e-05
105,-2.37232e-05,1.80581e-05,2.31634e-05,4.82565e-05,-8.81357e-06,1.03965e-05
106,-2.35918e-05,1.65458e-05,2.13988e-05,5.24249e-05,-4.81767e-06,5.70127e-06
107,-1.13507e-05,1.31276e-05,3.14496e-05,5.26787e-05,-3.87841e-07,6.44608e-06
108,8.98188e-07,9.59177e-06,4.09069e-05,4.68889e-05,-7.24774e-07,1.25626e-05
109,3.26336e-06,6.06072e-06,4.02092e-05,4.31205e-05,-4.26083e-06,2.12288e-05
110,-4.19862e-06,4.47358e-06,3.197e-05,4.48113e-05,-7.00515e-06,2.78547e-05
111,-1.73438e-05,6.38943e-06,2.29214e-05,4.84386e-05,-8.18474e-06,2.48543e-05
112,-1.68881e-05,8.92873e-06,2.33854e-05,4.8618e-05,-7.23623e-06,1.08618e-05
113,3.66289e-06,1.11761e-05,3.39559e-05,4.66972e-05,-3.31817e-06,-1.89621e-06
114,1.71045e-05,1.30408e-05,3.68313e-05,4.6956e-05,-2.76162e-06,-6.07783e-06
115,1.65047e-05,1.35491e-05,3.04761e-05,4.94109e-05,-7.15851e-06,-6.05678e-06
116,1.36166e-05,1.25718e-05,2.95008e-05,5.33125e-05,-7.28222e-06,-2.54875e-06
117,1.2102e-05,1.19624e-05,3.32905e-05,5.66421e-05,5.42583e-07,3.28087e-06
118,1.31738e-05,1.4953e-05,3.49937e-05,5.37029e-05,4.60709e-06,8.45102e-06
119,5.96291e-06,1.88837e-05,3.0694e-05,4.72369e-05,-2.9928e-06,1.19982e-05
120,-5.73896e-06,1.90244e-05,2.28268e-05,4.57318e-05,-1.45512e-05,1.4306e-05
121,-3.61604e-06,1.8528e-05,2.26216e-05,4.77038e-05,-2.56374e-05,1.48953e-05
122,1.13385e-05,1.97094e-05,3.22698e-05,4.96634e-05,-3.47405e-05,1.41176e-05
123,1.9306e-05,1.91876e-05,3.9701e-05,4.83061e-05,-3.82959e-05,1.12403e-05
124,1.35042e-05,1.67853e-05,3.91316e-05,4.35773e-05,-3.12755e-05,8.64905e-06
125,-3.25979e-06,1.38652e-05,2.96003e-05,4.03213e-05,-1.77393e-05,8.71364e-06
126,-1.83669e-05,1.24424e-05,2.02001e-05,4.36211e-05,-8.07082e-06,8.27941e-06
127,-1.66164e-05,1.37236e-05,2.11392e-05,5.02788e-05,-6.25662e-06,6.07228e-06
128,-1.15622e-06,1.64843e-05,3.03829e-05,5.58041e-05,-7.84618e-06,5.72983e-06
129,1.00118e-05,2.0176e-05,3.7225e-05,5.79441e-05,-8.47809e-06,8.14273e-06
130,7.76123e-06,2.47614e-05,3.70925e-05,5.51901e-05,-9.40063e-06,1.13169e-05
131,-4.465e-06,2.67903e-05,3.18579e-05,5.2006e-05,-1.19426e-05,1.55088e-05
132,-1.83336e-05,2.5337e-05,2.54457e-05,5.40879e-05,-1.58694e-05,1.70057e-05
133,-1.68809e-05,2.41461e-05,2.82332e-05,5.96023e-05,-1.9322e-05,1.3358e-05
134,7.41596e-07,2.37972e-05,4.18268e-05,6.41717e-05,-1.95899e-05,9.69785e-06
135,1.47921e-05,2.24231e-05,5.0682e-05,6.5956e-05,-1.60601e-05,1.20715e-05
136,1.3271e-05,1.95866e-05,4.65989e-05,6.30121e-05,-1.14964e-05,1.84662e-05
137,1.41375e-06,1.61459e-05,3.77807e-05,5.91883e-05,-1.13162e-05,2.19061e-05
138,-1.75674e-05,1.41853e-05,2.77027e-05,6.01549e-05,-1.35008e-05,2.07361e-05
139,-2.24909e-05,1.46909e-05,2.50908e-05,6.49728e-05,-1.20669e-05,1.88915e-05
140,-4.15224e-06,1.66246e-05,3.48362e-05,6.793e-05,-1.09131e-05,1.99581e-05
141,7.61891e-06,1.67633e-05,4.45729e-05,6.73541e-05,-9.59196e-06,1.92462e-05
142,7.83594e-06,1.28468e-05,4.77564e-05,6.49171e-05,-7.52078e-06,1.58932e-05
143,7.36564e-06,7.40992e-06,4.91929e-05,6.37004e-05,-8.37645e-06,1.38092e-05
144,8.53057e-06,6.58405e-06,4.67325e-05,6.3806e-05,-1.08518e-05,1.34351e-05
145,7.29878e-06,1.20793e-05,4.12177e-05,6.31975e-05,-1.03433e-05,1.41059e-05
146,-7.8445e-06,1.65889e-05,3.14205e-05,6.31295e-05,-5.92077e-06,1.1194e-05
147,-2.57251e-05,1.51818e-05,2.26257e-05,6.48273e-05,-1.86234e-06,9.32236e-06
148,-2.67597e-05,1.10169e-05,2.70071e-05,6.47479e-05,-4.61635e-07,1.00326e-05
149,-1.17868e-05,9.01182e-06,3.96393e-05,6.10093e-05,4.99583e-07,1.16461e-05
150,-1.70978e-06,8.19329e-06,4.69354e-05,5.56294e-05,3.52992e-07,1.1661e-05
151,-4.04363e-06,8.5965e-06,4.42999e-05,5.09338e-05,-1.58329e-06,1.00514e-05
152,-1.80656e-05,9.83349e-06,3.61081e-05,4.76679e-05,-2.48406e-06,9.98264e-06
153,-3.2097e-05,1.03012e-05,2.94765e-05,4.66788e-05,-2.42751e-06,1.27109e-05
154,-3.02105e-05,9.56699e-06,3.18161e-05,4.6676e-05,-4.37042e-06,1.63023e-05
155,-1.43832e-05,7.49353e-06,4.19255e-05,4.68159e-05,-7.63453e-06,1.64368e-05
156,-2.55576e-06,6.13924e-06,4.97035e-05,4.69228e-05,-9.38863e-06,1.36691e-05
157,-3.70863e-06,7.97367e-06,4.92714e-05,4.632e-05,-7.66408e-06,1.21762e-05
158,-1.56767e-05,1.21937e-05,4.16886e-05,4.57289e-05,-2.80112e-06,1.49766e-05
159,-3.2703e-05,1.54137e-05,3.15403e-05,4.67024e-05,1.12035e-06,1.95115e-05
160,-3.71734e-05,1.60463e-05,3.03134e-05,4.89583e-05,1.95387e-06,2.27504e-05
161,-2.30895e-05,1.50284e-05,3.80933e-05,5.12693e-05,-9.21696e-07,2.29418e-05
162,-6.84433e-06,1.46169e-05,4.10245e-05,5.23516e-05,-4.59308e-06,2.18211e-05
163,-2.00336e-06,1.36685e-05,3.74149e-05,4.93499e-05,-5.73551e-06,2.16809e-05
164,-9.99546e-06,1.07398e-05,3.34021e-05,4.69149e-05,-5.66267e-06,2.39108e-05
165,-2.8675e-05,7.22934e-06,2.91469e-05,5.011e-05,-5.42109e-06,2.61908e-05
166,-3.39204e-05,5.89762e-06,3.258e-05,5.41176e-05,-3.63164e-06,2.78508e-05
167,-1.51644e-05,7.44265e-06,4.59738e-05,5.44542e-05,-6.22427e-08,2.64703e-05
168,-3.39533e-07,1.17747e-05,5.13823e-05,5.1314e-05,1.53166e-06,2.3178e-05
169,4.3177e-06,1.77596e-05,4.56622e-05,5.06088e-05,-1.7803e-06,1.74215e-05
170,9.86908e-06,2.18322e-05,4.23459e-05,5.32697e-05,-4.70889e-06,8.93962e-06
171,9.95133e-06,2.31983e-05,4.3673e-05,5.3528e-05,-5.03099e-06,3.03801e-06
172,6.33789e-06,2.28255e-05,4.53433e-05,5.206e-05,-5.03872e-06,8.44272e-07
173,-4.519e-06,1.90449e-05,4.1199e-05,5.07197e-05,-4.61288e-06,8.39976e-07
174,-1.68027e-05,1.30933e-05,3.36209e-05,5.12385e-05,-1.96336e-06,-1.241e-07
175,-1.31088e-05,7.75788e-06,3.30094e-05,5.09509e-05,-7.43006e-07,9.34585e-08
176,3.58724e-06,5.88481e-06,3.87855e-05,5.17992e-05,-3.96146e-06,1.30819e-06
177,1.27201e-05,8.22935e-06,4.41739e-05,5.35468e-05,-6.03782e-06,2.48347e-06
178,8.8165e-06,1.08609e-05,4.63881e-05,5.32131e-05,-5.536e-06,5.90471e-06
179,-3.3113e-06,1.25034e-05,4.17633e-05,5.01734e-05,-4.7722e-06,1.06833e-05
180,-1.42502e-05,1.43967e-05,3.41036e-05,4.88386e-05,-5.41566e-06,1.27378e-05
181,-1.08307e-05,1.5935e-05,3.46094e-05,5.05266e-05,-7.3769e-06,1.27516e-05
182,5.52931e-06,1.6337e-05,4.55783e-05,5.12996e-05,-8.61219e-06,1.53714e-05
183,1.75852e-05,1.54697e-05,5.43253e-05,4.96928e-05,-7.88202e-06,2.01e-05
184,1.47398e-05,1.35872e-05,5.26691e-05,4.56801e-05,-5.93106e-06,2.15594e-05
185,-7.61194e-07,1.19735e-05,4.28339e-05,4.18654e-05,-4.33111e-06,1.72584e-05
186,-1.99303e-05,1.1451e-05,3.16558e-05,4.08016e-05,-5.23091e-06,1.16337e-05
187,-2.28027e-05,1.18112e-05,2.89121e-05,4.29204e-05,-8.88341e-06,1.11341e-05
188,-6.63073e-06,1.07919e-05,3.81812e-05,4.44154e-05,-1.15553e-05,1.81332e-05
189,7.55593e-06,8.33541e-06,4.78505e-05,4.46078e-05,-1.04851e-05,2.45923e-05
190,6.17887e-06,8.28395e-06,4.71869e-05,4.3326e-05,-6.61119e-06,2.29781e-05
191,-6.77701e-06,1.17076e-05,4.05187e-05,4.24337e-05,-4.6443e-06,1.79685e-05
192,-2.67737e-05,1.48419e-05,3.06766e-05,4.41873e-05,-8.24303e-06,1.52567e-05
193,-3.00309e-05,1.46162e-05,2.47831e-05,4.81359e-05,-1.81978e-05,1.59021e-05
194,-5.5616e-06,1.48664e-05,3.15145e-05,5.22955e-05,-2.89409e-05,1.95669e-05
195,8.42571e-06,1.90049e-05,3.69988e-05,5.2364e-05,-2.86433e-05,2.05472e-05
196,3.32947e-06,2.15948e-05,3.39672e-05,4.95438e-05,-2.09721e-05,1.72655e-05
197,2.16755e-06,1.9219e-05,3.45533e-05,4.96601e-05,-1.85495e-05,1.54971e-05
198,3.49199e-06,1.55589e-05,3.61596e-05,5.1512e-05,-1.90997e-05,1.80716e-05
199,3.31322e-06,1.54014e-05,3.72633e-05,5.24967e-05,-1.88332e-05,2.2012e-05
200,-5.7766e-06,1.89047e-05,3.48174e-05,5.1249e-05,-1.90279e-05,2.25549e-05
201,-1.9476e-05,2.18905e-05,2.59478e-05,5.16426e-05,-1.85206e-05,2.02431e-05
202,-1.90483e-05,2.17989e-05,2.30123e-05,5.40194e-05,-1.76149e-05,1.61129e-05
203,-3.90634e-06,2.15978e-05,3.04588e-05,5.65194e-05,-1.73269e-05,1.29396e-05
204,8.12937e-06,2.12036e-05,3.77819e-05,5.79197e-05,-1.61884e-05,1.20189e-05
205,8.20425e-06,2.05318e-05,3.71002e-05,5.83046e-05,-1.37809e-05,1.27577e-05
206,-5.43728e-06,2.16245e-05,2.63137e-05,5.77316e-05,-1.25974e-05,1.37254e-05
207,-2.2e-05,2.18131e-05,1.48089e-05,5.60565e-05,-1.21298e-05,1.31408e-05
208,-2.32515e-05,1.95557e-05,1.52212e-05,5.6069e-05,-1.00841e-05,1.21433e-05
209,-8.47459e-06,1.63143e-05,2.7099e-05,5.7601e-05,-6.85912e-06,1.21097e-05
210,4.24203e-06,1.45746e-05,3.72474e-05,5.84934e-05,-6.78585e-06,1.4256e-05
211,3.92314e-06,1.31084e-05,3.84259e-05,5.6014e-05,-1.05348e-05,1.82026e-05
212,-6.87737e-06,1.16335e-05,3.33937e-05,5.12315e-05,-1.3584e-05,2.04497e-05
213,-1.99007e-05,1.1816e-05,2.51359e-05,4.90828e-05,-1.20407e-05,1.85345e-05
214,-1.83823e-05,1.34926e-05,2.24807e-05,5.18979e-05,-6.51492e-06,1.58103e-05
215,-3.3384e-06,1.4916e-05,3.2168e-05,5.45237e-05,-2.41082e-07,1.5145e-05
216,5.94125e-06,1.66413e-05,4.24972e-05,5.39675e-05,3.98199e-06,1.57819e-05
217,2.73384e-06,1.93922e-05,4.26913e-05,5.13495e-05,9.89557e-07,1.4539e-05
218,-6.98817e-06,1.99195e-05,3.70336e-05,5.01372e-05,-1.00079e-05,1.11556e-05
219,-2.33616e-05,1.51866e-05,2.69635e-05,5.19894e-05,-2.17153e-05,9.70058e-06
220,-2.91668e-05,1.0053e-05,2.19191e-05,5.58778e-05,-2.53871e-05,1.26265e-05
221,-1.27883e-05,8.98966e-06,2.93906e-05,5.82614e-05,-1.18109e-05,1.5963e-05
222,-1.9712e-06,8.39372e-06,3.78219e-05,5.59393e-05,1.41228e-05,1.3369e-05
223,-2.22253e-06,7.51143e-06,3.99323e-05,5.32014e-05,3.42697e-05,7.08518e-06
224,-4.37733e-07,5.77101e-06,4.01627e-05,5.11731e-05,3.36522e-05,5.38626e-06
225,5.86826e-07,5.59296e-06,4.03448e-05,4.56533e-05,9.36152e-06,7.80201e-06
226,8.1481e-07,1.03348e-05,4.19604e-05,3.94568e-05,-1.8718e-05,8.30659e-06
227,-8.04303e-06,1.56468e-05,4.01258e-05,3.73707e-05,-2.96411e-05,7.39423e-06
228,-1.90106e-05,1.49298e-05,3.27424e-05,4.0136e-05,-2.12783e-05,9.6831e-06
229,-1.18439e-05,1.06543e-05,3.13543e-05,4.33786e-05,-1.04696e-05,1.72118e-05
230,8.10543e-06,1.07577e-05,3.91971e-05,4.65907e-05,-1.05278e-05,2.60585e-05
231,1.80232e-05,1.3881e-05,4.69336e-05,4.76471e-05,-1.95045e-05,2.98206e-05
232,1.39282e-05,1.45674e-05,4.95789e-05,4.41459e-05,-2.76648e-05,2.48728e-05
233,8.81844e-07,1.20788e-05,4.21265e-05,3.89528e-05,-2.81766e-05,1.3275e-05
234,-1.00222e-05,9.6221e-06,2.98141e-05,3.76687e-05,-2.2042e-05,1.24636e-06
235,-6.41627e-06,9.55611e-06,2.82757e-05,4.19682e-05,-1.46244e-05,-4.98044e-06
236,7.96989e-06,1.01317e-05,4.09598e-05,4.7354e-05,-1.15326e-05,-3.02802e-06
237,1.77098e-05,9.42662e-06,5.09522e-05,5.11808e-05,-1.17674e-05,4.26507e-06
238,1.59571e-05,9.16367e-06,4.90769e-05,5.09084e-05,-1.21548e-05,1.17176e-05
239,4.47077e-06,1.15348e-05,4.12961e-05,4.83087e-05,-1.17227e-05,1.44779e-05
240,-1.14104e-05,1.46956e-05,3.34648e-05,4.88857e-05,-1.24168e-05,1.29664e-05
241,-1.50215e-05,1.50831e-05,3.30306e-05,5.38625e-05,-1.42041e-05,1.10956e-05
242,-3.49917e-06,1.375e-05,4.25238e-05,5.64641e-05,-1.42103e-05,1.00159e-05
243,6.06142e-06,1.44928e-05,5.16733e-05,5.48027e-05,-1.15892e-05,9.19593e-06
244,5.67608e-06,1.64088e-05,5.2216e-05,5.17823e-05,-9.90081e-06,9.74556e-06
245,-3.32168e-06,1.82827e-05,4.70361e-05,4.72277e-05,-1.05912e-05,1.2123e-05
246,-2.13074e-05,1.87469e-05,3.699e-05,4.322e-05,-1.27726e-05,1.30947e-05
247,-2.43215e-05,1.91579e-05,3.32393e-05,4.57243e-05,-1.34727e-05,1.31233e-05
248,-4.18314e-06,2.05424e-05,4.26123e-05,5.29731e-05,-1.10926e-05,1.54843e-05
249,6.33347e-06,1.87078e-05,4.59857e-05,5.46165e-05,-9.54992e-06,1.55742e-05
250,6.56424e-06,1.62398e-05,3.96272e-05,5.17176e-05,-1.01144e-05,1.2107e-05
251,1.01232e-05,1.67625e-05,3.78376e-05,5.23682e-05,-9.44587e-06,1.01447e-05
252,9.76503e-06,1.64561e-05,3.94368e-05,5.32523e-05,-9.67138e-06,1.41359e-05
253,6.66986e-06,1.24287e-05,4.24493e-05,5.01777e-05,-1.15513e-05,2.22847e-05
254,-5.95889e-06,8.76697e-06,4.10885e-05,4.70437e-05,-1.23036e-05,2.73496e-05
255,-1.94272e-05,8.94024e-06,3.28596e-05,4.95202e-05,-9.92014e-06,2.48862e-05
256,-1.61035e-05,1.29432e-05,3.04336e-05,5.50704e-05,-5.66326e-06,1.36061e-05
257,-1.26411e-06,1.53224e-05,3.70913e-05,5.80422e-05,-4.54833e-06,3.70558e-06
258,6.87509e-06,1.41208e-05,4.04929e-05,5.38901e-05,-6.62092e-06,2.62827e-06
259,2.6715e-06,1.36384e-05,3.7628e-05,4.57772e-05,-7.99721e-06,6.94727e-06
260,-1.07892e-05,1.34737e-05,2.87672e-05,4.19447e-05,-6.68431e-06,1.06293e-05
261,-2.48913e-05,1.26879e-05,2.09967e-05,4.6653e-05,-4.55773e-06,1.22351e-05
262,-2.25005e-05,1.19045e-05,2.45048e-05,5.54423e-05,-8.10758e-07,1.38365e-05
263,-5.73926e-06,1.14193e-05,3.67138e-05,5.98827e-05,3.7318e-06,1.66068e-05
264,5.75374e-06,1.13251e-05,4.40026e-05,5.84632e-05,7.39675e-06,1.95741e-05
265,1.63557e-06,1.20418e-05,4.22045e-05,5.37313e-05,8.23568e-06,2.04114e-05
266,-1.30639e-05,1.47428e-05,3.53822e-05,5.04716e-05,6.39615e-06,1.87889e-05
267,-2.62307e-05,1.76334e-05,2.54508e-05,5.10328e-05,5.55785e-07,1.64811e-05
268,-2.50744e-05,1.56709e-05,2.20802e-05,5.42903e-05,-8.2621e-06,1.58976e-05
269,-1.38799e-05,1.09821e-05,3.27022e-05,5.76675e-05,-1.33652e-05,1.7325e-05
270,-7.04993e-06,1.04023e-05,4.4049e-05,5.80742e-05,-1.28329e-05,1.83976e-05
271,-7.72741e-06,1.30843e-05,4.47391e-05,5.33509e-05,-1.16837e-05,1.82697e-05
272,-1.51106e-05,1.52067e-05,4.13167e-05,4.87155e-05,-1.34375e-05,1.97137e-05
273,-3.18822e-05,1.52712e-05,3.44532e-05,5.05107e-05,-1.72647e-05,1.95932e-05
274,-3.77006e-05,1.54576e-05,2.86278e-05,5.66109e-05,-1.92573e-05,1.65227e-05
275,-2.07158e-05,1.83167e-05,3.01355e-05,6.20837e-05,-1.48455e-05,1.31955e-05
276,-8.59384e-06,1.69989e-05,3.27408e-05,6.4368e-05,-9.30188e-06,1.27997e-05
277,-7.92741e-06,1.23245e-05,3.42003e-05,5.94278e-05,-3.93099e-06,1.62767e-05
278,-9.32514e-06,8.58948e-06,4.11768e-05,5.27991e-05,-1.16036e-06,2.04934e-05
279,-1.36079e-05,6.35019e-06,4.80867e-05,5.00534e-05,-3.01299e-06,1.82966e-05
280,-1.66845e-05,7.1231e-06,5.07071e-05,4.81411e-05,-1.96867e-06,1.32504e-05
281,-2.65321e-05,8.61558e-06,4.35325e-05,4.68869e-05,4.12929e-06,1.26247e-05
282,-3.6013e-05,8.35483e-06,3.12622e-05,4.72381e-05,1.08472e-05,1.72766e-05
283,-2.90398e-05,6.34146e-06,2.93323e-05,4.83118e-05,1.31737e-05,2.75565e-05
284,-1.1767e-05,5.60651e-06,3.95213e-05,5.24012e-05,1.01756e-05,3.59151e-05
285,-1.3354e-06,4.72943e-06,4.77744e-05,5.77892e-05,1.39652e-06,3.33879e-05
286,-2.76657e-06,4.62959e-06,4.75621e-05,5.85934e-05,-1.19503e-05,1.58662e-05
287,-1.60236e-05,4.90425e-06,3.90085e-05,5.35023e-05,-2.16929e-05,-5.24457e-06
288,-3.11777e-05,2.68337e-06,2.86162e-05,4.95116e-05,-2.31966e-05,-1.55403e-05
289,-3.13805e-05,5.81969e-07,2.62768e-05,5.22114e-05,-2.18167e-05,-1.19489e-05
290,-1.76282e-05,1.8167e-06,3.0454e-05,5.59513e-05,-2.35854e-05,-7.41998e-07
291,-8.81189e-06,3.23146e-06,3.51082e-05,5.62308e-05,-2.5191e-05,9.62909e-06
292,-1.42476e-05,2.94112e-06,3.69053e-05,5.24653e-05,-2.03409e-05,1.41532e-05
293,-2.63402e-05,4.67366e-06,3.34635e-05,4.77982e-05,-1.10722e-05,1.39089e-05
294,-3.52647e-05,7.97976e-06,2.37256e-05,4.73815e-05,-4.86164e-06,1.30823e-05
295,-2.83528e-05,7.7619e-06,1.96655e-05,5.22112e-05,-5.81568e-06,1.33354e-05
296,-8.97804e-06,3.17551e-06,2.98081e-05,5.53216e-05,-9.91794e-06,1.50349e-05
297,5.21535e-06,-5.82946e-07,4.42802e-05,5.22535e-05,-9.83203e-06,1.69095e-05
298,4.47161e-06,1.34481e-07,4.95156e-05,4.51552e-05,-5.11158e-06,1.81474e-05
299,-9.02807e-06,3.65428e-06,4.29207e-05,4.42658e-05,-2.52797e-06,1.6641e-05
300,-2.92097e-05,9.42057e-06,2.85185e-05,5.37312e-05,-5.68258e-06,1.20876e-05
301,-3.21247e-05,1.23112e-05,2.24833e-05,6.01916e-05,-8.57199e-06,9.83486e-06
302,-8.50212e-06,7.6808e-06,3.10656e-05,5.63792e-05,-7.92948e-06,9.67909e-06
303,9.55861e-06,5.04431e-06,3.85964e-05,5.06007e-05,-8.69162e-06,1.02288e-05
304,1.0013e-05,6.60341e-06,4.10269e-05,4.92334e-05,-1.20331e-05,1.35107e-05
305,4.88418e-06,8.1677e-06,4.45591e-05,5.20494e-05,-1.33446e-05,1.65182e-05
306,1.16632e-06,8.2109e-06,4.56497e-05,5.2721e-05,-1.24895e-05,1.68497e-05
307,1.08792e-06,8.35682e-06,4.41015e-05,4.73017e-05,-1.01682e-05,1.36074e-05
308,-8.23259e-06,6.99124e-06,3.85682e-05,4.23456e-05,-6.84597e-06,1.0641e-05
309,-2.04519e-05,2.44032e-06,3.05779e-05,4.39236e-05,-4.50899e-06,1.09156e-05
310,-1.4438e-05,-3.68364e-07,2.72831e-05,4.90537e-05,-3.6754e-06,1.49912e-05
311,4.60596e-06,2.75386e-06,3.27992e-05,5.15291e-05,-4.61912e-06,1.89916e-05
312,1.36743e-05,8.91861e-06,4.03277e-05,5.02837e-05,-6.20124e-06,1.90177e-05
313,9.18543e-06,1.31486e-05,4.41327e-05,4.72132e-05,-8.10332e-06,1.67817e-05
314,-4.28187e-06,1.40805e-05,3.90244e-05,4.54973e-05,-9.9826e-06,1.50527e-05
315,-1.69765e-05,1.21685e-05,2.90128e-05,4.65475e-05,-1.22629e-05,1.49616e-05
316,-1.73186e-05,9.92926e-06,2.67026e-05,4.91598e-05,-1.37319e-05,1.6408e-05
317,-5.84884e-06,7.42178e-06,3.33947e-05,5.00852e-05,-1.42773e-05,1.87635e-05
318,3.47408e-06,5.52372e-06,3.94727e-05,4.91973e-05,-1.3052e-05,2.00043e-05
319,2.32594e-06,5.15856e-06,3.86938e-05,4.7668e-05,-1.12088e-05,1.70919e-05
320,-7.69792e-06,4.82075e-06,3.12161e-05,4.77377e-05,-1.17918e-05,8.22137e-06
321,-2.15005e-05,3.61654e-06,1.81806e-05,5.11475e-05,-1.45639e-05,-6.19168e-07
322,-2.312e-05,5.18729e-06,1.2539e-05,5.47306e-05,-1.59894e-05,-2.12151e-06
323,-9.22287e-06,9.85338e-06,2.28962e-05,5.46456e-05,-1.41795e-05,2.0672e-06
324,4.75801e-06,1.34725e-05,3.73686e-05,5.25604e-05,-1.04059e-05,5.16225e-06
325,7.66149e-06,1.45989e-05,4.30177e-05,5.13378e-05,-7.01539e-06,6.31506e-06
326,6.50317e-07,1.39526e-05,3.90354e-05,4.94516e-05,-7.42638e-06,7.66118e-06
327,-1.7809e-05,1.25487e-05,2.83021e-05,4.90503e-05,-1.24138e-05,6.92931e-06
328,-2.87168e-05,1.55398e-05,2.57729e-05,5.14913e-05,-1.48206e-05,3.86713e-06
329,-1.35322e-05,2.17171e-05,3.75677e-05,5.3626e-05,-1.13326e-05,4.17469e-06
330,-2.32035e-07,2.34642e-05,4.93936e-05,5.59396e-05,-9.10845e-06,7.33674e-06
331,2.12364e-06,2.28057e-05,5.13408e-05,5.74301e-05,-8.31108e-06,1.55178e-05
332,8.5884e-06,2.27298e-05,4.89523e-05,5.80561e-05,-7.3926e-06,2.45034e-05
333,1.37844e-05,2.34303e-05,4.74681e-05,5.90317e-05,-7.66175e-06,2.53923e-05
334,1.51274e-05,2.29963e-05,4.98202e-05,5.7921e-05,-7.20827e-06,2.48176e-05
335,8.01333e-07,1.93484e-05,4.52805e-05,5.6201e-05,-5.43981e-06,2.68324e-05
336,-1.74992e-05,1.50472e-05,3.20192e-05,5.75114e-05,-5.24839e-06,2.78464e-05
337,-1.64956e-05,1.44209e-05,2.93042e-05,6.04918e-05,-6.36613e-06,2.80834e-05
338,-8.36941e-07,1.78448e-05,4.16549e-05,6.30182e-05,-6.81739e-06,2.82874e-05
339,8.96145e-06,1.98255e-05,5.26487e-05,6.39183e-05,-4.52642e-06,2.71713e-05
340,7.39025e-06,1.93459e-05,5.19273e-05,6.15737e-05,-1.88368e-06,2.52597e-05
341,-3.51923e-06,1.73982e-05,4.00434e-05,5.82016e-05,-1.83389e-06,2.1151e-05
342,-1.38525e-05,1.43346e-05,2.78845e-05,5.76203e-05,-4.13727e-06,1.51076e-05
343,-1.05673e-05,1.16976e-05,2.72626e-05,5.99387e-05,-5.75529e-06,1.24942e-05
344,2.61296e-06,1.11367e-05,3.58086e-05,5.99595e-05,-5.17516e-06,1.55259e-05
345,1.2013e-05,1.26275e-05,4.21985e-05,5.71539e-05,-5.01674e-06,1.97895e-05
346,1.00693e-05,1.3574e-05,4.00371e-05,5.37311e-05,-7.25251e-06,2.043e-05
347,-2.52916e-07,1.25223e-05,3.26734e-05,5.04791e-05,-9.3003e-06,1.83504e-05
348,-1.22673e-05,1.07936e-05,2.63652e-05,4.93312e-05,-8.01675e-06,1.63201e-05
349,-1.11544e-05,1.23705e-05,3.08781e-05,5.24696e-05,-6.81697e-06,1.41287e-05
350,2.91458e-06,1.62998e-05,4.52318e-05,5.5895e-05,-9.36757e-06,1.16622e-05
351,1.25333e-05,1.82616e-05,5.62877e-05,5.51459e-05,-1.24512e-05,1.1117e-05
352,1.03059e-05,1.86897e-05,5.54434e-05,5.20028e-05,-1.24394e-05,1.43979e-05
353,7.6624e-07,1.97874e-05,4.40858e-05,4.9542e-05,-1.15843e-05,1.82819e-05
354,-1.6773e-05,2.09172e-05,2.87456e-05,5.12638e-05,-1.1637e-05,1.82277e-05
355,-2.02719e-05,2.07157e-05,2.62492e-05,5.47347e-05,-1.15825e-05,1.65956e-05
356,-5.22383e-07,2.11208e-05,3.62191e-05,5.37279e-05,-9.69611e-06,1.68331e-05
357,1.20563e-05,2.23166e-05,4.01032e-05,4.99799e-05,-8.37736e-06,1.62174e-05
358,1.31406e-05,2.09109e-05,3.72036e-05,5.13997e-05,-7.93273e-06,1.71409e-05
359,1.70539e-05,1.79612e-05,3.77206e-05,5.56975e-05,-8.23669e-06,2.05217e-05
360,1.95495e-05,1.66369e-05,4.07567e-05,5.73109e-05,-6.63585e-06,2.15787e-05
361,1.5645e-05,1.7781e-05,3.96026e-05,5.48756e-05,-3.61871e-06,1.92081e-05
362,1.06715e-06,1.95065e-05,3.08762e-05,5.05374e-05,-3.58579e-06,1.3407e-05
363,-1.39015e-05,2.02347e-05,2.23655e-05,4.81679e-05,-7.36021e-06,8.62709e-06
364,-1.11138e-05,2.00714e-05,2.28704e-05,4.70279e-05,-1.1329e-05,5.99223e-06
365,8.33741e-06,2.00553e-05,2.98913e-05,4.74521e-05,-9.86294e-06,6.10174e-06
366,2.48722e-05,1.91321e-05,3.37689e-05,4.85412e-05,-5.39708e-06,1.01967e-05
367,2.78323e-05,1.87732e-05,3.27828e-05,4.77335e-05,-2.46458e-06,1.48514e-05
368,1.49988e-05,1.85308e-05,2.85822e-05,4.541e-05,-2.84691e-06,1.68185e-05
369,-2.0697e-06,1.75662e-05,2.46523e-05,4.62753e-05,-3.83658e-06,1.67746e-05
370,-3.73548e-06,1.70802e-05,2.64336e-05,5.07505e-05,-3.72985e-06,1.67485e-05
371,8.37154e-06,1.65751e-05,3.5233e-05,5.39169e-05,-2.48448e-06,1.49643e-05
372,1.59487e-05,1.70903e-05,4.41542e-05,5.41906e-05,-5.04861e-07,1.12164e-05
373,1.02704e-05,1.98563e-05,4.66552e-05,5.17433e-05,3.632e-07,8.49491e-06
374,-5.90548e-06,2.25988e-05,4.21171e-05,4.8411e-05,-1.09073e-06,9.27309e-06
375,-2.35036e-05,2.09605e-05,3.44193e-05,4.88796e-05,-4.52297e-06,1.22995e-05
376,-2.42091e-05,1.50285e-05,3.58451e-05,5.37604e-05,-7.65641e-06,1.41069e-05
377,-8.43096e-06,1.02274e-05,4.55689e-05,5.83808e-05,-8.26653e-06,1.36958e-05
378,4.28382e-06,1.21445e-05,4.72754e-05,6.03534e-05,-7.29042e-06,1.49324e-05
379,4.94226e-06,1.75768e-05,4.04031e-05,5.67853e-05,-8.29254e-06,1.85908e-05
380,-4.12529e-06,2.00325e-05,3.40104e-05,5.03287e-05,-1.12769e-05,2.05021e-05
381,-2.12841e-05,1.77919e-05,2.34411e-05,4.79571e-05,-1.13555e-05,1.79632e-05
382,-2.30963e-05,1.40633e-05,1.84337e-05,5.0826e-05,-7.15966e-06,1.41451e-05
383,9.63053e-07,1.15991e-05,2.79397e-05,5.39538e-05,-3.5649e-06,1.09691e-05
384,1.80863e-05,1.04454e-05,3.43932e-05,5.45715e-05,-3.90959e-06,8.47363e-06
385,2.0285e-05,9.62633e-06,3.27954e-05,5.73096e-05,-7.81731e-06,7.81433e-06
386,1.96034e-05,1.05965e-05,3.41509e-05,5.92589e-05,-1.6379e-05,8.32187e-06
387,1.48338e-05,1.14855e-05,3.73196e-05,5.61072e-05,-2.55012e-05,1.06251e-05
388,1.12225e-05,1.04405e-05,3.94421e-05,5.30337e-05,-3.01039e-05,1.22638e-05
389,1.22085e-06,8.28401e-06,3.77296e-05,5.25121e-05,-3.12039e-05,1.02679e-05
390,-1.19017e-05,6.81884e-06,3.29692e-05,5.54967e-05,-2.08792e-05,4.49085e-06
391,-1.18031e-05,7.3897e-06,3.31364e-05,5.76655e-05,2.71804e-06,-6.82981e-07
392,-5.66141e-07,8.43735e-06,4.16203e-05,5.55558e-05,2.81357e-05,-7.05614e-07
393,4.7305e-06,9.43646e-06,4.96109e-05,5.28702e-05,4.03277e-05,-9.09238e-07
394,8.21009e-07,1.16961e-05,5.19324e-05,5.1472e-05,2.97919e-05,-4.8115e-06
395,-8.76888e-06,1.41858e-05,4.6792e-05,5.04185e-05,2.14364e-06,-8.59856e-06
396,-1.81846e-05,1.43138e-05,3.82652e-05,5.06462e-05,-2.36266e-05,-8.41022e-06
397,-1.53459e-05,1.21567e-05,3.60606e-05,5.23972e-05,-3.20685e-05,-2.586e-06
398,-2.12565e-06,9.15538e-06,4.10938e-05,5.30492e-05,-2.55826e-05,7.05642e-06
399,5.1092e-06,6.72307e-06,4.4836e-05,5.23377e-05,-1.57466e-05,1.60941e-05
400,-6.72334e-08,4.95217e-06,4.42965e-05,5.11374e-05,-1.16471e-05,2.09303e-05
401,-1.36272e-05,5.72546e-06,4.12015e-05,5.25977e-05,-1.35741e-05,1.9285e-05
402,-2.97066e-05,8.41951e-06,3.36978e-05,5.62897e-05,-1.73566e-05,1.32826e-05
403,-3.11204e-05,9.81067e-06,2.91426e-05,5.73189e-05,-1.86678e-05,1.04484e-05
404,-1.48245e-05,9.16069e-06,3.37984e-05,5.4091e-05,-1.67077e-05,1.41344e-05
405,-1.56755e-07,8.67284e-06,4.06914e-05,5.20964e-05,-1.45131e-05,1.94968e-05
406,1.23422e-06,9.99317e-06,4.46537e-05,5.27577e-05,-1.4715e-05,2.22735e-05
407,-9.80274e-06,1.30723e-05,4.50297e-05,5.12004e-05,-1.57103e-05,2.42424e-05
408,-3.25715e-05,1.45437e-05,3.89805e-05,4.9937e-05,-1.57038e-05,2.60066e-05
409,-3.94308e-05,1.58621e-05,3.2796e-05,5.26032e-05,-1.48651e-05,2.55002e-05
410,-1.77789e-05,1.84045e-05,3.1645e-05,5.38519e-05,-1.33677e-05,2.20167e-05
411,-4.42399e-06,1.83569e-05,3.19739e-05,5.15671e-05,-1.36339e-05,1.86473e-05
412,-8.81642e-06,1.72883e-05,3.31762e-05,4.88108e-05,-1.46801e-05,1.65769e-05
413,-1.04522e-05,1.67701e-05,3.63674e-05,4.7143e-05,-1.3803e-05,1.93663e-05
414,-6.58561e-06,1.49589e-05,3.78611e-05,4.82404e-05,-1.31246e-05,2.7341e-05
415,-3.56666e-06,1.3784e-05,3.91133e-05,4.8976e-05,-1.21049e-05,3.15305e-05
416,-1.30119e-05,1.6013e-05,3.61269e-05,4.84325e-05,-1.0523e-05,2.588e-05
417,-2.89039e-05,1.84877e-05,2.89628e-05,5.01595e-05,-9.45802e-06,1.26505e-05
418,-3.01283e-05,1.82628e-05,2.88099e-05,5.26159e-05,-8.88308e-06,2.14758e-06
419,-1.76877e-05,1.51364e-05,3.64358e-05,5.36903e-05,-9.56748e-06,3.90024e-07
420,-1.05211e-05,1.32631e-05,4.16999e-05,5.26131e-05,-1.10066e-05,5.54632e-06
421,-1.26965e-05,1.55604e-05,3.9506e-05,4.89882e-05,-1.04392e-05,1.28669e-05
422,-2.25901e-05,1.99486e-05,3.10796e-05,4.57682e-05,-8.99101e-06,1.87815e-05
423,-3.21082e-05,2.09118e-05,2.34532e-05,4.81518e-05,-9.82781e-06,2.10863e-05
424,-2.78577e-05,1.84756e-05,2.54216e-05,5.45149e-05,-1.23822e-05,2.08564e-05
425,-1.2781e-05,1.70444e-05,3.56995e-05,5.65506e-05,-1.35929e-05,2.21377e-05
426,-4.51078e-06,1.60267e-05,4.23445e-05,5.08681e-05,-1.19686e-05,2.55983e-05
427,-9.66541e-06,1.34772e-05,4.05626e-05,4.24009e-05,-7.66083e-06,2.59888e-05
428,-2.18023e-05,9.68305e-06,3.51362e-05,3.86633e-05,-2.26228e-06,1.86261e-05
429,-3.42064e-05,6.32005e-06,2.8444e-05,4.1281e-05,2.89343e-07,7.67455e-06
430,-3.41248e-05,5.34687e-06,2.56796e-05,4.50129e-05,-1.57245e-06,1.60926e-06
431,-1.94977e-05,8.03747e-06,3.03877e-05,4.61667e-05,-5.16643e-06,3.23363e-06
432,-5.87639e-06,1.19291e-05,3.49731e-05,4.62004e-05,-7.85879e-06,7.45465e-06
433,-1.29521e-06,1.65455e-05,3.5257e-05,4.47968e-05,-1.01617e-05,1.15688e-05
434,-6.31811e-06,1.9538e-05,3.29023e-05,4.26697e-05,-8.94543e-06,1.61183e-05
435,-2.20477e-05,2.06394e-05,2.68764e-05,4.25574e-05,-2.34884e-06,1.89601e-05
436,-2.72699e-05,2.05695e-05,2.57647e-05,4.43866e-05,4.5589e-06,2.06486e-05
437,-1.22433e-05,1.77416e-05,3.28185e-05,4.83381e-05,5.00848e-06,1.8887e-05
438,-2.84125e-06,1.61908e-05,3.66368e-05,5.33814e-05,-3.53023e-06,1.42073e-05
439,-3.47769e-06,1.82464e-05,3.90463e-05,5.69423e-05,-1.38975e-05,1.47541e-05
440,-2.76736e-06,1.98624e-05,4.24457e-05,5.90029e-05,-1.82578e-05,1.87299e-05
441,-1.92064e-06,1.72238e-05,4.09302e-05,5.84039e-05,-1.47217e-05,1.96719e-05
442,9.52054e-07,1.60264e-05,3.76857e-05,5.40642e-05,-5.5947e-06,1.75365e-05
443,-4.99283e-06,1.82157e-05,3.12248e-05,4.90283e-05,-2.59085e-06,1.44412e-05
444,-1.9319e-05,1.92062e-05,2.42108e-05,4.60551e-05,-9.3282e-06,1.16423e-05
445,-2.23038e-05,1.75393e-05,2.40753e-05,4.53406e-05,-1.61849e-05,1.36006e-05
446,-1.03031e-05,1.57503e-05,3.25717e-05,4.58319e-05,-1.70392e-05,1.87159e-05
447,-2.53789e-06,1.46431e-05,4.08318e-05,4.65475e-05,-1.33819e-05,2.24725e-05
448,-5.81247e-06,1.23565e-05,4.39059e-05,4.80662e-05,-8.16657e-06,2.30322e-05
449,-1.75753e-05,1.10027e-05,3.86035e-05,5.0338e-05,-4.45415e-06,2.04584e-05
450,-2.71936e-05,1.12312e-05,3.04945e-05,5.1417e-05,-2.57629e-06,1.69519e-05
451,-2.23807e-05,1.31137e-05,3.09266e-05,5.05504e-05,-1.24153e-06,1.42132e-05
452,-7.50467e-06,1.43872e-05,3.99066e-05,5.00638e-05,-1.93758e-08,1.30287e-05
453,8.62915e-07,1.46446e-05,4.74684e-05,5.1715e-05,-1.65437e-07,1.14762e-05
454,-3.52425e-06,1.58913e-05,4.90219e-05,5.32722e-05,-3.68198e-06,8.46446e-06
455,-1.59582e-05,1.74792e-05,4.62297e-05,5.17354e-05,-8.96995e-06,5.19691e-06
456,-3.00523e-05,1.58751e-05,3.97375e-05,5.04247e-05,-1.25693e-05,5.5603e-06
457,-2.9627e-05,1.37096e-05,3.92337e-05,5.26284e-05,-1.29427e-05,1.00181e-05
458,-1.29183e-05,1.561e-05,4.68572e-05,5.57096e-05,-1.29514e-05,1.38529e-05
459,-6.17669e-07,1.94146e-05,5.13141e-05,5.75065e-05,-1.40004e-05,1.36164e-05
460,-3.8269e-06,2.24808e-05,4.62091e-05,5.92646e-05,-1.36734e-05,1.37078e-05
461,-1.46344e-05,2.27982e-05,3.82315e-05,5.97271e-05,-1.06687e-05,1.83051e-05
462,-3.00865e-05,2.12027e-05,3.0387e-05,5.91916e-05,-8.15483e-06,2.31298e-05
463,-3.19454e-05,2.08685e-05,2.93946e-05,6.1402e-05,-6.80214e-06,2.41684e-05
464,-1.41199e-05,2.17404e-05,3.74678e-05,6.22322e-05,-6.64032e-06,2.58603e-05
465,-3.58802e-06,2.11215e-05,4.4826e-05,5.82719e-05,-6.81456e-06,2.77256e-05
466,-3.00511e-06,1.71575e-05,4.88301e-05,5.50596e-05,-7.13654e-06,2.46509e-05
467,7.86003e-07,8.10182e-06,5.07107e-05,5.56315e-05,-8.62026e-06,1.9578e-05
468,2.27414e-06,-1.79614e-07,5.04108e-05,5.35678e-05,-9.94322e-06,1.97774e-05
469,-5.52837e-07,4.25792e-07,4.86581e-05,4.64914e-05,-1.08904e-05,2.39498e-05
470,-1.15621e-05,5.04824e-06,3.97091e-05,4.259e-05,-1.13213e-05,2.64541e-05
471,-2.13589e-05,5.81255e-06,2.94395e-05,4.57004e-05,-1.10466e-05,2.34093e-05
472,-1.37544e-05,3.34376e-06,3.20541e-05,5.02531e-05,-1.01799e-05,1.51006e-05
473,4.43576e-06,2.56385e-06,4.34773e-05,5.40355e-05,-9.7744e-06,6.66473e-06
474,1.52723e-05,6.25407e-06,4.88281e-05,5.38363e-05,-1.04111e-05,3.02593e-07
475,1.37713e-05,1.187e-05,4.56255e-05,4.9396e-05,-1.10929e-05,-3.67194e-06
476,1.00948e-06,1.44777e-05,3.4963e-05,4.73757e-05,-1.24591e-05,-6.79427e-06
477,-1.30362e-05,1.03768e-05,2.24152e-05,5.13658e-05,-1.36451e-05,-6.45589e-06
478,-1.15914e-05,3.46221e-06,2.10712e-05,5.73799e-05,-1.15674e-05,-2.92545e-06
479,4.20673e-06,-6.00875e-08,3.12317e-05,5.98238e-05,-6.61038e-06,2.16513e-06
480,1.761e-05,7.33007e-07,3.85931e-05,5.81792e-05,-4.45861e-06,6.60969e-06
481,2.00491e-05,1.9772e-06,3.78006e-05,5.44434e-05,-7.19895e-06,8.73202e-06
482,1.13907e-05,2.61174e-06,3.18208e-05,5.22212e-05,-9.30884e-06,8.25766e-06
483,-4.11873e-06,3.29916e-06,2.45097e-05,5.38222e-05,-8.6752e-06,6.41352e-06
484,-7.93548e-06,4.08037e-06,2.63659e-05,5.78633e-05,-8.22625e-06,5.66376e-06
485,5.14849e-06,4.84065e-06,3.97295e-05,5.82329e-05,-7.13733e-06,7.59032e-06
486,1.98073e-05,5.06973e-06,5.1753e-05,5.5275e-05,-4.49473e-06,1.2146e-05
487,2.38473e-05,7.31385e-06,5.34017e-05,5.24828e-05,-5.93119e-06,1.72875e-05
488,1.55787e-05,1.08778e-05,4.66106e-05,5.07408e-05,-1.14413e-05,1.91762e-05
489,-4.5011e-06,1.1125e-05,3.35878e-05,5.29958e-05,-1.12033e-05,1.73133e-05
490,-1.23568e-05,1.06177e-05,2.58082e-05,5.59946e-05,-4.22417e-06,1.64202e-05
491,3.07457e-06,1.28336e-05,3.0652e-05,5.52906e-05,-3.33899e-07,1.55526e-05
492,1.03955e-05,1.46836e-05,3.53684e-05,5.23427e-05,-7.10015e-06,1.40148e-05
493,7.82172e-06,1.45687e-05,3.34583e-05,5.2992e-05,-1.89433e-05,1.36136e-05
494,1.16866e-05,1.06668e-05,3.35246e-05,5.71121e-05,-2.79702e-05,1.38526e-05
495,1.78598e-05,5.64754e-06,3.37378e-05,6.01939e-05,-3.118e-05,1.3642e-05
496,2.03608e-05,4.7048e-06,3.22737e-05,5.92737e-05,-2.53089e-05,1.54241e-05
497,9.4034e-06,5.67043e-06,2.75742e-05,5.5478e-05,-1.44848e-05,1.66303e-05
498,-8.16856e-06,7.29788e-06,2.26067e-05,5.48457e-05,-3.91452e-06,1.39215e-05
499,-1.00465e-05,1.07789e-05,2.52578e-05,5.51893e-05,4.50401e-07,1.07864e-05
500,2.75893e-06,1.19402e-05,3.29681e-05,5.73027e-05,-2.73378e-06,1.16074e-05
501,1.00489e-05,1.09946e-05,3.91795e-05,5.68761e-05,-8.26402e-06,1.3021e-05
502,5.94772e-06,1.29392e-05,4.10117e-05,5.08973e-05,-1.13752e-05,1.16556e-05
503,-8.71098e-06,1.53993e-05,3.54648e-05,4.56725e-05,-1.17373e-05,9.387e-06
504,-2.21205e-05,1.49414e-05,2.51539e-05,4.70138e-05,-1.19297e-05,9.29176e-06
505,-1.9904e-05,1.32859e-05,2.3136e-05,5.2832e-05,-1.33035e-05,1.01654e-05
506,-6.73853e-06,1.25775e-05,3.26975e-05,5.69375e-05,-1.49576e-05,9.86766e-06
507,9.57269e-08,1.40174e-05,4.0262e-05,5.7182e-05,-1.47238e-05,1.01047e-05
508,-2.8228e-06,1.771e-05,3.94125e-05,5.38848e-05,-1.24433e-05,1.19606e-05
509,-1.11809e-05,2.08644e-05,3.49733e-05,5.13574e-05,-9.33385e-06,1.35189e-05
510,-2.13636e-05,1.96515e-05,3.07598e-05,5.33995e-05,-6.93696e-06,1.33239e-05
511,-1.98735e-05,1.65555e-05,3.15046e-05,5.81901e-05,-6.32944e-06,1.32853e-05
512,-5.12574e-06,1.73418e-05,3.92101e-05,6.02921e-05,-6.67377e-06,1.54687e-05
513,4.8686e-06,2.34183e-05,4.84682e-05,6.04705e-05,-6.37772e-06,1.87138e-05
514,1.2003e-06,2.81019e-05,5.00378e-05,5.8326e-05,-3.70109e-06,1.93567e-05
515,-1.02195e-05,2.68546e-05,4.23857e-05,5.52531e-05,-3.19205e-07,1.79994e-05
516,-2.63332e-05,2.47061e-05,2.93302e-05,5.38385e-05,-1.70178e-07,1.68272e-05
517,-2.70892e-05,2.35028e-05,2.3546e-05,5.26015e-05,-1.05946e-06,1.74036e-05
518,-5.83793e-06,2.05579e-05,3.58602e-05,4.8428e-05,-2.21245e-06,1.92767e-05
519,6.96814e-06,1.67225e-05,4.64931e-05,4.38881e-05,-4.11619e-06,1.92542e-05
520,3.48495e-06,1.57226e-05,4.23874e-05,4.32078e-05,-6.55258e-06,1.40804e-05
521,-1.26949e-06,1.56154e-05,3.58108e-05,4.71234e-05,-7.97445e-06,9.69116e-06
522,-1.73555e-06,1.32123e-05,3.40323e-05,5.02762e-05,-8.23658e-06,1.00428e-05
523,2.64649e-07,8.41921e-06,3.41106e-05,4.80166e-05,-5.72144e-06,1.37277e-05
524,-7.91344e-06,5.99245e-06,2.91876e-05,4.27469e-05,-1.19968e-06,1.7677e-05
525,-2.15031e-05,7.57054e-06,2.42629e-05,4.0918e-05,3.1776e-07,1.92041e-05
526,-2.16441e-05,1.01851e-05,2.78776e-05,4.40932e-05,-9.1697e-07,1.82516e-05
527,-8.89796e-06,1.35824e-05,3.92679e-05,4.68537e-05,-1.63112e-06,1.74252e-05
528,8.04528e-07,1.62881e-05,4.62459e-05,4.91398e-05,-6.5794e-07,1.94813e-05
529,1.87372e-06,1.90003e-05,4.47335e-05,4.97688e-05,6.73594e-07,2.06747e-05
530,-7.03695e-06,1.89106e-05,3.6094e-05,4.93932e-05,2.09306e-07,1.81635e-05
531,-1.88367e-05,1.48196e-05,2.50872e-05,5.13754e-05,-3.82742e-06,1.29155e-05
532,-1.80212e-05,1.09e-05,2.46356e-05,5.50181e-05,-8.57746e-06,7.70979e-06
533,-4.97766e-06,1.07279e-05,3.76204e-05,5.81936e-05,-1.0169e-05,5.70639e-06
534,3.32781e-06,1.24807e-05,5.03871e-05,5.88346e-05,-6.97232e-06,7.90569e-06
535,-1.04686e-06,1.44547e-05,5.2144e-05,5.52824e-05,-2.62997e-07,9.78353e-06
536,-1.36018e-05,1.63107e-05,4.44442e-05,5.03138e-05,7.89585e-06,9.86105e-06
537,-2.69823e-05,1.48777e-05,3.28105e-05,4.92149e-05,1.18199e-05,1.15539e-05
538,-2.56201e-05,1.02279e-05,2.88172e-05,5.31146e-05,7.41268e-06,1.53515e-05
539,-8.32548e-06,6.67488e-06,3.81807e-05,5.94919e-05,-6.10071e-07,1.8826e-05
540,3.40383e-06,6.77976e-06,4.95257e-05,6.26551e-05,-8.44266e-06,2.07878e-05
541,1.75272e-07,7.15753e-06,5.14974e-05,5.7164e-05,-1.73353e-05,2.06134e-05
542,-1.22621e-05,9.36138e-06,4.43707e-05,4.58348e-05,-2.61299e-05,1.7702e-05
543,-2.97334e-05,1.33483e-05,3.30027e-05,4.00375e-05,-3.30386e-05,1.14153e-05
544,-3.31647e-05,1.49422e-05,2.9184e-05,4.36315e-05,-3.02269e-05,5.69709e-06
545,-1.24298e-05,1.46476e-05,3.41941e-05,4.82968e-05,-1.3332e-05,4.53064e-06
546,4.12676e-06,1.51463e-05,3.60467e-05,4.56539e-05,8.95168e-07,5.99231e-06
547,6.20789e-06,1.65545e-05,3.47422e-05,4.2534e-05,2.75146e-06,1.00901e-05
548,6.6129e-06,1.42352e-05,3.69786e-05,4.61078e-05,-1.01493e-05,1.71452e-05
549,5.56831e-06,1.2397e-05,4.16204e-05,4.77139e-05,-3.39604e-05,2.29668e-05
550,3.9902e-06,1.56283e-05,4.40616e-05,4.48653e-05,-4.67399e-05,2.22021e-05
551,-6.64383e-06,1.8237e-05,3.72779e-05,4.33282e-05,-3.54105e-05,1.60034e-05
552,-2.03398e-05,1.79047e-05,2.77937e-05,4.68607e-05,-1.22008e-05,1.05262e-05
553,-1.79891e-05,1.50037e-05,2.95722e-05,5.15115e-05,1.41865e-06,9.91642e-06
554,-1.57263e-06,1.34603e-05,4.07375e-05,5.41181e-05,1.4299e-06,1.31189e-05
555,1.03512e-05,1.35902e-05,4.71718e-05,5.26428e-05,-4.97663e-06,1.56323e-05
556,9.91628e-06,1.39455e-05,4.46386e-05,4.82986e-05,-9.84298e-06,1.43425e-05
557,-1.7315e-06,1.44161e-05,3.69221e-05,4.48978e-05,-1.07352e-05,1.21589e-05
558,-1.42941e-05,1.22136e-05,2.98783e-05,4.25112e-05,-9.48662e-06,1.14584e-05
559,-1.2908e-05,1.01782e-05,3.10135e-05,4.28328e-05,-8.28206e-06,1.17944e-05
560,6.80293e-07,1.01108e-05,4.10327e-05,4.50782e-05,-8.35448e-06,1.26445e-05
561,9.95429e-06,1.15367e-05,4.85507e-05,4.59706e-05,-8.57525e-06,1.3896e-05
562,6.8614e-06,1.45705e-05,4.60991e-05,4.42354e-05,-7.32148e-06,1.54526e-05
563,-2.40328e-06,1.84717e-05,3.73793e-05,4.27441e-05,-5.18983e-06,1.55526e-05
564,-1.13873e-05,1.92741e-05,2.68722e-05,4.31785e-05,-4.33242e-06,1.38297e-05
565,-8.41159e-06,1.51175e-05,2.36851e-05,4.62793e-05,-4.38442e-06,1.43189e-05
566,5.9817e-06,1.05793e-05,3.11459e-05,5.22201e-05,-5.77347e-06,1.73828e-05
567,1.48094e-05,1.06275e-05,4.00513e-05,5.47465e-05,-7.95179e-06,1.82649e-05
568,1.07511e-05,1.37527e-05,4.43666e-05,5.00704e-05,-9.71871e-06,1.72958e-05
569,-1.65561e-06,1.8303e-05,4.28136e-05,4.55556e-05,-8.51898e-06,1.5198e-05
570,-1.88448e-05,2.20749e-05,3.23164e-05,4.82231e-05,-5.3286e-06,1.25952e-05
571,-2.14537e-05,2.16596e-05,2.58748e-05,5.45927e-05,-1.35527e-06,1.25232e-05
572,-3.9641e-06,1.99132e-05,3.36438e-05,5.57356e-05,5.33558e-07,1.44695e-05
573,3.60827e-06,1.74524e-05,4.33281e-05,5.24856e-05,-3.4176e-06,1.53823e-05
574,1.77375e-07,1.71335e-05,4.39089e-05,4.99711e-05,-1.06923e-05,1.50878e-05
575,-1.212e-06,1.63375e-05,3.93923e-05,4.88084e-05,-1.57498e-05,1.22496e-05
576,-2.36145e-06,1.28062e-05,3.5848e-05,5.12665e-05,-1.64022e-05,8.32519e-06
577,-2.23432e-06,1.21293e-05,3.47467e-05,5.42347e-05,-1.53635e-05,6.50073e-06
578,-8.95184e-06,1.4725e-05,3.10824e-05,5.52749e-05,-1.48506e-05,5.43382e-06
579,-2.02319e-05,1.55294e-05,2.4852e-05,5.7938e-05,-1.28356e-05,6.18274e-06
580,-1.84921e-05,1.23115e-05,2.77538e-05,5.91251e-05,-9.06641e-06,1.43745e-05
581,-5.51934e-06,8.0744e-06,3.99038e-05,5.86657e-05,-7.04636e-06,2.91622e-05
582,1.57674e-06,7.44367e-06,4.65386e-05,5.74142e-05,-8.42984e-06,3.77375e-05
583,1.0553e-06,1.16451e-05,4.30491e-05,5.57644e-05,-1.08856e-05,3.15345e-05
584,-9.73564e-06,1.48335e-05,3.52599e-05,5.5651e-05,-1.07156e-05,1.67442e-05
585,-2.53002e-05,1.43903e-05,2.82033e-05,5.74035e-05,-6.45185e-06,3.68575e-06
586,-2.80096e-05,1.33142e-05,2.91684e-05,5.85482e-05,1.62559e-07,-2.00742e-06
587,-1.40799e-05,1.49514e-05,3.96371e-05,5.89939e-05,5.37208e-06,-1.58003e-07
588,-9.95856e-07,1.66724e-05,4.82259e-05,5.98326e-05,6.24642e-06,5.88538e-06
589,3.12035e-07,1.4676e-05,4.71658e-05,5.77789e-05,2.28504e-06,1.31675e-05
590,-7.24186e-06,1.0879e-05,3.81128e-05,5.40059e-05,-4.31671e-06,1.8822e-05
591,-1.92216e-05,9.45748e-06,2.59006e-05,5.32673e-05,-1.04804e-05,1.93319e-05
592,-2.10877e-05,1.02909e-05,2.11668e-05,5.6455e-05,-1.2022e-05,1.58404e-05
593,-6.92939e-06,1.04757e-05,2.99749e-05,5.95188e-05,-1.0048e-05,1.34454e-05
594,7.30551e-06,9.40602e-06,4.111e-05,6.13121e-05,-8.5947e-06,1.37578e-05
595,9.99524e-06,1.06848e-05,4.52387e-05,5.97898e-05,-7.00075e-06,1.52799e-05
596,2.70954e-06,1.49159e-05,4.32777e-05,5.62492e-05,-5.33428e-06,1.44754e-05
597,-1.54835e-05,1.4202e-05,3.10116e-05,5.60396e-05,-5.49438e-06,1.34907e-05
598,-2.36295e-05,9.86355e-06,1.96805e-05,5.8356e-05,-8.995e-06,1.41076e-05
599,-8.13664e-06,9.56662e-06,2.2632e-05,5.86749e-05,-1.13263e-05,1.15506e-05
600,2.31089e-06,1.18817e-05,3.25326e-05,5.74091e-05,-8.09877e-06,8.24978e-06
601,1.14064e-06,1.46813e-05,4.06276e-05,5.46019e-05,-7.10239e-06,1.00989e-05
602,-3.19566e-07,1.71898e-05,4.29181e-05,5.39143e-05,-1.0794e-05,1.63156e-05
603,-1.7453e-06,1.80316e-05,4.14138e-05,5.46619e-05,-1.21366e-05,1.99986e-05
604,-1.37476e-06,1.60678e-05,3.8905e-05,5.21067e-05,-1.05029e-05,1.98873e-05
605,-1.09565e-05,1.24933e-05,3.5872e-05,5.13533e-05,-9.56341e-06,1.78259e-05
606,-2.42925e-05,9.91627e-06,3.23179e-05,5.57401e-05,-9.47057e-06,1.55599e-05
607,-2.05264e-05,8.29066e-06,3.33566e-05,6.13451e-05,-8.39527e-06,1.34729e-05
608,-4.07227e-06,8.18752e-06,3.99676e-05,6.18373e-05,-7.78716e-06,1.08194e-05
609,3.95134e-06,9.10064e-06,4.4249e-05,5.80411e-05,-8.92005e-06,1.12192e-05
610,-2.07555e-07,1.13115e-05,4.17209e-05,5.29161e-05,-1.04752e-05,1.51159e-05
611,-1.16978e-05,1.35345e-05,3.27814e-05,4.8595e-05,-1.22258e-05,2.04134e-05
612,-2.0412e-05,1.26019e-05,2.4024e-05,4.97451e-05,-1.4302e-05,2.36043e-05
613,-1.65854e-05,9.55085e-06,2.42297e-05,5.54148e-05,-1.54615e-05,2.49761e-05
614,-5.1958e-06,7.03876e-06,3.44661e-05,5.9365e-05,-1.39961e-05,2.52221e-05
615,-3.7848e-07,5.92677e-06,4.27999e-05,5.8055e-05,-1.08936e-05,2.23245e-05
616,-4.87179e-06,6.41001e-06,4.2639e-05,5.35355e-05,-7.5115e-06,1.6081e-05
617,-1.63301e-05,9.91904e-06,3.53285e-05,5.1898e-05,-5.31513e-06,1.06749e-05
618,-3.16098e-05,1.3725e-05,2.36701e-05,5.50167e-05,-5.24213e-06,1.10704e-05
619,-3.36314e-05,1.40616e-05,1.89937e-05,5.90795e-05,-6.76295e-06,1.59043e-05
620,-1.75856e-05,1.31726e-05,3.01528e-05,6.16832e-05,-7.22e-06,1.91021e-05
621,-3.0811e-06,1.10582e-05,4.36129e-05,6.18771e-05,-6.98355e-06,1.79962e-05
622,-3.10917e-06,6.33801e-06,4.69807e-05,5.7984e-05,-9.31012e-06,1.74515e-05
623,-1.39347e-05,2.99385e-06,4.31289e-05,5.02776e-05,-1.26496e-05,1.73301e-05
624,-3.20151e-05,2.81853e-06,3.68441e-05,4.61518e-05,-1.314e-05,1.71389e-05
625,-3.35086e-05,5.21726e-06,3.42539e-05,4.76934e-05,-1.0762e-05,1.81669e-05
626,-1.19372e-05,7.99744e-06,4.04607e-05,5.01845e-05,-7.75182e-06,1.76644e-05
627,-6.87358e-07,6.35929e-06,4.65942e-05,4.93805e-05,-5.59663e-06,1.46371e-05
628,-1.64343e-06,2.90091e-06,4.66827e-05,4.81115e-05,-4.86415e-06,1.19917e-05
629,1.40752e-06,2.03499e-06,4.78124e-05,5.0848e-05,-6.67544e-06,1.27851e-05
630,5.77212e-06,3.62963e-06,4.74881e-05,5.36e-05,-1.09621e-05,1.37027e-05
631,6.62902e-06,7.37349e-06,4.46124e-05,5.10012e-05,-1.15159e-05,1.0627e-05
632,-5.57372e-06,1.16751e-05,3.60127e-05,4.5674e-05,-5.20039e-06,3.35745e-06
633,-1.90778e-05,1.25224e-05,2.38605e-05,4.48012e-05,3.32975e-06,-2.02322e-06
634,-1.4992e-05,8.70704e-06,2.01763e-05,4.48132e-05,6.60116e-06,-1.43371e-06
635,1.55879e-06,6.28057e-06,2.826e-05,4.51824e-05,5.3749e-06,3.11967e-06
636,1.43084e-05,7.13527e-06,3.88075e-05,4.44614e-05,6.61175e-06,6.32529e-06
637,1.81972e-05,9.29407e-06,4.36202e-05,4.24052e-05,8.7091e-06,5.32072e-06
638,9.6203e-06,1.18059e-05,3.96622e-05,4.03985e-05,2.84506e-06,2.23903e-06
639,-3.3624e-06,1.33657e-05,2.96685e-05,4.13013e-05,-9.06084e-06,1.60502e-06
640,-2.87022e-06,1.3228e-05,2.50651e-05,4.52056e-05,-2.12433e-05,7.04988e-06
641,9.91897e-06,1.2213e-05,3.14391e-05,4.79049e-05,-3.14109e-05,1.43929e-05
642,1.71366e-05,1.12218e-05,4.21975e-05,4.73081e-05,-3.57623e-05,1.48916e-05
643,1.16402e-05,1.0771e-05,4.84844e-05,4.34814e-05,-3.01799e-05,5.79775e-06
644,-2.14194e-06,1.17192e-05,4.47128e-05,4.0237e-05,-1.79976e-05,-5.22374e-06
645,-1.70964e-05,1.20222e-05,3.31818e-05,4.23384e-05,-8.59977e-06,-9.6495e-06
646,-1.86627e-05,9.92228e-06,2.81116e-05,4.94796e-05,-6.61669e-06,-5.08527e-06
647,-5.84898e-06,8.19332e-06,3.82179e-05,5.32174e-05,-9.88646e-06,2.54384e-06
648,6.2984e-06,8.43669e-06,5.08966e-05,5.25124e-05,-1.23464e-05,7.29468e-06
649,7.21987e-06,1.08264e-05,5.29462e-05,4.96092e-05,-1.24901e-05,1.09522e-05
650,-3.94043e-06,1.52774e-05,4.48912e-05,4.84055e-05,-1.2348e-05,1.72656e-05
651,-2.46973e-05,1.69135e-05,3.28915e-05,5.1932e-05,-1.22973e-05,2.20585e-05
652,-3.19236e-05,1.59526e-05,3.13757e-05,5.38475e-05,-1.15369e-05,2.2017e-05
653,-1.46186e-05,1.64201e-05,3.98611e-05,5.07089e-05,-1.22193e-05,1.78884e-05
654,-9.74504e-07,1.75586e-05,4.02897e-05,4.92221e-05,-1.37999e-05,1.48087e-05
655,3.44209e-06,1.84278e-05,3.51173e-05,4.81728e-05,-1.29857e-05,1.26807e-05
656,5.90856e-06,1.94951e-05,3.63076e-05,4.748e-05,-1.03977e-05,1.04297e-05
657,2.56713e-06,1.87823e-05,4.09907e-05,4.84406e-05,-1.14167e-05,1.18454e-05
658,-5.02233e-07,1.84858e-05,4.32011e-05,4.88334e-05,-1.49039e-05,1.49236e-05
659,-1.05761e-05,1.95875e-05,3.55596e-05,4.97773e-05,-1.38414e-05,1.67046e-05
660,-2.45215e-05,2.01953e-05,2.59715e-05,5.12319e-05,-8.39102e-06,1.70139e-05
661,-2.30439e-05,2.01031e-05,2.78264e-05,5.14795e-05,-6.157e-06,1.8177e-05
662,-7.82019e-06,1.9933e-05,3.83745e-05,5.13679e-05,-8.78352e-06,2.06537e-05
663,6.94189e-07,1.98032e-05,4.65889e-05,5.15874e-05,-1.18326e-05,2.35411e-05
664,-2.17187e-06,1.81926e-05,4.60672e-05,5.13833e-05,-1.34887e-05,2.41578e-05
665,-1.41654e-05,1.72265e-05,3.71044e-05,4.92479e-05,-1.32391e-05,2.31391e-05
666,-2.6675e-05,1.77255e-05,2.57176e-05,4.69926e-05,-1.05421e-05,2.13848e-05
667,-2.54803e-05,1.7388e-05,2.44593e-05,4.82941e-05,-7.76173e-06,2.01957e-05
668,-9.43779e-06,1.3236e-05,3.46555e-05,5.09319e-05,-8.43342e-06,2.00895e-05
669,4.58266e-06,7.12607e-06,4.40493e-05,5.23949e-05,-1.14725e-05,2.00688e-05
670,4.41298e-06,5.83764e-06,4.61769e-05,5.20698e-05,-1.46093e-05,1.90299e-05
671,-7.47204e-06,1.18147e-05,4.16226e-05,5.14421e-05,-1.78556e-05,1.79599e-05
672,-2.16937e-05,1.80372e-05,3.21187e-05,5.39362e-05,-1.99706e-05,1.93746e-05
673,-2.07628e-05,1.8094e-05,2.90464e-05,5.85049e-05,-1.78208e-05,2.3563e-05
674,-3.97273e-06,1.45712e-05,3.69355e-05,5.90593e-05,-1.25116e-05,2.83943e-05
675,9.81013e-06,1.27284e-05,4.18294e-05,5.70897e-05,-8.54966e-06,3.10627e-05
676,9.56805e-06,1.31599e-05,3.90099e-05,5.38674e-05,-7.56012e-06,3.0914e-05
677,-8.1057e-07,1.52425e-05,3.64497e-05,5.04808e-05,-7.33633e-06,2.59631e-05
678,-1.87476e-05,1.56023e-05,3.04808e-05,5.15933e-05,-8.15799e-06,1.9365e-05
679,-2.27588e-05,1.41615e-05,2.42592e-05,5.41794e-05,-9.27071e-06,1.74316e-05
680,-2.37285e-06,1.64763e-05,2.57179e-05,5.48406e-05,-8.58563e-06,2.01498e-05
681,1.27407e-05,1.70308e-05,2.79419e-05,5.17986e-05,-9.14054e-06,2.22483e-05
682,1.2986e-05,1.44064e-05,2.87053e-05,4.72961e-05,-1.1498e-05,2.1048e-05
683,4.9336e-06,1.43633e-05,3.37065e-05,4.45779e-05,-1.42286e-05,1.84217e-05
684,-4.76469e-06,1.49919e-05,3.89656e-05,4.33982e-05,-1.7046e-05,1.62085e-05
685,-8.37453e-06,1.67569e-05,4.24146e-05,4.32944e-05,-1.77559e-05,1.17947e-05
686,-1.59533e-05,1.91552e-05,4.01179e-05,4.49756e-05,-1.40757e-05,4.24665e-06
687,-2.57724e-05,1.89877e-05,3.24555e-05,5.02057e-05,-8.90823e-06,-5.09582e-07
688,-2.3495e-05,1.60524e-05,3.37145e-05,5.336e-05,-7.64991e-06,-2.13013e-07
689,-8.21293e-06,1.20043e-05,4.31055e-05,5.41884e-05,-8.22566e-06,2.90682e-06
690,1.18114e-06,1.05284e-05,5.01665e-05,5.18927e-05,-9.05928e-06,6.57503e-06
691,4.06878e-07,1.16396e-05,5.12356e-05,4.74635e-05,-1.14755e-05,8.03065e-06
692,-7.95598e-06,1.2687e-05,4.45854e-05,4.53398e-05,-1.49329e-05,6.50063e-06
693,-1.83165e-05,1.18813e-05,3.2546e-05,4.63618e-05,-1.72463e-05,4.75369e-06
694,-2.00019e-05,8.42162e-06,2.86583e-05,4.78714e-05,-1.60232e-05,5.0742e-06
695,-1.04283e-05,4.1747e-06,3.74539e-05,4.80607e-05,-1.17581e-05,6.12785e-06
696,-3.76142e-07,2.14172e-06,4.71884e-05,4.89147e-05,-8.55756e-06,7.86133e-06
697,9.0145e-07,2.38723e-06,4.97064e-05,4.99187e-05,-8.01792e-06,1.1902e-05
698,-7.87161e-06,3.42988e-06,4.56855e-05,5.13145e-05,-7.44075e-06,1.71745e-05
699,-2.09851e-05,3.82258e-06,3.96822e-05,5.52375e-05,-4.8882e-06,1.90023e-05
700,-2.15583e-05,3.64082e-06,3.89946e-05,5.94289e-05,-2.61099e-06,1.59427e-05
701,-7.21213e-06,3.10085e-06,4.63438e-05,5.78769e-05,-2.13026e-06,1.19949e-05
702,5.43508e-06,3.58754e-06,5.17214e-05,5.45405e-05,-2.45669e-06,1.06521e-05
703,6.06586e-06,6.92901e-06,4.84034e-05,5.21268e-05,-1.23438e-06,1.10701e-05
704,-1.97865e-06,1.07846e-05,3.84799e-05,5.22741e-05,1.63686e-06,1.09771e-05
705,-1.91938e-05,1.30797e-05,2.48389e-05,5.6591e-05,4.08669e-06,1.39076e-05
706,-2.51678e-05,1.38284e-05,1.98118e-05,6.02707e-05,5.75486e-06,1.81504e-05
707,-7.04339e-06,1.65692e-05,3.0228e-05,5.79116e-05,5.04314e-06,1.65526e-05
708,8.26135e-06,2.03066e-05,3.83168e-05,5.36277e-05,7.09349e-07,1.26187e-05
709,1.13477e-05,2.09783e-05,4.12017e-05,5.49934e-05,-2.64255e-06,1.1868e-05
710,1.1328e-05,2.00082e-05,4.71893e-05,5.63832e-05,-3.10863e-07,1.7392e-05
711,9.06327e-06,1.96382e-05,4.99084e-05,5.5043e-05,3.19124e-06,2.50726e-05
712,8.99513e-06,2.07688e-05,4.82947e-05,5.20056e-05,6.05544e-06,2.81455e-05
713,1.7958e-06,2.07262e-05,3.96323e-05,4.78073e-05,6.15007e-06,2.49268e-05
714,-1.20772e-05,1.69153e-05,2.75011e-05,4.8409e-05,5.1767e-06,1.59712e-05
715,-1.23651e-05,1.23681e-05,2.41421e-05,5.46247e-05,5.51392e-06,5.13819e-06
716,1.52691e-06,1.35227e-05,3.06858e-05,5.96827e-05,2.91576e-06,-2.38449e-06
717,1.12031e-05,1.95453e-05,3.55537e-05,5.61301e-05,-6.44792e-06,-2.27149e-06
718,1.20065e-05,2.4489e-05,3.59065e-05,4.67513e-05,-2.21278e-05,3.01663e-06
719,2.85591e-06,2.55582e-05,3.34387e-05,4.03677e-05,-4.03552e-05,7.88803e-06
720,-9.57699e-06,2.16241e-05,2.97008e-05,4.3168e-05,-5.2269e-05,1.01983e-05
721,-1.19309e-05,1.55713e-05,3.02793e-05,5.04575e-05,-4.85799e-05,1.20492e-05
722,-3.18909e-06,1.29403e-05,3.57022e-05,5.49458e-05,-2.95742e-05,1.26181e-05
723,5.28605e-06,1.47419e-05,4.08529e-05,5.39507e-05,-5.37634e-06,1.13889e-05
724,7.50966e-06,1.74815e-05,4.31599e-05,5.01533e-05,1.1718e-05,1.09166e-05
725,3.00344e-06,1.93247e-05,4.15324e-05,4.75648e-05,1.63472e-05,1.37304e-05
726,-6.30161e-06,2.12584e-05,3.32912e-05,4.92369e-05,6.82822e-06,1.76539e-05
727,-6.56571e-06,2.21254e-05,2.74678e-05,5.43655e-05,-1.32764e-05,2.07014e-05
728,7.24136e-06,1.84093e-05,3.2787e-05,5.70912e-05,-3.16136e-05,2.31298e-05
729,1.75476e-05,1.13553e-05,4.04792e-05,5.68615e-05,-3.158e-05,2.3874e-05
730,1.52424e-05,7.70022e-06,4.13542e-05,5.42373e-05,-1.41387e-05,2.3273e-05
731,6.34501e-06,1.05869e-05,3.64193e-05,4.95318e-05,2.17564e-06,2.32036e-05
732,-1.15694e-05,1.28099e-05,2.80721e-05,4.99972e-05,5.33848e-06,2.36767e-05
733,-1.8618e-05,1.08757e-05,3.0124e-05,5.68433e-05,8.22042e-07,2.22506e-05
734,-5.10839e-06,8.49508e-06,4.36752e-05,6.02603e-05,-2.92841e-06,1.74618e-05
735,1.07671e-06,8.03579e-06,4.60552e-05,5.77295e-05,-3.74659e-06,1.34343e-05
736,-2.09235e-06,1.07054e-05,4.00004e-05,5.56478e-05,-4.16815e-06,1.51844e-05
737,-1.49208e-07,1.18484e-05,4.01451e-05,5.80535e-05,-8.29544e-06,2.03929e-05
738,5.87965e-07,1.02867e-05,4.09214e-05,6.0092e-05,-1.24586e-05,2.40581e-05
739,-1.65285e-06,1.0873e-05,3.85311e-05,5.56926e-05,-1.16999e-05,2.463e-05
740,-1.17912e-05,1.24122e-05,3.01944e-05,4.78495e-05,-1.11908e-05,2.81027e-05
741,-2.43647e-05,1.10257e-05,2.17278e-05,4.72721e-05,-1.32757e-05,3.29673e-05
742,-2.00549e-05,9.04032e-06,2.29732e-05,5.14177e-05,-1.32901e-05,3.34798e-05
743,-2.42587e-06,1.06198e-05,3.29456e-05,5.44395e-05,-8.71919e-06,2.76605e-05
744,7.22622e-06,1.35085e-05,3.95007e-05,5.37723e-05,-3.44189e-06,1.9598e-05
745,3.50992e-06,1.47821e-05,3.74349e-05,5.13878e-05,-1.03681e-06,1.42849e-05
746,-9.37041e-06,1.48797e-05,2.69959e-05,5.02466e-05,3.88466e-07,1.26386e-05
747,-2.16711e-05,1.41711e-05,1.48768e-05,5.17246e-05,1.65413e-06,1.34443e-05
748,-2.06401e-05,1.33733e-05,1.60772e-05,5.46726e-05,3.80936e-06,1.35022e-05
749,-7.59974e-06,1.36845e-05,2.95642e-05,5.55141e-05,5.75438e-06,1.26952e-05
750,3.03141e-06,1.58197e-05,3.82174e-05,5.4991e-05,5.25847e-06,1.21883e-05
751,3.52232e-06,1.82844e-05,3.39564e-05,5.4649e-05,5.94654e-07,1.22863e-05
752,-5.52165e-06,1.88354e-05,2.54734e-05,5.47615e-05,-5.28248e-06,1.19083e-05
753,-1.83569e-05,1.62181e-05,1.91984e-05,5.43689e-05,-8.08954e-06,1.1264e-05
754,-1.88939e-05,1.26491e-05,2.14205e-05,5.35732e-05,-7.72747e-06,1.01988e-05
755,-6.09944e-06,1.10123e-05,3.36022e-05,5.20715e-05,-7.67939e-06,1.0127e-05
756,2.07827e-06,9.27867e-06,4.71476e-05,5.11813e-05,-9.10959e-06,1.19461e-05
757,-4.31682e-07,5.71492e-06,5.08854e-05,4.98537e-05,-1.1121e-05,1.30727e-05
758,-1.01445e-05,4.19762e-06,4.36285e-05,4.69482e-05,-1.20221e-05,1.21428e-05
759,-2.8388e-05,7.34542e-06,3.21271e-05,4.48704e-05,-1.12814e-05,8.76593e-06
760,-3.35351e-05,9.19608e-06,3.02194e-05,4.94841e-05,-1.06943e-05,6.84961e-06
761,-1.46687e-05,9.42106e-06,4.04019e-05,5.88375e-05,-9.50879e-06,8.97032e-06
762,-2.67834e-06,1.29343e-05,4.63628e-05,6.03834e-05,-7.40253e-06,9.28636e-06
763,-1.00519e-06,1.58167e-05,4.45797e-05,5.38156e-05,-5.29596e-06,7.84605e-06
764,3.37194e-06,1.71069e-05,4.43223e-05,5.06535e-05,-5.15853e-06,7.32981e-06
765,3.07287e-06,1.53987e-05,4.24975e-05,5.16804e-05,-4.5188e-06,9.00777e-06
766,-1.46826e-06,1.09391e-05,3.64953e-05,5.31887e-05,-3.14596e-06,1.272e-05
767,-1.45777e-05,7.55763e-06,2.80154e-05,5.33923e-05,-2.561e-06,1.71571e-05
768,-2.85215e-05,5.29732e-06,2.09941e-05,5.38679e-05,-4.22985e-06,1.90763e-05
769,-2.52844e-05,6.13595e-06,2.28935e-05,5.40616e-05,-8.42328e-06,1.73303e-05
770,-6.98294e-06,8.57758e-06,3.18552e-05,5.39746e-05,-1.16444e-05,1.70185e-05
771,7.4486e-06,1.00873e-05,3.98193e-05,5.35012e-05,-1.39147e-05,2.31857e-05
772,1.09314e-05,9.28947e-06,4.13926e-05,5.17708e-05,-1.47468e-05,3.25606e-05
773,2.58038e-06,7.89427e-06,3.25466e-05,4.95146e-05,-1.29871e-05,3.28014e-05
774,-8.16227e-06,7.76671e-06,1.93682e-05,4.91331e-05,-9.25767e-06,1.826e-05
775,-4.57089e-06,8.47357e-06,1.78119e-05,5.08966e-05,-5.46366e-06,-4.10433e-06
776,1.13275e-05,7.95643e-06,2.91635e-05,5.05043e-05,-2.5645e-06,-2.01217e-05
777,2.03976e-05,6.03524e-06,3.931e-05,4.71234e-05,-7.78428e-07,-2.25118e-05
778,1.48254e-05,5.2892e-06,3.9992e-05,4.22624e-05,-2.03877e-08,-1.31778e-05
779,2.54847e-06,8.21783e-06,3.40855e-05,4.05396e-05,1.02896e-07,-5.31629e-07
780,-8.57904e-06,1.13265e-05,2.7315e-05,4.66705e-05,7.91443e-07,7.63289e-06
781,-4.79036e-06,1.00847e-05,2.74592e-05,5.61525e-05,2.00208e-06,1.12433e-05
782,1.2366e-05,8.68521e-06,3.61967e-05,5.99614e-05,3.31625e-07,1.12081e-05
783,2.3665e-05,1.17739e-05,4.51786e-05,5.91643e-05,-5.75787e-06,1.02708e-05
784,2.00374e-05,1.49323e-05,4.89007e-05,5.57629e-05,-1.38578e-05,1.40683e-05
785,6.94914e-06,1.39179e-05,4.65412e-05,5.21646e-05,-1.79945e-05,1.8141e-05
786,-1.17784e-05,1.19482e-05,3.52234e-05,5.31414e-05,-1.59892e-05,1.64218e-05
787,-1.68447e-05,1.19024e-05,2.51793e-05,5.64732e-05,-1.27288e-05,1.42664e-05
788,-2.69083e-06,1.46746e-05,3.14102e-05,5.52609e-05,-1.0997e-05,1.3362e-05
789,5.31821e-06,1.76864e-05,4.08404e-05,5.00466e-05,-1.0175e-05,8.62727e-06
790,6.88286e-06,1.95375e-05,4.42207e-05,4.74554e-05,-1.04809e-05,1.21376e-06
791,8.69824e-06,1.86323e-05,4.75213e-05,4.8044e-05,-1.4112e-05,-1.30943e-06
792,6.72116e-06,1.57417e-05,4.83984e-05,4.81352e-05,-1.82956e-05,3.96361e-06
793,2.3767e-06,1.39825e-05,5.02046e-05,4.60025e-05,-1.8506e-05,1.1388e-05
794,-8.96433e-06,1.23244e-05,4.63416e-05,4.53952e-05,-1.65682e-05,1.45237e-05
795,-2.07639e-05,1.06243e-05,3.60494e-05,4.90677e-05,-1.32994e-05,1.10981e-05
796,-1.71736e-05,1.18512e-05,3.44744e-05,5.22649e-05,-9.34253e-06,7.14543e-06
797,5.51339e-07,1.3632e-05,4.67046e-05,5.30029e-05,-5.91658e-06,6.38624e-06
798,1.25094e-05,1.3801e-05,5.69084e-05,4.92307e-05,-2.37047e-06,7.30978e-06
799,1.29247e-05,1.4779e-05,5.17964e-05,4.37479e-05,-1.4133e-06,9.20373e-06
800,2.36906e-06,1.83025e-05,3.78286e-05,4.14707e-05,-4.75389e-06,1.22072e-05
801,-1.17823e-05,1.94714e-05,2.91936e-05,4.4248e-05,-9.1162e-06,1.63868e-05
802,-1.32264e-05,1.63287e-05,3.39572e-05,4.98701e-05,-1.09607e-05,1.93975e-05
803,-1.15146e-06,1.38912e-05,4.67837e-05,5.4558e-05,-1.13136e-05,1.92477e-05
804,7.65712e-06,1.43443e-05,5.6246e-05,5.59836e-05,-1.2615e-05,1.61032e-05
805,5.197e-06,1.56758e-05,5.58332e-05,5.21727e-05,-1.39591e-05,1.42374e-05
806,-4.15409e-06,1.63525e-05,4.68767e-05,4.79809e-05,-1.52059e-05,1.54445e-05
807,-1.60467e-05,1.62007e-05,3.52764e-05,5.0208e-05,-1.84367e-05,1.69269e-05
808,-1.69752e-05,1.47999e-05,3.28755e-05,5.59889e-05,-2.30243e-05,1.49902e-05
809,-3.44717e-06,1.23254e-05,4.07985e-05,5.69956e-05,-2.41371e-05,1.05715e-05
810,6.22355e-06,1.01905e-05,4.70031e-05,5.37545e-05,-1.88243e-05,6.42057e-06
811,2.55422e-06,1.15871e-05,4.83511e-05,4.99847e-05,-1.15186e-05,6.49397e-06
812,-7.40937e-06,1.40191e-05,4.61177e-05,4.91359e-05,-8.28095e-06,1.11e-05
813,-2.09117e-05,1.54381e-05,3.39063e-05,5.38879e-05,-7.75637e-06,1.54284e-05
814,-2.11435e-05,1.55594e-05,2.58156e-05,6.21941e-05,-7.45089e-06,1.80736e-05
815,-5.01928e-06,1.35789e-05,3.50888e-05,6.61249e-05,-5.71873e-06,2.1233e-05
816,9.23753e-07,1.12476e-05,4.14076e-05,6.15785e-05,-3.5024e-06,2.37988e-05
817,-2.97704e-06,1.52555e-05,3.88385e-05,5.35253e-05,-1.5917e-06,2.26889e-05
818,-3.9084e-06,2.19336e-05,4.40287e-05,4.93307e-05,2.94905e-07,2.14328e-05
819,-3.94363e-06,2.29524e-05,5.39383e-05,4.88604e-05,2.78356e-06,2.28373e-05
820,-6.3137e-06,2.16834e-05,5.63246e-05,4.74367e-05,3.06063e-06,2.36844e-05
821,-2.04679e-05,2.34598e-05,4.71937e-05,4.67929e-05,-2.1994e-06,2.3287e-05
822,-3.88792e-05,2.46409e-05,3.51702e-05,4.98246e-05,-5.01519e-06,2.28468e-05
823,-3.92558e-05,2.03491e-05,3.33056e-05,5.21903e-05,-6.44839e-07,2.1851e-05
824,-2.41419e-05,1.68476e-05,4.11493e-05,5.21464e-05,3.99443e-06,1.90841e-05
825,-1.41176e-05,1.74264e-05,4.64989e-05,4.92101e-05,-2.07896e-06,1.48066e-05
826,-1.43107e-05,1.98527e-05,4.38601e-05,4.5207e-05,-1.51437e-05,1.15007e-05
827,-2.40485e-05,2.06314e-05,3.45186e-05,4.31621e-05,-2.57387e-05,1.00017e-05
828,-3.41601e-05,1.92145e-05,2.36204e-05,4.4751e-05,-3.17532e-05,8.24217e-06
829,-3.19181e-05,1.94811e-05,2.02318e-05,4.83959e-05,-3.29586e-05,5.85719e-06
830,-1.84846e-05,2.32494e-05,2.92587e-05,5.22624e-05,-2.85757e-05,4.72543e-06
831,-8.66603e-06,2.55528e-05,4.18551e-05,5.56499e-05,-2.03893e-05,4.40872e-06
832,-1.13721e-05,2.23798e-05,4.60215e-05,5.53109e-05,-1.35185e-05,6.15191e-06
833,-2.40201e-05,1.76267e-05,3.94413e-05,5.17397e-05,-1.15192e-05,1.15817e-05
834,-3.68315e-05,1.43829e-05,2.72513e-05,5.00899e-05,-1.32119e-05,1.72917e-05
835,-3.33425e-05,1.4178e-05,2.21745e-05,5.14389e-05,-1.4704e-05,1.69135e-05
836,-1.40673e-05,1.58813e-05,2.81352e-05,5.12849e-05,-1.37549e-05,1.22546e-05
837,9.37799e-07,1.76175e-05,3.50962e-05,5.1252e-05,-1.30954e-05,1.04213e-05
838,3.03163e-07,1.77669e-05,3.74369e-05,4.99653e-05,-1.50406e-05,1.08938e-05
839,-1.07385e-05,1.69897e-05,3.49116e-05,4.77219e-05,-1.64521e-05,8.06302e-06
840,-2.79273e-05,1.68004e-05,2.41986e-05,5.1247e-05,-1.4571e-05,3.80899e-06
841,-3.31013e-05,1.61037e-05,1.59703e-05,5.66843e-05,-9.84901e-06,2.60223e-06
842,-1.40571e-05,1.37647e-05,2.28545e-05,5.75951e-05,-7.22435e-06,6.5374e-06
843,3.11227e-06,1.09681e-05,3.25991e-05,5.89733e-05,-9.08776e-06,1.22656e-05
844,4.48276e-06,9.06194e-06,3.64618e-05,6.26046e-05,-1.12624e-05,1.40946e-05
845,1.97351e-06,6.39315e-06,4.05807e-05,6.59428e-05,-9.92423e-06,1.37956e-05
846,1.66631e-07,5.4784e-06,4.05528e-05,6.80356e-05,-9.65559e-06,1.66228e-05
847,4.25753e-07,7.55194e-06,3.73777e-05,6.62297e-05,-9.19719e-06,2.16733e-05
848,-7.6776e-06,8.03448e-06,3.16414e-05,6.02891e-05,-8.68411e-06,2.37768e-05
849,-2.11986e-05,5.61033e-06,2.31852e-05,5.66573e-05,-1.00794e-05,2.29105e-05
850,-1.84114e-05,3.26523e-06,2.24305e-05,5.88812e-05,-1.25738e-05,1.98667e-05
851,5.94235e-07,2.77277e-06,3.18915e-05,6.33143e-05,-1.43761e-05,1.66997e-05
852,1.38534e-05,5.35194e-06,4.09441e-05,6.51595e-05,-1.31585e-05,1.33644e-05
853,1.33129e-05,9.66011e-06,4.19773e-05,6.1939e-05,-9.74095e-06,1.30715e-05
854,-4.90172e-07,1.30399e-05,3.40152e-05,5.53692e-05,-5.35714e-06,1.86631e-05
855,-1.7473e-05,1.41132e-05,2.31021e-05,5.28828e-05,-2.97509e-06,2.82483e-05
856,-1.93318e-05,1.54773e-05,2.08005e-05,5.58241e-05,-4.77802e-06,3.51012e-05
857,-4.39556e-06,1.77129e-05,3.06009e-05,5.80587e-05,-8.36632e-06,3.44482e-05
858,8.50679e-06,1.83385e-05,4.25542e-05,5.54005e-05,-9.36392e-06,3.08941e-05
859,5.33976e-06,1.72566e-05,4.77948e-05,4.94243e-05,-8.08236e-06,2.94271e-05
860,-1.11238e-05,1.43559e-05,4.51618e-05,4.54636e-05,-6.33411e-06,2.85015e-05
861,-2.88683e-05,1.02083e-05,3.81322e-05,4.64127e-05,-3.85856e-06,2.33977e-05
862,-2.93458e-05,6.53119e-06,3.64038e-05,5.0292e-05,-7.59245e-09,1.76456e-05
863,-1.33734e-05,8.31754e-06,4.28682e-05,5.30502e-05,2.08487e-07,1.88046e-05
864,-2.35112e-06,1.23393e-05,4.8992e-05,5.23803e-05,-4.61948e-06,2.29975e-05
865,-5.39637e-06,1.27946e-05,4.87261e-05,4.96388e-05,-1.00048e-05,1.8904e-05
866,-1.63234e-05,1.40399e-05,4.37123e-05,4.84016e-05,-1.07886e-05,8.8848e-06
867,-3.09832e-05,1.73576e-05,3.36134e-05,4.96169e-05,-8.46108e-06,5.10693e-09
868,-3.10743e-05,1.92395e-05,2.82523e-05,5.21135e-05,-5.00147e-06,-4.98592e-06
869,-1.12296e-05,1.77679e-05,3.43537e-05,5.31085e-05,-6.34848e-08,-3.34089e-06
870,-2.18343e-06,1.34167e-05,3.87124e-05,5.18823e-05,-1.18495e-07,5.10612e-06
871,-4.2969e-06,1.17018e-05,3.90073e-05,5.08728e-05,-4.28571e-06,1.31602e-05
872,-1.46362e-06,1.36417e-05,3.96977e-05,5.25991e-05,-6.95786e-06,1.24156e-05
873,-6.47923e-07,1.40103e-05,4.18804e-05,5.39586e-05,-5.66769e-06,8.55825e-06
874,-3.3671e-06,1.43977e-05,4.888e-05,5.13929e-05,9.27677e-08,8.31906e-06
875,-1.41394e-05,1.64727e-05,4.77936e-05,4.77022e-05,5.39246e-06,9.53593e-06
876,-2.53172e-05,1.66262e-05,3.59518e-05,4.83003e-05,7.74345e-06,1.07644e-05
877,-2.01829e-05,1.44024e-05,3.15012e-05,5.05502e-05,7.44429e-06,9.79639e-06
878,-3.85721e-06,1.22542e-05,3.8148e-05,5.13979e-05,4.23301e-06,8.61211e-06
879,5.14058e-06,1.17602e-05,4.48756e-05,4.9814e-05,-3.41768e-06,8.81559e-06
880,3.8493e-06,1.30889e-05,4.70091e-05,4.67854e-05,-1.1598e-05,1.04808e-05
881,-6.79296e-06,1.53304e-05,4.21435e-05,4.51296e-05,-1.62857e-05,1.174e-05
882,-2.05657e-05,1.53613e-05,3.31368e-05,4.62091e-05,-1.91076e-05,1.17272e-05
883,-2.26132e-05,1.29759e-05,3.21295e-05,4.89934e-05,-2.09732e-05,1.31096e-05
884,-1.06283e-05,9.93412e-06,4.23356e-05,5.05369e-05,-1.88457e-05,1.75184e-05
885,9.51509e-07,8.86873e-06,5.2103e-05,4.96113e-05,-1.2455e-05,2.14603e-05
886,2.55143e-06,1.22978e-05,5.35548e-05,4.62351e-05,-4.54708e-06,2.03001e-05
887,-6.32768e-06,1.80533e-05,4.55652e-05,4.3018e-05,3.66962e-06,1.60168e-05
888,-2.09563e-05,1.93206e-05,3.07669e-05,4.42268e-05,8.8999e-06,1.24084e-05
889,-2.30603e-05,1.33936e-05,2.38177e-05,4.79465e-05,7.79265e-06,1.07927e-05
890,-6.347e-06,4.5807e-06,3.11776e-05,4.91564e-05,3.02951e-06,1.11511e-05
891,8.88247e-06,-4.33359e-08,4.06492e-05,4.98795e-05,2.41771e-06,1.1531e-05
892,7.28926e-06,1.82326e-06,4.32731e-05,4.8248e-05,5.57496e-06,9.54617e-06
893,-6.57781e-06,3.74915e-06,3.97667e-05,4.38848e-05,2.6558e-07,8.84326e-06
894,-2.67373e-05,2.21474e-06,3.1708e-05,4.27173e-05,-2.2142e-05,1.0564e-05
895,-3.08871e-05,3.50263e-06,2.91065e-05,4.72224e-05,-5.04073e-05,1.29088e-05
896,-1.31201e-05,9.74332e-06,3.55128e-05,5.44003e-05,-6.67001e-05,1.6902e-05
897,-4.30849e-06,8.92779e-06,3.72711e-05,5.68496e-05,-6.38169e-05,2.17294e-05
898,-6.18177e-06,4.42665e-06,3.48251e-05,5.59163e-05,-4.89579e-05,2.31911e-05
899,-2.78803e-06,1.11367e-06,3.58063e-05,5.57549e-05,-3.29137e-05,2.00773e-05
900,1.74308e-06,-1.09306e-06,3.86726e-05,5.39742e-05,-2.31835e-05,1.51457e-05
901,4.30401e-07,1.33317e-06,4.04107e-05,5.1775e-05,-2.01878e-05,1.50053e-05
902,-1.28257e-05,5.00673e-06,3.56209e-05,5.3062e-05,-1.61605e-05,1.69773e-05
903,-2.54179e-05,6.94612e-06,2.6819e-05,5.84809e-05,1.88462e-07,1.57539e-05
904,-1.73089e-05,5.80081e-06,2.60456e-05,5.98325e-05,2.89772e-05,1.17605e-05
905,5.50011e-06,5.8493e-06,3.43334e-05,5.597e-05,5.55057e-05,8.08059e-06
906,1.89769e-05,7.57694e-06,3.83604e-05,5.08011e-05,6.43286e-05,6.33835e-06
907,1.90955e-05,1.08162e-05,3.5626e-05,4.80774e-05,4.63702e-05,6.79079e-06
908,8.13378e-06,1.2512e-05,3.01644e-05,4.84752e-05,1.09859e-05,1.02052e-05
909,-4.24398e-06,1.05781e-05,2.50195e-05,5.21253e-05,-1.83562e-05,1.37788e-05
910,-2.194e-06,8.039e-06,2.7546e-05,5.9435e-05,-2.43384e-05,1.51314e-05
911,1.23868e-05,8.09468e-06,3.91972e-05,6.44997e-05,-1.13661e-05,1.50158e-05
912,2.21855e-05,9.0581e-06,4.69512e-05,6.31893e-05,2.86222e-06,1.44084e-05
913,1.99961e-05,9.91985e-06,4.44684e-05,5.68037e-05,6.4265e-06,1.24421e-05
914,1.01479e-05,1.26005e-05,3.59909e-05,5.05423e-05,8.52393e-07,1.09325e-05
915,-3.3339e-06,1.45367e-05,2.46324e-05,4.87655e-05,-4.70415e-06,1.27108e-05
916,-7.8936e-06,1.43485e-05,1.99477e-05,5.16806e-05,-7.12312e-06,1.70707e-05
917,2.51198e-06,1.39739e-05,2.88139e-05,5.41846e-05,-7.70975e-06,2.02584e-05
918,1.59328e-05,1.54888e-05,3.89633e-05,5.43637e-05,-5.76523e-06,2.08611e-05
919,1.77474e-05,1.88892e-05,4.062e-05,5.14436e-05,-3.64901e-06,1.98666e-05
920,5.76706e-06,2.29121e-05,3.53777e-05,4.69171e-05,-4.8702e-06,2.00124e-05
921,-1.56814e-05,2.45026e-05,2.57341e-05,4.65679e-05,-8.53866e-06,2.04813e-05
922,-1.94749e-05,2.22145e-05,2.3379e-05,5.12349e-05,-9.44225e-06,1.80983e-05
923,3.82333e-07,1.934e-05,3.55096e-05,5.71102e-05,-7.92115e-06,1.68683e-05
924,1.02386e-05,2.11757e-05,4.2893e-05,5.91822e-05,-7.34895e-06,1.72213e-05
925,1.00207e-05,2.32061e-05,4.13937e-05,5.61105e-05,-8.31703e-06,1.62143e-05
926,1.37422e-05,2.05621e-05,4.2905e-05,5.53574e-05,-1.07655e-05,1.73154e-05
927,1.62002e-05,1.52718e-05,4.34196e-05,5.51431e-05,-1.32652e-05,1.96956e-05
928,1.50778e-05,1.46709e-05,4.32445e-05,5.03991e-05,-1.53997e-05,1.97232e-05
929,3.7525e-06,1.87823e-05,3.86977e-05,4.53162e-05,-1.74376e-05,1.58486e-05
930,-1.1024e-05,2.24112e-05,3.23022e-05,4.53176e-05,-2.07403e-05,1.18522e-05
931,-9.98988e-06,2.28824e-05,3.28898e-05,4.89862e-05,-2.18882e-05,1.11042e-05
932,5.0527e-06,2.05146e-05,4.15917e-05,5.08491e-05,-2.02158e-05,1.26777e-05
933,1.43395e-05,1.68648e-05,4.92177e-05,4.94947e-05,-1.77088e-05,1.37353e-05
934,1.40689e-05,1.30437e-05,5.20292e-05,4.66724e-05,-1.57595e-05,1.31798e-05
935,4.11884e-06,1.29804e-05,4.50713e-05,4.36957e-05,-1.48233e-05,1.10822e-05
936,-8.37946e-06,1.58058e-05,3.19551e-05,4.45043e-05,-1.35681e-05,8.59896e-06
937,-9.08052e-06,1.60162e-05,2.56178e-05,5.00106e-05,-1.15762e-05,6.50302e-06
938,1.5199e-06,1.33393e-05,2.9959e-05,5.45034e-05,-9.9181e-06,6.52347e-06
939,9.21758e-06,1.30243e-05,3.74287e-05,5.3567e-05,-1.06717e-05,8.10931e-06
940,7.775e-06,1.63178e-05,4.06989e-05,4.94233e-05,-1.45035e-05,1.00208e-05
941,-1.12973e-06,2.0705e-05,3.76461e-05,4.77803e-05,-1.88871e-05,1.17713e-05
942,-1.3971e-05,2.24691e-05,2.67704e-05,5.02657e-05,-1.90997e-05,1.05782e-05
943,-1.49123e-05,2.00792e-05,2.07735e-05,5.3604e-05,-1.48676e-05,8.86324e-06
944,-2.35059e-06,1.48392e-05,2.99824e-05,5.53083e-05,-1.07162e-05,1.09955e-05
945,6.38268e-06,1.08486e-05,4.27517e-05,5.66896e-05,-1.07416e-05,1.5145e-05
946,3.58303e-06,1.2751e-05,4.51535e-05,5.48341e-05,-1.28988e-05,1.72827e-05
947,-6.07783e-06,1.74557e-05,4.01197e-05,4.90094e-05,-1.38169e-05,2.09007e-05
948,-2.38373e-05,1.78251e-05,2.9387e-05,4.56228e-05,-1.21537e-05,2.67055e-05
949,-3.061e-05,1.50705e-05,2.39156e-05,4.78832e-05,-8.08936e-06,3.16764e-05
950,-1.24018e-05,1.69292e-05,3.14696e-05,5.26258e-05,-1.18321e-06,3.63337e-05
951,-7.88165e-07,2.02042e-05,3.73211e-05,5.19034e-05,1.02824e-08,3.76642e-05
952,-2.7206e-06,1.7473e-05,3.67045e-05,4.96623e-05,-5.86822e-06,3.11075e-05
953,-1.63388e-06,1.21009e-05,3.91218e-05,5.19917e-05,-8.25561e-06,2.17767e-05
954,4.52773e-08,7.75877e-06,4.04866e-05,5.21257e-05,-6.50119e-06,1.71257e-05
955,-1.58827e-06,7.78699e-06,3.70656e-05,4.79093e-05,-3.12125e-06,1.82302e-05
956,-1.57261e-05,9.67807e-06,2.77229e-05,4.26244e-05,-1.32142e-06,1.97769e-05
957,-3.19803e-05,1.01348e-05,1.99959e-05,4.39292e-05,-1.51109e-06,1.88719e-05
958,-2.81378e-05,8.96877e-06,2.25276e-05,4.83898e-05,-1.92765e-06,1.5759e-05
959,-8.51818e-06,7.03084e-06,2.94436e-05,5.18646e-05,-4.05657e-06,1.21165e-05
960,4.49301e-06,3.41957e-06,3.19213e-05,5.12658e-05,-7.25283e-06,1.04255e-05
961,3.59687e-06,3.02317e-06,3.19485e-05,4.74602e-05,-9.44377e-06,1.16358e-05
962,-1.0529e-05,8.87742e-06,2.94604e-05,4.51606e-05,-1.07202e-05,1.36669e-05
963,-2.55504e-05,1.49127e-05,2.47619e-05,4.75949e-05,-1.04257e-05,1.46683e-05
964,-2.30143e-05,1.71818e-05,2.73238e-05,5.22666e-05,-8.69321e-06,1.34143e-05
965,-3.36531e-06,1.6851e-05,3.90813e-05,5.45887e-05,-7.22841e-06,1.21072e-05
966,1.08683e-05,1.78994e-05,4.7446e-05,5.55043e-05,-7.4614e-06,1.16211e-05
967,7.71338e-06,1.93521e-05,4.3287e-05,5.47353e-05,-8.97731e-06,1.15121e-05
968,-5.61754e-06,1.8172e-05,3.30142e-05,5.40775e-05,-7.65363e-06,1.26513e-05
969,-1.95245e-05,1.26641e-05,2.54054e-05,5.59627e-05,-1.50634e-06,1.49752e-05
970,-2.15189e-05,7.4774e-06,2.89648e-05,6.06372e-05,4.82989e-06,1.54767e-05
971,-1.00172e-05,5.16918e-06,4.1478e-05,6.39968e-05,6.206e-06,1.13041e-05
972,1.56582e-06,5.95584e-06,4.77419e-05,6.40159e-05,3.86961e-06,6.41334e-06
973,2.98852e-06,9.6217e-06,4.20011e-05,6.05074e-05,-2.97383e-07,6.16308e-06
974,-8.08097e-06,1.46553e-05,3.4824e-05,5.71671e-05,-5.45961e-06,1.08993e-05
975,-2.7903e-05,1.69208e-05,2.69844e-05,5.66169e-05,-1.1018e-05,1.35688e-05
976,-3.06818e-05,1.58389e-05,2.49204e-05,5.9945e-05,-1.58945e-05,1.04656e-05
977,-1.05504e-05,1.5393e-05,3.54582e-05,6.04318e-05,-1.60061e-05,9.40571e-06
978,-6.09849e-07,1.53047e-05,4.34037e-05,5.44144e-05,-1.33471e-05,1.5555e-05
979,-5.91357e-06,1.38023e-05,4.13028e-05,5.00318e-05,-1.09633e-05,2.28124e-05
980,-9.98796e-06,1.18425e-05,4.01814e-05,5.30454e-05,-9.1978e-06,2.02034e-05
981,-1.13546e-05,1.01953e-05,4.20252e-05,5.62396e-05,-6.75075e-06,6.75664e-06
982,-1.0589e-05,1.05157e-05,4.31363e-05,5.30402e-05,-5.49468e-06,-1.81254e-06
983,-1.80478e-05,1.34088e-05,3.89843e-05,4.90321e-05,-7.05618e-06,-2.14159e-06
984,-2.99135e-05,1.45367e-05,2.86255e-05,5.18625e-05,-8.05252e-06,1.35488e-07
985,-2.89224e-05,1.4402e-05,2.37805e-05,5.67241e-05,-8.42585e-06,7.85114e-07
986,-1.46376e-05,1.48801e-05,2.98567e-05,5.78272e-05,-8.20866e-06,4.89919e-07
987,-3.35016e-06,1.45715e-05,3.81323e-05,5.60555e-05,-8.82487e-06,7.58376e-07
988,-2.1952e-06,1.35082e-05,4.09917e-05,5.30329e-05,-1.03553e-05,1.2685e-06
989,-1.42229e-05,1.14411e-05,3.49053e-05,4.99945e-05,-1.20291e-05,1.92575e-06
990,-2.93808e-05,9.08104e-06,2.39886e-05,4.824e-05,-1.15946e-05,4.27214e-06
991,-3.01798e-05,8.30742e-06,2.17348e-05,4.88103e-05,-9.46046e-06,7.45244e-06
992,-1.58406e-05,9.47607e-06,3.31813e-05,5.0636e-05,-8.75767e-06,9.90142e-06
993,-5.22728e-06,1.04993e-05,4.69051e-05,5.1274e-05,-9.31419e-06,1.08998e-05
994,-8.379e-06,1.14957e-05,5.11684e-05,4.89524e-05,-9.76791e-06,1.12508e-05
995,-2.15775e-05,1.40231e-05,4.37718e-05,4.77683e-05,-9.91995e-06,1.28584e-05
996,-3.59077e-05,1.59515e-05,3.21124e-05,5.17975e-05,-1.1048e-05,1.34996e-05
997,-3.33422e-05,1.48937e-05,2.98873e-05,5.63299e-05,-1.41309e-05,1.30788e-05
998,-1.44762e-05,1.29592e-05,3.83324e-05,5.49937e-05,-1.90965e-05,1.1999e-05
999,6.7897e-08,1.20163e-05,4.43714e-05,5.19056e-05,-2.23721e-05,9.37789e-06
1000,2.19306e-06,1.20328e-05,4.30029e-05,5.04476e-05,-2.01931e-05,7.7367e-06
1001,-5.18271e-06,1.14198e-05,3.8213e-05,4.85573e-05,-1.56039e-05,1.07187e-05
1002,-2.25387e-05,1.04377e-05,3.01425e-05,4.5698e-05,-1.39837e-05,1.43666e-05
1003,-2.92884e-05,1.12768e-05,2.69185e-05,4.54942e-05,-1.30682e-05,1.70489e-05
1004,-1.34713e-05,1.28679e-05,3.3929e-05,4.73113e-05,-9.71248e-06,1.98044e-05
1005,3.95327e-07,1.51189e-05,4.07361e-05,4.88125e-05,-6.54602e-06,2.20203e-05
1006,2.96287e-06,1.42957e-05,4.41649e-05,5.03789e-05,-6.71526e-06,2.11698e-05
1007,6.50814e-06,1.0958e-05,4.56695e-05,5.31126e-05,-9.74648e-06,1.58154e-05
1008,8.56499e-06,1.00942e-05,4.28802e-05,5.467e-05,-1.33493e-05,1.24039e-05
1009,5.8347e-06,1.27727e-05,3.85019e-05,5.21126e-05,-1.50161e-05,1.58438e-05
1010,-9.23785e-06,1.49248e-05,2.94223e-05,4.88771e-05,-1.30913e-05,1.9689e-05
1011,-2.59222e-05,1.26031e-05,2.02913e-05,4.96213e-05,-9.43189e-06,2.09518e-05
1012,-2.32859e-05,8.49951e-06,2.21321e-05,5.18852e-05,-8.80959e-06,2.10026e-05
1013,-6.16698e-06,7.35046e-06,3.24736e-05,5.45368e-05,-1.20798e-05,2.15953e-05
1014,4.64683e-06,1.04672e-05,4.03333e-05,5.56166e-05,-1.62977e-05,2.17496e-05
1015,5.35283e-06,1.65784e-05,4.1763e-05,5.28681e-05,-1.74046e-05,2.47687e-05
1016,-3.47093e-06,2.09961e-05,3.77049e-05,5.21155e-05,-1.57387e-05,3.09902e-05
1017,-1.52276e-05,2.08147e-05,3.15957e-05,5.69796e-05,-1.2547e-05,3.26422e-05
1018,-1.68786e-05,1.8943e-05,3.50541e-05,6.14119e-05,-1.09859e-05,2.53719e-05
1019,-6.80354e-06,1.7276e-05,5.01795e-05,5.98045e-05,-1.33989e-05,1.3479e-05
1020,2.69312e-06,1.59487e-05,6.29754e-05,5.4957e-05,-1.71502e-05,4.52665e-06
1021,2.27623e-06,1.54965e-05,6.30525e-05,5.09739e-05,-1.79869e-05,2.3844e-06
1022,-7.10504e-06,1.70033e-05,5.38873e-05,4.78939e-05,-1.38936e-05,3.97719e-06
1023,-1.98912e-05,1.88222e-05,4.12803e-05,4.67515e-05,-8.30109e-06,2.98933e-06
1024,-2.2604e-05,1.82006e-05,3.53171e-05,4.8941e-05,-5.11643e-06,7.27226e-07
1025,-1.21025e-05,1.66398e-05,4.1598e-05,5.14707e-05,-6.23799e-06,2.56044e-06
1026,1.12247e-06,1.66843e-05,4.90279e-05,5.17179e-05,-1.09133e-05,1.00286e-05
1027,7.49364e-06,1.56249e-05,4.85134e-05,4.63665e-05,-1.53876e-05,1.7285e-05
1028,3.28843e-06,1.44144e-05,4.07912e-05,4.04424e-05,-1.51383e-05,2.03292e-05
1029,-1.63881e-05,1.45725e-05,3.0808e-05,4.19948e-05,-1.07676e-05,1.95737e-05
1030,-2.57765e-05,1.49481e-05,2.85147e-05,4.87312e-05,-6.64343e-06,1.78192e-05
1031,-9.68886e-06,1.42463e-05,3.96983e-05,5.35285e-05,-3.56189e-06,1.47406e-05
1032,1.66481e-06,1.18169e-05,4.86412e-05,5.55303e-05,-4.2705e-06,1.45299e-05
1033,5.69571e-06,1.2163e-05,4.48474e-05,5.5954e-05,-8.38372e-06,1.76864e-05
1034,1.19226e-05,1.35634e-05,4.03875e-05,5.46088e-05,-1.05107e-05,1.97641e-05
1035,1.11453e-05,1.6304e-05,3.8057e-05,5.38422e-05,-1.07872e-05,1.9799e-05
1036,5.91695e-06,1.89685e-05,3.54442e-05,5.20607e-05,-8.90849e-06,1.59636e-05
1037,-7.45468e-06,1.66249e-05,3.15656e-05,4.9648e-05,-9.2272e-06,1.0222e-05
1038,-1.96127e-05,1.22184e-05,2.91498e-05,5.136e-05,-1.04955e-05,7.03966e-06
1039,-1.52142e-05,9.89103e-06,3.40439e-05,5.55823e-05,-1.16427e-05,7.19856e-06
1040,7.75983e-07,1.13315e-05,4.50449e-05,5.92207e-05,-1.20522e-05,8.5063e-06
1041,1.02226e-05,1.33026e-05,5.40915e-05,5.97941e-05,-9.255e-06,9.5433e-06
1042,1.01526e-05,1.60035e-05,5.5454e-05,5.71158e-05,-3.63327e-06,1.02167e-05
1043,1.4783e-06,1.77292e-05,4.78432e-05,5.36452e-05,2.25658e-06,1.15127e-05
1044,-1.01257e-05,1.73503e-05,3.63412e-05,5.27162e-05,5.41348e-06,1.37526e-05
1045,-9.14254e-06,1.45229e-05,3.37672e-05,5.67222e-05,7.2551e-06,1.60592e-05
1046,5.10079e-06,1.24866e-05,4.23586e-05,6.14876e-05,1.23283e-05,1.68784e-05
1047,1.62434e-05,1.45073e-05,5.05107e-05,6.19729e-05,2.0399e-05,1.59922e-05
1048,1.34213e-05,1.75657e-05,5.08724e-05,5.63073e-05,1.9595e-05,1.42821e-05
1049,-1.145e-06,1.65466e-05,4.48853e-05,4.95902e-05,2.84525e-06,1.2743e-05
1050,-2.02978e-05,1.02401e-05,3.35609e-05,4.77794e-05,-2.15438e-05,1.2997e-05
1051,-2.41013e-05,4.44635e-06,2.82839e-05,5.01208e-05,-4.03877e-05,1.56586e-05
1052,-8.85661e-06,2.92846e-06,3.56253e-05,5.29372e-05,-4.80061e-05,1.75046e-05
1053,5.22786e-06,4.74172e-06,4.22821e-05,5.37698e-05,-4.26541e-05,1.76933e-05
1054,5.64733e-06,6.54858e-06,3.79218e-05,5.25793e-05,-2.94255e-05,1.84086e-05
1055,-3.42001e-06,8.55845e-06,2.81728e-05,5.11132e-05,-1.83601e-05,1.84891e-05
1056,-2.17681e-05,1.04763e-05,2.11251e-05,5.22669e-05,-1.34355e-05,1.79622e-05
1057,-2.85239e-05,1.3584e-05,2.27076e-05,5.44623e-05,-1.01466e-05,1.60681e-05
1058,-8.80809e-06,1.28786e-05,3.35751e-05,5.28838e-05,-4.40183e-06,1.58966e-05
1059,6.35371e-06,7.19915e-06,3.91775e-05,4.99958e-05,5.40812e-07,1.89493e-05
1060,8.60829e-06,4.14976e-06,3.78519e-05,5.2621e-05,9.44767e-07,1.95039e-05
1061,1.11952e-05,2.18113e-06,3.75131e-05,5.82236e-05,-1.802e-06,1.6974e-05
1062,1.20704e-05,-1.32188e-06,3.93771e-05,6.06847e-05,-8.94588e-06,1.38123e-05
1063,1.25791e-05,-1.76554e-06,3.94556e-05,5.69989e-05,-1.89328e-05,1.37979e-05
1064,3.64345e-06,7.69878e-07,3.17181e-05,5.08639e-05,-2.67674e-05,1.64024e-05
1065,-8.92312e-06,-6.76542e-09,2.41313e-05,4.9656e-05,-2.70177e-05,1.79999e-05
1066,-4.80211e-06,-2.73547e-06,2.63987e-05,5.22296e-05,-2.37825e-05,1.73541e-05
1067,1.10551e-05,-2.72038e-06,3.61825e-05,5.50825e-05,-2.36059e-05,1.50435e-05
1068,1.90908e-05,5.25677e-07,4.14098e-05,5.46575e-05,-2.56797e-05,1.30095e-05
1069,1.59639e-05,5.29502e-06,3.9081e-05,4.92643e-05,-2.51282e-05,1.19475e-05
1070,3.00285e-06,1.01791e-05,3.30667e-05,4.25857e-05,-1.88591e-05,1.10742e-05
1071,-1.08095e-05,1.24654e-05,2.77235e-05,4.25422e-05,-1.12399e-05,1.12698e-05
1072,-1.10433e-05,1.1486e-05,2.92834e-05,4.91066e-05,-6.66786e-06,1.49593e-05
1073,1.30374e-06,9.1693e-06,3.75517e-05,5.51983e-05,-5.4299e-06,2.18258e-05
1074,1.09837e-05,6.28442e-06,4.42181e-05,5.54502e-05,-6.04494e-06,2.71605e-05
1075,1.01579e-05,4.87967e-06,4.60697e-05,4.99023e-05,-8.32224e-06,2.61614e-05
1076,5.048e-07,7.04793e-06,4.21799e-05,4.5726e-05,-9.2881e-06,2.11445e-05
1077,-1.29018e-05,8.88561e-06,3.07137e-05,4.70354e-05,-9.33763e-06,2.01275e-05
1078,-1.46354e-05,8.40724e-06,2.3294e-05,5.01366e-05,-9.80727e-06,2.59705e-05
1079,4.66677e-07,1.13134e-05,3.20114e-05,5.07004e-05,-9.40137e-06,3.05285e-05
1080,1.45798e-05,1.75627e-05,4.67343e-05,5.02499e-05,-6.56255e-06,2.49916e-05
1081,1.35624e-05,1.9505e-05,5.17255e-05,4.85382e-05,-4.33734e-06,9.58127e-06
1082,-5.68324e-07,1.4025e-05,4.61495e-05,4.54431e-05,-4.6001e-06,-8.66969e-06
1083,-2.30588e-05,8.1486e-06,3.37645e-05,4.51983e-05,-6.98584e-06,-1.80604e-05
1084,-2.66707e-05,8.55535e-06,2.87365e-05,4.86393e-05,-9.31467e-06,-1.27469e-05
1085,-4.68408e-06,1.22994e-05,3.64958e-05,5.0621e-05,-6.56899e-06,9.62409e-07
1086,7.43305e-06,1.06293e-05,3.84232e-05,5.01459e-05,-1.68294e-06,1.03263e-05
1087,4.47345e-06,8.08283e-06,3.44258e-05,5.014e-05,1.36043e-06,1.3201e-05
1088,2.31845e-06,1.03283e-05,3.71366e-05,4.95562e-05,2.62836e-06,1.57351e-05
1089,3.22833e-06,1.37174e-05,4.06425e-05,4.83849e-05,2.42478e-06,1.78265e-05
1090,6.27038e-06,1.69971e-05,3.94535e-05,4.59751e-05,9.07923e-07,1.98938e-05
1091,-6.55807e-07,1.77927e-05,3.00137e-05,4.3274e-05,3.69411e-07,1.94325e-05
1092,-1.44941e-05,1.69485e-05,1.96092e-05,4.57821e-05,6.26493e-06,1.81105e-05
1093,-1.70992e-05,1.61114e-05,2.42678e-05,5.06474e-05,1.60499e-05,1.77543e-05
1094,-7.10745e-06,1.5355e-05,3.89801e-05,5.44406e-05,1.95514e-05,1.73545e-05
1095,6.16277e-07,1.43213e-05,4.4913e-05,5.38576e-05,8.28378e-06,1.89785e-05
1096,2.31015e-06,1.54046e-05,4.03942e-05,4.73308e-05,-1.40103e-05,2.13412e-05
1097,-4.48092e-06,1.75619e-05,3.04412e-05,4.07776e-05,-3.33098e-05,2.05514e-05
1098,-1.34826e-05,1.60592e-05,2.14137e-05,4.06418e-05,-3.91593e-05,1.67128e-05
1099,-1.05287e-05,1.21456e-05,2.44104e-05,4.66298e-05,-3.00126e-05,1.30842e-05
1100,3.45445e-06,7.50458e-06,4.00694e-05,5.13985e-05,-1.00029e-05,1.08787e-05
1101,1.40387e-05,4.40846e-06,5.42053e-05,4.96923e-05,1.23921e-05,9.26623e-06
1102,1.31236e-05,4.80012e-06,5.62053e-05,4.32668e-05,2.71879e-05,8.2264e-06
1103,2.47915e-06,8.55621e-06,4.61831e-05,3.92056e-05,2.74729e-05,8.55868e-06
1104,-1.04939e-05,1.17109e-05,3.01681e-05,4.21636e-05,1.2215e-05,8.37499e-06
1105,-1.06578e-05,1.24225e-05,2.27647e-05,4.84495e-05,-9.44363e-06,7.53805e-06
1106,1.97772e-06,1.26246e-05,3.1174e-05,5.18906e-05,-2.05729e-05,9.51656e-06
1107,1.0221e-05,1.29852e-05,4.21322e-05,5.34587e-05,-1.22708e-05,1.52952e-05
1108,5.50904e-06,1.35073e-05,4.27615e-05,5.39126e-05,2.96099e-06,1.99004e-05
1109,-7.57343e-06,1.60519e-05,3.69055e-05,5.3415e-05,8.7984e-06,2.04371e-05
1110,-2.67698e-05,2.03605e-05,2.71274e-05,5.33422e-05,4.73503e-06,1.74623e-05
1111,-3.08538e-05,2.34879e-05,2.35178e-05,5.35181e-05,8.35985e-07,1.6066e-05
1112,-1.2781e-05,2.27419e-05,3.27126e-05,5.40668e-05,-1.48904e-06,1.88763e-05
1113,-4.81116e-06,1.66674e-05,3.79528e-05,5.29809e-05,-6.7761e-06,1.91527e-05
1114,-8.19206e-06,1.28908e-05,3.62523e-05,5.20417e-05,-1.0567e-05,1.48913e-05
1115,-5.12061e-06,1.60087e-05,3.89339e-05,5.33217e-05,-8.7823e-06,1.28343e-05
1116,-3.0306e-06,2.03041e-05,4.06116e-05,5.38132e-05,-5.33373e-06,1.48697e-05
1117,-3.79937e-06,1.9813e-05,3.75793e-05,5.36301e-05,-3.71721e-06,1.79058e-05
1118,-1.40057e-05,1.66539e-05,3.01811e-05,5.39594e-05,-4.64806e-06,1.98006e-05
1119,-2.96704e-05,1.43351e-05,2.01576e-05,5.75699e-05,-5.55438e-06,1.85106e-05
1120,-3.08035e-05,1.42863e-05,1.83321e-05,6.1506e-05,-5.68453e-06,1.48888e-05
1121,-1.59151e-05,1.50474e-05,2.75671e-05,6.20188e-05,-5.75113e-06,1.36046e-05
1122,-3.14283e-06,1.51711e-05,3.42509e-05,5.88415e-05,-6.22476e-06,1.71562e-05
1123,4.72799e-08,1.60245e-05,3.45352e-05,5.37265e-05,-9.2456e-06,2.11067e-05
1124,-8.81558e-06,1.76791e-05,3.15972e-05,5.2091e-05,-1.37075e-05,2.19167e-05
1125,-2.19227e-05,1.80951e-05,2.80279e-05,5.68118e-05,-1.58974e-05,1.87466e-05
1126,-1.95271e-05,1.78794e-05,2.9692e-05,6.32195e-05,-1.43242e-05,1.30637e-05
1127,-1.29344e-06,1.99258e-05,3.81442e-05,6.45175e-05,-1.09468e-05,1.0766e-05
1128,1.28972e-05,2.38885e-05,4.53775e-05,6.00697e-05,-9.18738e-06,1.2763e-05
1129,1.33466e-05,2.65965e-05,4.70463e-05,5.32421e-05,-8.98379e-06,1.50005e-05
1130,3.028e-06,2.80984e-05,4.3759e-05,4.92217e-05,-8.60485e-06,1.3646e-05
1131,-1.0371e-05,2.93949e-05,3.50643e-05,5.06059e-05,-9.03427e-06,9.90623e-06
1132,-1.18716e-05,2.93198e-05,3.18052e-05,5.37836e-05,-9.90996e-06,8.26539e-06
1133,-2.08574e-06,2.73933e-05,4.25894e-05,5.41333e-05,-9.95587e-06,9.1526e-06
1134,5.44829e-06,2.33347e-05,5.33948e-05,5.12365e-05,-8.70773e-06,8.91308e-06
1135,5.01359e-06,1.90498e-05,5.05026e-05,4.67516e-05,-6.8795e-06,8.62875e-06
1136,-4.67563e-06,1.61756e-05,4.03362e-05,4.51166e-05,-5.20363e-06,1.25811e-05
1137,-2.79182e-05,1.34437e-05,3.35487e-05,5.07668e-05,-5.07365e-06,1.89913e-05
1138,-3.75605e-05,1.0739e-05,3.82569e-05,5.82259e-05,-6.24451e-06,2.34283e-05
1139,-1.94611e-05,1.23442e-05,4.82075e-05,5.78717e-05,-7.68804e-06,2.11143e-05
1140,-4.58778e-06,1.46419e-05,5.08264e-05,5.01898e-05,-9.14387e-06,1.25843e-05
1141,-1.67775e-06,1.59959e-05,4.89936e-05,4.46324e-05,-9.85936e-06,5.93377e-06
1142,-2.29506e-06,1.60012e-05,4.91891e-05,4.52748e-05,-9.94707e-06,7.42436e-06
1143,-6.32209e-06,1.47869e-05,4.72056e-05,4.71642e-05,-1.03363e-05,1.4851e-05
1144,-9.90819e-06,1.49403e-05,4.45994e-05,4.70206e-05,-1.17367e-05,2.22156e-05
1145,-1.81095e-05,1.52286e-05,3.93651e-05,4.55084e-05,-1.16204e-05,2.37046e-05
1146,-2.90534e-05,1.58345e-05,3.1384e-05,4.9805e-05,-9.71755e-06,1.75349e-05
1147,-2.86358e-05,1.43881e-05,2.88357e-05,5.83178e-05,-8.06683e-06,8.35814e-06
1148,-1.90227e-05,1.11965e-05,3.28027e-05,6.37862e-05,-8.92165e-06,1.57037e-06
1149,-1.46201e-05,8.99104e-06,3.72078e-05,6.18679e-05,-9.92977e-06,-1.97808e-06
1150,-1.71371e-05,9.84715e-06,3.93874e-05,5.60362e-05,-7.89662e-06,-2.69684e-06
1151,-2.60545e-05,1.27855e-05,3.67501e-05,5.30332e-05,-5.28369e-06,-2.91656e-06
1152,-3.50898e-05,1.57339e-05,2.98577e-05,5.55342e-05,-4.40064e-06,-3.46462e-06
1153,-3.16659e-05,1.61713e-05,2.72381e-05,6.01039e-05,-4.95175e-06,-2.84643e-06
1154,-1.65644e-05,1.4564e-05,3.01346e-05,6.21956e-05,-6.06905e-06,-4.69146e-07
1155,-4.0628e-06,1.51133e-05,3.17814e-05,6.12056e-05,-7.78571e-06,4.47665e-06
1156,-1.97929e-06,1.90148e-05,2.97453e-05,5.67139e-05,-9.47753e-06,1.11631e-05
1157,-9.53269e-06,2.08155e-05,2.35128e-05,5.22199e-05,-1.08718e-05,1.61247e-05
1158,-2.16888e-05,1.55416e-05,1.45048e-05,5.29542e-05,-1.20485e-05,1.75979e-05
1159,-2.22159e-05,7.50136e-06,1.29202e-05,5.8016e-05,-1.20737e-05,1.70177e-05
1160,-8.43229e-06,3.93059e-06,2.26774e-05,5.93967e-05,-1.10402e-05,1.40442e-05
1161,2.61362e-06,5.22674e-06,3.25624e-05,5.66921e-05,-1.04752e-05,1.09647e-05
1162,2.09365e-06,7.44577e-06,3.43986e-05,5.15459e-05,-8.2489e-06,1.12696e-05
1163,-9.31675e-06,7.15298e-06,3.09477e-05,4.66279e-05,-4.81222e-06,1.2432e-05
1164,-2.94689e-05,4.0044e-06,2.38355e-05,4.61497e-05,-3.03465e-06,1.26561e-05
1165,-3.50949e-05,3.37961e-06,2.50051e-05,5.25503e-05,-3.08737e-06,1.36395e-05
1166,-1.49047e-05,6.52063e-06,3.80333e-05,6.10059e-05,-3.78981e-06,1.37121e-05
1167,1.27934e-06,1.04329e-05,4.51719e-05,6.19217e-05,-5.12535e-06,1.26659e-05
1168,4.18423e-06,1.27964e-05,4.21151e-05,5.78667e-05,-6.93696e-06,1.37177e-05
1169,4.03668e-06,1.34364e-05,3.95783e-05,5.72706e-05,-8.15263e-06,1.54936e-05
1170,1.01781e-06,1.34331e-05,3.87338e-05,5.67372e-05,-7.98957e-06,1.55044e-05
1171,-1.80134e-06,1.58555e-05,3.82566e-05,5.25666e-05,-8.50838e-06,1.55926e-05
1172,-1.40355e-05,1.79811e-05,3.37415e-05,4.68841e-05,-9.65368e-06,1.8748e-05
1173,-2.895e-05,1.57803e-05,2.77761e-05,4.43133e-05,-1.0301e-05,2.16491e-05
1174,-2.48549e-05,1.14092e-05,2.97215e-05,4.47044e-05,-1.0046e-05,2.01815e-05
1175,-3.8706e-06,8.12818e-06,3.79346e-05,4.47275e-05,-8.68073e-06,1.5871e-05
1176,1.01265e-05,7.71206e-06,4.43824e-05,4.49651e-05,-7.69888e-06,1.19352e-05
1177,7.55814e-06,1.04069e-05,4.31679e-05,4.69936e-05,-7.77014e-06,1.22786e-05
1178,-7.42183e-06,1.6061e-05,3.39711e-05,4.92792e-05,-9.9451e-06,1.55809e-05
1179,-2.04048e-05,2.07643e-05,2.4338e-05,5.08282e-05,-1.2302e-05,1.82569e-05
1180,-1.65178e-05,1.98924e-05,2.76991e-05,5.30438e-05,-1.25351e-05,1.97279e-05
1181,-5.632e-07,1.52366e-05,4.21153e-05,5.25763e-05,-1.05875e-05,2.13261e-05
1182,1.10162e-05,1.16869e-05,5.08668e-05,4.92479e-05,-8.98328e-06,2.1741e-05
1183,9.90077e-06,1.22534e-05,4.73692e-05,4.58933e-05,-6.61211e-06,1.96438e-05
1184,-3.08765e-06,1.62059e-05,3.74106e-05,4.53036e-05,-2.84424e-06,1.6082e-05
1185,-2.12357e-05,1.83825e-05,2.61461e-05,4.87797e-05,-5.06732e-07,1.3172e-05
1186,-2.34843e-05,1.75781e-05,2.14577e-05,5.35467e-05,-2.54218e-06,1.34676e-05
1187,-6.07784e-06,1.56209e-05,2.84649e-05,5.43581e-05,-7.89847e-06,1.55724e-05
1188,7.90909e-06,1.46386e-05,3.77374e-05,5.15298e-05,-1.18221e-05,1.72245e-05
1189,3.1804e-06,1.46413e-05,3.96435e-05,4.93983e-05,-1.07775e-05,1.90046e-05
1190,-1.41829e-05,1.47315e-05,3.62813e-05,4.98255e-05,-8.32776e-06,2.08463e-05
1191,-3.487e-05,1.4081e-05,2.95181e-05,5.18165e-05,-7.17785e-06,2.01135e-05
1192,-3.58013e-05,1.38474e-05,2.87327e-05,5.32879e-05,-6.74684e-06,1.73125e-05
1193,-1.2042e-05,1.14173e-05,4.02999e-05,5.24389e-05,-8.36914e-06,1.49255e-05
1194,2.7429e-06,7.55548e-06,4.69832e-05,4.99431e-05,-1.12993e-05,1.25675e-05
1195,4.77555e-06,1.00213e-05,4.44089e-05,4.95474e-05,-1.58582e-05,1.11179e-05
1196,4.01458e-06,1.42622e-05,4.47189e-05,5.4265e-05,-1.70472e-05,9.12279e-06
1197,-4.46386e-07,1.80051e-05,4.48887e-05,5.89531e-05,-1.55005e-05,9.09263e-06
1198,-1.74857e-06,2.16774e-05,4.26018e-05,5.76349e-05,-1.42085e-05,1.08038e-05
1199,-9.04791e-06,2.4151e-05,3.79618e-05,5.32202e-05,-1.36505e-05,1.02733e-05
1200,-2.07576e-05,2.49561e-05,3.12947e-05,5.09795e-05,-1.3746e-05,1.25591e-05
1201,-1.78449e-05,2.30159e-05,3.19143e-05,5.02581e-05,-1.28998e-05,1.70255e-05
1202,6.23795e-07,1.99062e-05,4.15765e-05,4.81405e-05,-1.3575e-05,2.04777e-05
1203,1.28904e-05,1.66662e-05,5.04307e-05,4.50701e-05,-1.59003e-05,1.98043e-05
1204,1.09022e-05,1.39636e-05,5.21759e-05,4.23921e-05,-1.61114e-05,1.55679e-05
1205,-7.53918e-07,1.21559e-05,4.49287e-05,4.17525e-05,-1.19055e-05,1.18129e-05
1206,-1.15153e-05,1.32969e-05,3.28176e-05,4.54787e-05,-6.8804e-06,1.08167e-05
1207,-8.85666e-06,1.69153e-05,2.96334e-05,5.18028e-05,-5.24227e-06,1.17186e-05
1208,6.46632e-06,2.08545e-05,3.90823e-05,5.63067e-05,-7.55067e-06,1.19621e-05
1209,2.02661e-05,2.16662e-05,4.89119e-05,5.85618e-05,-9.65219e-06,1.05942e-05
1210,2.10701e-05,1.78786e-05,5.13461e-05,5.76556e-05,-9.63916e-06,7.79742e-06
1211,7.38054e-06,1.19071e-05,4.49955e-05,5.48026e-05,-1.05349e-05,5.7626e-06
1212,-1.20884e-05,6.95036e-06,3.21519e-05,5.53655e-05,-1.44785e-05,7.07407e-06
1213,-1.42636e-05,4.883e-06,2.54112e-05,5.85353e-05,-1.89954e-05,1.04514e-05
1214,5.1255e-06,5.51068e-06,3.19961e-05,5.97144e-05,-1.93492e-05,1.17e-05
1215,2.11208e-05,8.82992e-06,4.23263e-05,5.95319e-05,-1.41789e-05,9.92859e-06
1216,1.75541e-05,1.31425e-05,4.48502e-05,5.82333e-05,-8.97371e-06,8.24486e-06
1217,2.85684e-07,1.4679e-05,3.82501e-05,5.53745e-05,-7.34868e-06,9.98762e-06
1218,-2.25886e-05,1.30784e-05,2.75072e-05,5.4005e-05,-7.95349e-06,1.20873e-05
1219,-2.81612e-05,1.06158e-05,2.58878e-05,5.4715e-05,-7.938e-06,1.39944e-05
1220,-1.08735e-05,1.11967e-05,3.94209e-05,5.66733e-05,-2.95348e-06,1.6943e-05
1221,-8.26099e-07,1.36387e-05,4.83731e-05,5.84917e-05,5.9536e-06,1.72254e-05
1222,-2.36998e-06,1.43681e-05,4.52341e-05,5.66118e-05,1.05566e-05,1.44181e-05
1223,-1.72702e-06,1.41197e-05,4.29213e-05,5.2732e-05,4.18418e-06,1.35112e-05
1224,-7.04747e-07,1.38187e-05,4.47013e-05,4.72001e-05,-5.64014e-06,1.61205e-05
1225,-2.64617e-06,1.37022e-05,4.52712e-05,4.08829e-05,-1.47872e-05,1.76872e-05
1226,-1.60049e-05,1.31563e-05,3.89974e-05,3.63749e-05,-2.18723e-05,1.73079e-05
1227,-3.19927e-05,1.21124e-05,2.96283e-05,3.87396e-05,-2.11893e-05,1.62715e-05
1228,-2.8097e-05,1.13018e-05,2.92389e-05,4.66022e-05,-1.77115e-05,1.49692e-05
1229,-9.02154e-06,9.69684e-06,3.83243e-05,5.08944e-05,-1.70204e-05,1.47669e-05
1230,2.58646e-06,7.01712e-06,4.55669e-05,5.02975e-05,-1.84565e-05,1.56983e-05
1231,-6.81696e-07,6.45644e-06,4.64763e-05,4.81521e-05,-1.97074e-05,1.73191e-05
1232,-1.67403e-05,8.08285e-06,3.90438e-05,4.79529e-05,-1.81163e-05,1.78747e-05
1233,-3.11561e-05,9.73537e-06,2.86136e-05,4.97726e-05,-1.25198e-05,1.77072e-05
1234,-2.70802e-05,1.00067e-05,2.8636e-05,5.1995e-05,-6.93196e-06,1.78596e-05
1235,-7.49461e-06,9.40658e-06,4.04695e-05,5.34997e-05,-6.13205e-06,1.91904e-05
1236,8.17879e-06,9.80523e-06,4.79575e-05,5.51981e-05,-8.9262e-06,1.97536e-05
1237,1.06219e-05,1.15216e-05,4.29521e-05,5.53349e-05,-1.09804e-05,1.8631e-05
1238,1.57393e-06,1.19421e-05,3.15964e-05,5.42168e-05,-1.06579e-05,1.70446e-05
1239,-1.4202e-05,1.03776e-05,2.24754e-05,5.50021e-05,-1.02976e-05,1.55058e-05
1240,-2.05043e-05,8.33015e-06,2.41247e-05,5.87345e-05,-1.18404e-05,1.40604e-05
1241,-8.71777e-06,8.10044e-06,3.59299e-05,6.16583e-05,-1.44718e-05,1.43548e-05
1242,9.13528e-06,9.70628e-06,4.67398e-05,6.18067e-05,-1.72178e-05,1.57062e-05
1243,1.5975e-05,1.2036e-05,4.8951e-05,5.98673e-05,-1.75498e-05,1.5567e-05
1244,7.04917e-06,1.42267e-05,4.2989e-05,5.78136e-05,-1.41527e-05,1.28523e-05
1245,-1.12707e-05,1.22378e-05,3.21276e-05,6.02169e-05,-1.18118e-05,8.67412e-06
1246,-1.27028e-05,6.88071e-06,2.97327e-05,6.26589e-05,-1.16928e-05,6.95348e-06
1247,1.16268e-05,5.47718e-06,3.90004e-05,6.08951e-05,-9.07412e-06,9.72238e-06
1248,2.49219e-05,9.90081e-06,4.38489e-05,5.59624e-05,-6.15394e-06,1.37127e-05
1249,2.12541e-05,1.31304e-05,4.18124e-05,5.2113e-05,-6.04057e-06,1.22517e-05
1250,2.13068e-05,1.08598e-05,3.78358e-05,5.25245e-05,-5.94589e-06,1.05602e-05
1251,2.05079e-05,8.50398e-06,3.5317e-05,5.0425e-05,-5.21992e-06,1.041e-05
1252,1.56125e-05,7.71564e-06,3.56453e-05,4.49913e-05,-4.63817e-06,1.00567e-05
1253,1.46583e-06,7.23682e-06,3.09433e-05,4.17993e-05,-3.7035e-06,9.66525e-06
1254,-1.20963e-05,7.44692e-06,2.5535e-05,4.55132e-05,-1.11218e-06,1.00614e-05
1255,-7.79429e-06,8.40888e-06,2.79276e-05,5.09314e-05,1.06831e-06,1.20987e-05
1256,8.60958e-06,8.34785e-06,3.66531e-05,5.14077e-05,-1.25075e-07,1.2444e-05
1257,1.74767e-05,5.31616e-06,4.28501e-05,4.95304e-05,-2.88676e-06,1.02596e-05
1258,1.409e-05,6.00988e-06,4.22059e-05,4.61541e-05,-3.80874e-06,8.20891e-06
1259,2.03993e-06,1.12763e-05,3.25159e-05,4.4144e-05,-3.68976e-06,7.5183e-06
1260,-1.06779e-05,1.5987e-05,2.16423e-05,4.48919e-05,-5.27629e-06,8.28404e-06
1261,-1.09166e-05,1.83269e-05,2.33424e-05,4.66599e-05,-9.56862e-06,9.63753e-06
1262,1.62089e-06,1.87762e-05,3.50421e-05,4.56993e-05,-1.45124e-05,9.16627e-06
1263,1.10857e-05,1.72575e-05,4.24514e-05,4.34239e-05,-1.65581e-05,8.61201e-06
1264,8.56239e-06,1.61389e-05,3.89469e-05,4.21124e-05,-1.43705e-05,9.46091e-06
1265,-2.89908e-06,1.56765e-05,2.84661e-05,4.08474e-05,-1.05984e-05,9.74158e-06
1266,-1.58096e-05,1.39304e-05,1.79e-05,4.00272e-05,-9.57143e-06,8.30545e-06
1267,-1.65128e-05,9.75117e-06,1.70321e-05,4.18636e-05,-1.09569e-05,8.37392e-06
1268,-3.96001e-06,5.94158e-06,2.60934e-05,4.39186e-05,-1.03647e-05,1.16599e-05
1269,6.58268e-06,5.30498e-06,3.59091e-05,4.19685e-05,-7.00797e-06,1.45993e-05
1270,6.2883e-06,4.75698e-06,4.07435e-05,3.65008e-05,-4.67264e-06,1.40071e-05
1271,-1.99143e-06,7.07603e-06,4.01724e-05,3.37007e-05,-5.57436e-06,1.2109e-05
1272,-1.8893e-05,1.13847e-05,3.04113e-05,4.07133e-05,-8.22866e-06,1.04966e-05
1273,-2.63584e-05,1.39742e-05,2.40892e-05,4.86684e-05,-8.01846e-06,1.07237e-05
1274,-1.18698e-05,1.62465e-05,3.67912e-05,4.97959e-05,-4.60833e-06,1.32414e-05
1275,-2.95788e-06,1.60755e-05,5.06418e-05,4.86341e-05,-6.05443e-06,1.19795e-05
1276,-5.53357e-06,1.17794e-05,5.18549e-05,5.10064e-05,-1.11222e-05,9.23736e-06
1277,-2.88852e-06,8.92105e-06,5.21104e-05,5.43784e-05,-1.256e-05,1.03506e-05
1278,2.29025e-07,1.05459e-05,5.39314e-05,5.34134e-05,-1.0804e-05,1.32216e-05
1279,1.24061e-06,1.56652e-05,5.12143e-05,4.79742e-05,-8.3111e-06,1.61616e-05
1280,-6.82199e-06,2.15699e-05,4.15706e-05,4.24983e-05,-8.56154e-06,1.60433e-05
1281,-1.69842e-05,2.34485e-05,2.90886e-05,4.61854e-05,-7.59784e-06,1.5844e-05
1282,-1.39949e-05,2.1175e-05,2.62333e-05,5.49425e-05,-4.08162e-06,1.70323e-05
1283,-2.82927e-06,1.87777e-05,3.2992e-05,5.97399e-05,-7.73487e-07,1.99649e-05
1284,3.31886e-06,1.61516e-05,3.90521e-05,5.76398e-05,-4.80987e-07,2.34473e-05
1285,2.90164e-06,1.25707e-05,4.2722e-05,5.25909e-05,-2.91299e-06,2.25959e-05
1286,-6.28765e-06,9.7775e-06,3.97517e-05,4.99567e-05,-4.52398e-06,1.78682e-05
1287,-2.04213e-05,8.73106e-06,3.08386e-05,5.17552e-05,-5.12842e-06,1.41654e-05
1288,-2.25789e-05,1.01903e-05,2.81091e-05,5.56051e-05,-5.31504e-06,1.44064e-05
1289,-1.03433e-05,1.29411e-05,3.73011e-05,5.73267e-05,-5.75949e-06,1.65405e-05
1290,1.12934e-06,1.44248e-05,4.66834e-05,5.65891e-05,-5.83452e-06,1.86391e-05
1291,2.17994e-06,1.44052e-05,4.73298e-05,5.30984e-05,-6.11867e-06,2.03564e-05
1292,-6.69692e-06,1.39777e-05,3.96591e-05,5.08301e-05,-5.41852e-06,2.17409e-05
1293,-1.99345e-05,1.27789e-05,2.86295e-05,5.38334e-05,-2.52979e-06,2.11818e-05
1294,-2.18162e-05,1.15481e-05,2.72605e-05,5.97233e-05,2.61599e-06,1.95092e-05
1295,-9.37495e-06,1.23432e-05,3.97266e-05,6.06813e-05,7.52975e-06,1.8369e-05
1296,2.31339e-06,1.55264e-05,5.14125e-05,5.77197e-05,8.86758e-06,1.9557e-05
1297,1.53807e-06,1.91076e-05,5.31325e-05,5.42548e-05,6.52126e-06,2.03625e-05
1298,-9.828e-06,1.93378e-05,4.69076e-05,5.20538e-05,6.71798e-06,1.93478e-05
1299,-2.71614e-05,1.58377e-05,3.60122e-05,5.35248e-05,1.08689e-05,1.70257e-05
1300,-2.95603e-05,1.47813e-05,3.2133e-05,5.67234e-05,9.71092e-06,1.25415e-05
1301,-1.07874e-05,1.82482e-05,3.94064e-05,5.79889e-05,1.64322e-07,1.05834e-05
1302,3.05376e-07,1.92858e-05,4.52279e-05,5.46099e-05,-1.28024e-05,1.25834e-05
1303,7.13487e-07,1.5957e-05,4.47684e-05,4.96399e-05,-2.66827e-05,1.35569e-05
1304,1.97768e-06,9.61675e-06,4.37132e-05,4.90059e-05,-3.55626e-05,1.38417e-05
1305,2.65441e-06,6.48183e-06,4.1239e-05,5.02085e-05,-3.28301e-05,1.15318e-05
1306,1.02246e-06,9.57778e-06,3.9471e-05,4.86587e-05,-2.18651e-05,7.47106e-06
1307,-1.02438e-05,1.20926e-05,3.74022e-05,4.83429e-05,-8.96678e-06,6.63685e-06
1308,-2.21417e-05,1.15397e-05,3.45135e-05,5.24869e-05,-1.41253e-06,7.70472e-06
1309,-1.72669e-05,8.97429e-06,3.6059e-05,5.91022e-05,-2.28733e-06,9.77689e-06
1310,1.57367e-07,1.04042e-05,4.22803e-05,6.34648e-05,-5.76754e-06,1.1055e-05
1311,1.19214e-05,1.43023e-05,4.67055e-05,6.24399e-05,-8.46384e-06,1.14021e-05
1312,1.29266e-05,1.72586e-05,4.7266e-05,5.89504e-05,-1.01557e-05,1.11066e-05
1313,1.8072e-06,1.91668e-05,4.08097e-05,5.63702e-05,-1.03184e-05,1.00933e-05
1314,-1.30479e-05,1.89711e-05,3.02638e-05,5.61817e-05,-8.07179e-06,8.89982e-06
1315,-1.40992e-05,1.6032e-05,2.87669e-05,5.7431e-05,-5.55998e-06,8.69268e-06
1316,-1.28511e-06,1.22703e-05,3.73214e-05,5.72103e-05,-3.32127e-06,1.0211e-05
1317,8.37145e-06,1.09798e-05,4.30908e-05,5.5141e-05,-2.45838e-07,1.3606e-05
1318,6.65301e-06,1.18327e-05,4.10322e-05,5.27979e-05,6.70356e-07,1.69167e-05
1319,-3.47231e-06,1.12119e-05,3.36756e-05,4.99515e-05,-2.59534e-06,1.67833e-05
1320,-1.76425e-05,6.14724e-06,2.24909e-05,4.74825e-05,-7.62656e-06,1.40367e-05
1321,-2.20285e-05,5.98145e-07,1.82202e-05,4.80157e-05,-1.22874e-05,1.28686e-05
1322,-1.22897e-05,-1.23893e-06,2.78252e-05,4.95529e-05,-1.55272e-05,1.54544e-05
1323,-4.82724e-06,-6.25274e-07,4.10662e-05,4.91013e-05,-1.45012e-05,1.91497e-05
1324,-8.58029e-06,2.87628e-06,4.65616e-05,4.69295e-05,-6.77553e-06,1.98346e-05
1325,-1.76375e-05,9.85703e-06,4.06988e-05,4.56623e-05,5.39818e-06,1.79336e-05
1326,-3.14127e-05,1.38012e-05,2.49942e-05,4.81153e-05,4.94086e-06,1.56293e-05
1327,-3.07969e-05,1.06382e-05,1.74093e-05,5.25986e-05,-1.38678e-05,1.40158e-05
1328,-9.9965e-06,7.44534e-06,2.77037e-05,5.77684e-05,-3.12831e-05,1.57685e-05
1329,-1.61213e-06,9.50941e-06,3.70087e-05,6.04461e-05,-2.74393e-05,1.76095e-05
1330,-3.09352e-06,1.14623e-05,3.72199e-05,6.13882e-05,-7.79785e-06,1.71583e-05
1331,8.93937e-07,1.20345e-05,3.74253e-05,6.29422e-05,6.59334e-06,1.80328e-05
1332,1.98946e-06,1.13673e-05,3.58936e-05,6.28735e-05,8.01213e-06,1.63358e-05
1333,-2.09606e-06,1.23048e-05,3.1898e-05,6.13056e-05,1.42087e-06,1.3094e-05
1334,-1.60879e-05,1.43394e-05,2.38206e-05,5.79827e-05,-5.33854e-06,1.41516e-05
1335,-2.89538e-05,1.40448e-05,1.67329e-05,5.68208e-05,-8.50722e-06,1.60588e-05
1336,-2.23162e-05,1.24135e-05,2.15622e-05,5.67979e-05,-9.96044e-06,1.85482e-05
1337,-2.92688e-06,1.2205e-05,3.21895e-05,5.70479e-05,-1.21647e-05,2.12075e-05
1338,5.72124e-06,1.28238e-05,3.79277e-05,5.42982e-05,-1.42549e-05,2.13476e-05
1339,8.95046e-07,1.2541e-05,3.84217e-05,4.77197e-05,-1.57516e-05,1.76206e-05
1340,-1.16761e-05,1.12901e-05,3.38532e-05,4.30951e-05,-1.45604e-05,1.23238e-05
1341,-2.29611e-05,9.78667e-06,2.68784e-05,4.71177e-05,-1.01864e-05,8.93024e-06
1342,-2.10885e-05,9.05763e-06,2.63802e-05,5.68212e-05,-6.47652e-06,9.95774e-06
1343,-8.20277e-06,9.54013e-06,3.53339e-05,6.23905e-05,-7.40993e-06,1.43233e-05
1344,1.55811e-06,1.29111e-05,4.44371e-05,5.98162e-05,-1.1308e-05,1.81222e-05
1345,7.7206e-07,1.72768e-05,4.38325e-05,5.31121e-05,-1.43599e-05,1.91004e-05
1346,-9.67158e-06,1.87346e-05,3.33626e-05,5.01616e-05,-1.53682e-05,1.79313e-05
1347,-2.24463e-05,1.45564e-05,2.1818e-05,5.23932e-05,-1.44516e-05,1.86163e-05
1348,-1.85823e-05,8.39877e-06,2.12746e-05,5.60752e-05,-1.2546e-05,2.18942e-05
1349,9.62892e-08,5.11922e-06,3.24541e-05,5.56684e-05,-1.21033e-05,2.42009e-05
1350,1.16495e-05,7.21709e-06,4.27352e-05,5.26946e-05,-1.44814e-05,2.4299e-05
1351,8.26365e-06,1.36397e-05,4.27109e-05,5.05958e-05,-1.61083e-05,2.4384e-05
1352,-2.29506e-06,1.93184e-05,3.44023e-05,4.94806e-05,-1.28917e-05,2.26918e-05
1353,-1.85942e-05,1.96028e-05,2.32638e-05,4.95346e-05,-6.85223e-06,1.99215e-05
1354,-2.1581e-05,1.77775e-05,2.11735e-05,5.28492e-05,-1.62144e-06,1.80095e-05
1355,-1.93759e-06,1.70651e-05,3.32741e-05,5.51569e-05,1.80924e-06,1.61182e-05
1356,7.04175e-06,1.63798e-05,3.97989e-05,4.99694e-05,-1.83476e-06,1.25116e-05
1357,2.33522e-07,1.50466e-05,3.60943e-05,4.55857e-05,-8.32381e-06,9.29768e-06
1358,-2.83247e-06,1.29775e-05,3.56818e-05,4.79358e-05,-9.35657e-06,8.7089e-06
1359,-4.14977e-06,1.14773e-05,3.74254e-05,4.93625e-05,-5.38337e-06,1.06546e-05
1360,-3.54777e-06,1.20921e-05,3.88862e-05,4.83977e-05,-3.00072e-07,1.50722e-05
1361,-9.79301e-06,1.23526e-05,3.45454e-05,4.57554e-05,1.2465e-06,2.14336e-05
1362,-2.04269e-05,9.06475e-06,2.67402e-05,4.46654e-05,-2.52504e-07,2.77406e-05
1363,-1.68262e-05,4.73696e-06,2.61929e-05,4.63047e-05,-1.68413e-06,3.12791e-05
1364,-3.07777e-07,2.94426e-06,3.46562e-05,5.04124e-05,-5.4261e-06,3.01865e-05
1365,1.11692e-05,5.05493e-06,4.2063e-05,5.2721e-05,-1.30381e-05,2.2852e-05
1366,9.8525e-06,1.01517e-05,4.43411e-05,5.19973e-05,-2.07089e-05,1.2246e-05
1367,-2.92743e-06,1.44576e-05,4.15188e-05,5.13251e-05,-2.42572e-05,2.86499e-06
1368,-1.57325e-05,1.5748e-05,3.63232e-05,5.35385e-05,-2.34468e-05,-3.91246e-06
1369,-1.39794e-05,1.44689e-05,3.5597e-05,5.66509e-05,-1.93169e-05,-7.7717e-06
1370,-1.81932e-06,1.27704e-05,4.01644e-05,5.67163e-05,-1.42199e-05,-6.3778e-06
1371,5.17122e-06,1.38385e-05,4.55776e-05,5.43939e-05,-1.08218e-05,6.74734e-07
1372,2.53537e-06,1.66304e-05,4.76209e-05,5.16939e-05,-9.81906e-06,9.72296e-06
1373,-5.01949e-06,1.86463e-05,4.38651e-05,5.06813e-05,-1.14867e-05,1.46115e-05
1374,-1.50701e-05,1.78185e-05,3.58865e-05,4.99018e-05,-1.42346e-05,1.51601e-05
1375,-1.65526e-05,1.38191e-05,3.26836e-05,5.09734e-05,-1.58798e-05,1.76105e-05
1376,-5.43953e-06,1.03359e-05,3.75687e-05,5.14707e-05,-1.72736e-05,2.20541e-05
1377,2.11866e-06,1.02885e-05,4.11333e-05,4.94226e-05,-1.99706e-05,2.24108e-05
1378,-3.32248e-06,1.2402e-05,3.93028e-05,4.55424e-05,-2.16702e-05,1.73068e-05
1379,-1.63048e-05,1.49294e-05,3.68172e-05,4.09873e-05,-2.06513e-05,1.12162e-05
1380,-3.59366e-05,1.49562e-05,3.16022e-05,3.84455e-05,-1.48062e-05,5.00778e-06
1381,-4.25035e-05,1.32338e-05,3.20119e-05,3.98039e-05,-6.0381e-06,-1.82571e-07
1382,-2.28485e-05,1.14875e-05,4.08533e-05,4.48109e-05,-1.39661e-06,1.64745e-06
1383,-9.95946e-06,1.04598e-05,4.65344e-05,5.08669e-05,-3.38697e-06,8.26234e-06
1384,-1.20723e-05,1.12873e-05,4.47939e-05,5.55912e-05,-2.4441e-06,1.48065e-05
1385,-8.77136e-06,1.32558e-05,4.48947e-05,5.83811e-05,2.07682e-06,2.06321e-05
1386,-2.44167e-06,1.36835e-05,4.70224e-05,5.72743e-05,4.28977e-06,2.37738e-05
1387,-1.99933e-08,1.18551e-05,4.63904e-05,5.39561e-05,3.78216e-06,2.28956e-05
1388,-1.15211e-05,1.32329e-05,3.92177e-05,5.02055e-05,1.87899e-06,1.70976e-05
1389,-2.72239e-05,1.6091e-05,2.98757e-05,5.04029e-05,8.45179e-07,1.21256e-05
1390,-2.25259e-05,1.74334e-05,3.23835e-05,5.33413e-05,-3.81623e-06,1.02596e-05
1391,-9.43838e-07,1.75507e-05,4.56382e-05,5.5145e-05,-1.31592e-05,6.51565e-06
1392,1.27233e-05,1.50399e-05,5.59918e-05,5.63196e-05,-2.12222e-05,1.27607e-06
1393,1.03247e-05,1.12433e-05,5.565e-05,5.58001e-05,-2.22684e-05,-8.28651e-07
1394,-3.84783e-06,8.37066e-06,4.70742e-05,5.29559e-05,-1.98786e-05,2.6102e-06
1395,-1.69347e-05,8.32356e-06,3.56847e-05,5.20949e-05,-1.7435e-05,9.07513e-06
1396,-1.41667e-05,1.12203e-05,3.23389e-05,5.48888e-05,-1.5033e-05,1.44332e-05
1397,2.10956e-06,1.49629e-05,3.72244e-05,5.67805e-05,-1.30046e-05,1.69458e-05
1398,1.28924e-05,1.7601e-05,4.18427e-05,5.53923e-05,-1.30447e-05,1.68646e-05
1399,7.89851e-06,1.90564e-05,4.232e-05,5.1586e-05,-1.58426e-05,1.53048e-05
1400,-6.89926e-06,1.97491e-05,3.9311e-05,5.00348e-05,-1.88843e-05,1.46633e-05
1401,-2.19245e-05,1.69623e-05,3.20266e-05,5.17891e-05,-2.08721e-05,1.5858e-05
1402,-2.18317e-05,1.15194e-05,2.83377e-05,5.23108e-05,-1.92624e-05,1.82768e-05
1403,-6.17602e-06,1.06843e-05,3.54303e-05,4.96162e-05,-1.33712e-05,1.95992e-05
1404,5.36995e-06,1.56095e-05,4.301e-05,4.83229e-05,-1.06409e-05,1.89828e-05
1405,1.90902e-06,2.00222e-05,4.34556e-05,4.88163e-05,-1.40101e-05,1.81205e-05
1406,-1.16368e-05,1.97487e-05,3.70032e-05,4.81792e-05,-1.63793e-05,1.65083e-05
1407,-2.79704e-05,1.63667e-05,2.55095e-05,5.07319e-05,-1.53125e-05,1.32158e-05
1408,-2.78746e-05,1.41678e-05,2.04918e-05,5.67866e-05,-1.3356e-05,9.63625e-06
1409,-8.76097e-06,1.25577e-05,2.83823e-05,5.89772e-05,-1.27853e-05,9.60443e-06
1410,1.00405e-06,1.12017e-05,3.34871e-05,5.62953e-05,-1.25569e-05,1.30764e-05
1411,1.11292e-06,9.97058e-06,3.35794e-05,5.36995e-05,-1.33472e-05,1.5849e-05
1412,2.48734e-06,6.75513e-06,3.7242e-05,5.54531e-05,-1.16835e-05,1.6547e-05
1413,3.28102e-07,7.18214e-06,4.05992e-05,5.85189e-05,-6.68564e-06,1.47241e-05
1414,-1.66579e-06,1.13731e-05,4.03153e-05,5.84698e-05,-3.03716e-06,1.05745e-05
1415,-1.16546e-05,1.32325e-05,3.33289e-05,5.52482e-05,-5.63286e-06,7.12128e-06
1416,-2.40607e-05,1.14332e-05,2.55376e-05,5.35319e-05,-1.24134e-05,8.22721e-06
1417,-2.09849e-05,1.07543e-05,2.65243e-05,5.24228e-05,-1.54149e-05,1.20981e-05
1418,-5.12088e-06,1.28284e-05,3.67294e-05,5.15987e-05,-1.24896e-05,1.65826e-05
1419,5.31959e-06,1.42896e-05,4.41009e-05,5.32927e-05,-5.36079e-06,2.20027e-05
1420,6.9796e-06,1.41816e-05,4.20472e-05,5.45509e-05,3.91845e-06,2.47223e-05
1421,8.8988e-07,1.34767e-05,3.18087e-05,5.31596e-05,1.5957e-05,2.13306e-05
1422,-8.61339e-06,1.42592e-05,1.96825e-05,5.27576e-05,2.50156e-05,1.28989e-05
1423,-7.2379e-06,1.59733e-05,1.84296e-05,5.51388e-05,2.12316e-05,4.85633e-06
1424,4.31709e-06,1.75855e-05,2.94602e-05,5.64981e-05,3.71296e-06,2.29233e-06
1425,1.09048e-05,1.8521e-05,4.16579e-05,5.56366e-05,-1.47571e-05,5.21965e-06
1426,6.94635e-06,1.83852e-05,4.72718e-05,5.42288e-05,-2.34016e-05,1.1102e-05
1427,-3.97245e-06,1.74715e-05,4.41952e-05,5.24678e-05,-2.31839e-05,1.53769e-05
1428,-1.91576e-05,1.736e-05,3.2388e-05,5.0542e-05,-1.80221e-05,1.52234e-05
1429,-2.08715e-05,1.88647e-05,2.52633e-05,4.98822e-05,-9.92978e-06,1.43607e-05
1430,-2.04037e-06,2.04832e-05,3.25321e-05,4.93973e-05,-3.38061e-06,1.5741e-05
1431,1.66928e-05,1.94301e-05,4.38513e-05,5.11098e-05,-2.15004e-06,1.63306e-05
1432,1.93196e-05,1.66501e-05,4.78443e-05,5.23242e-05,-3.74175e-06,1.42929e-05
1433,7.9989e-06,1.39431e-05,4.47552e-05,4.90054e-05,-4.24426e-06,1.44237e-05
1434,-1.30364e-05,1.00221e-05,3.7057e-05,4.73715e-05,-3.37579e-06,1.7806e-05
1435,-2.02879e-05,6.30548e-06,3.52603e-05,5.03958e-05,-2.34409e-06,1.89275e-05
1436,-4.46089e-06,4.7403e-06,4.19621e-05,5.42711e-05,-6.36012e-06,1.67247e-05
1437,5.77523e-06,4.3468e-06,4.28793e-05,5.40245e-05,-1.47396e-05,1.45884e-05
1438,6.10067e-06,4.42053e-06,3.96389e-05,5.06433e-05,-2.14687e-05,1.47215e-05
1439,5.46835e-06,4.78452e-06,3.99017e-05,5.24649e-05,-1.75344e-05,1.7454e-05
1440,2.91669e-06,6.28825e-06,4.06941e-05,5.5135e-05,8.27653e-07,2.0003e-05
1441,7.20151e-07,8.61831e-06,4.19568e-05,5.23521e-05,2.26942e-05,1.98058e-05
1442,-8.27528e-06,1.02602e-05,3.8217e-05,4.78668e-05,3.52233e-05,1.81364e-05
1443,-2.00397e-05,1.00397e-05,2.96653e-05,4.68757e-05,2.47332e-05,1.62959e-05
1444,-1.86352e-05,9.53013e-06,2.7077e-05,4.72791e-05,-3.17582e-06,1.52416e-05
1445,-4.88713e-06,1.02016e-05,3.33543e-05,4.75071e-05,-2.52517e-05,1.45742e-05
1446,4.62644e-06,1.14763e-05,3.89301e-05,4.94101e-05,-2.44781e-05,1.30916e-05
1447,5.32484e-06,1.26644e-05,3.99376e-05,5.21882e-05,-7.63396e-06,1.02013e-05
1448,-3.71907e-06,1.27386e-05,3.56949e-05,5.42606e-05,6.69277e-06,7.94009e-06
1449,-1.4096e-05,1.28275e-05,2.96369e-05,5.58465e-05,7.78382e-06,7.316e-06
1450,-1.13582e-05,1.32948e-05,3.05645e-05,5.7806e-05,4.78739e-07,6.25425e-06
1451,2.70054e-06,1.2754e-05,3.84817e-05,5.94469e-05,-6.43931e-06,6.03307e-06
1452,1.03873e-05,1.08518e-05,4.51008e-05,6.1007e-05,-1.02362e-05,7.78813e-06
1453,3.76913e-06,9.32662e-06,4.61114e-05,6.01241e-05,-1.0561e-05,9.81088e-06
1454,-1.15997e-05,9.61298e-06,4.27429e-05,5.59481e-05,-1.03054e-05,1.01142e-05
1455,-2.71622e-05,1.29671e-05,3.49407e-05,5.52421e-05,-1.07793e-05,1.11708e-05
1456,-2.68345e-05,1.71135e-05,3.13125e-05,5.97819e-05,-1.03572e-05,1.41148e-05
1457,-7.50673e-06,1.8083e-05,3.71615e-05,6.18144e-05,-9.13962e-06,1.4609e-05
1458,9.71446e-06,1.66503e-05,4.59223e-05,5.88963e-05,-9.4585e-06,1.13798e-05
1459,8.95909e-06,1.53306e-05,4.99666e-05,5.34025e-05,-9.2047e-06,9.52928e-06
1460,-3.79789e-06,1.60244e-05,4.73183e-05,4.73842e-05,-7.3381e-06,1.0115e-05
1461,-2.34641e-05,1.90093e-05,3.88024e-05,4.57694e-05,-4.46762e-06,1.04565e-05
1462,-2.78444e-05,2.10587e-05,3.40511e-05,5.06275e-05,-1.32075e-06,1.09898e-05
1463,-6.99621e-06,2.07808e-05,3.98497e-05,5.35188e-05,9.96471e-07,1.30034e-05
1464,8.63104e-06,1.97007e-05,4.80098e-05,5.44283e-05,-1.28632e-06,1.47395e-05
1465,1.10806e-05,1.83399e-05,4.81673e-05,5.63498e-05,-4.58195e-06,1.71652e-05
1466,1.12602e-05,1.75601e-05,4.67051e-05,5.74743e-05,-6.04912e-06,2.17985e-05
1467,5.95969e-06,1.60351e-05,4.89837e-05,5.45702e-05,-6.30461e-06,2.3122e-05
1468,-1.56046e-06,1.36593e-05,5.05829e-05,4.60341e-05,-7.05522e-06,2.07926e-05
1469,-1.49975e-05,1.35091e-05,4.57e-05,3.94494e-05,-1.01709e-05,1.8973e-05
1470,-2.99226e-05,1.34534e-05,3.64544e-05,4.22888e-05,-1.16571e-05,1.81916e-05
1471,-2.82739e-05,1.38595e-05,3.42026e-05,4.95446e-05,-1.02524e-05,1.81194e-05
1472,-1.07502e-05,1.39222e-05,3.97362e-05,5.23316e-05,-7.55337e-06,1.80146e-05
1473,2.69642e-06,1.20796e-05,4.36783e-05,5.13072e-05,-6.50287e-06,1.68166e-05
1474,4.04433e-06,1.1637e-05,3.98972e-05,4.90881e-05,-7.95057e-06,1.55594e-05
1475,-7.02413e-06,1.28378e-05,2.89908e-05,4.8024e-05,-1.04199e-05,1.35283e-05
1476,-2.16944e-05,1.39706e-05,1.90601e-05,4.95325e-05,-1.21775e-05,1.04033e-05
1477,-2.36275e-05,1.40534e-05,2.20874e-05,5.22302e-05,-1.32592e-05,7.42065e-06
1478,-1.12921e-05,1.39055e-05,3.59842e-05,5.39779e-05,-1.5417e-05,6.44674e-06
1479,-1.65911e-06,1.31874e-05,4.60173e-05,5.46339e-05,-1.68953e-05,7.14446e-06
1480,-5.34153e-06,1.26e-05,4.45998e-05,5.40438e-05,-1.47094e-05,9.61196e-06
1481,-1.79248e-05,1.2675e-05,3.57667e-05,5.29717e-05,-1.06828e-05,1.38834e-05
1482,-3.06279e-05,1.24276e-05,2.54469e-05,5.28167e-05,-8.17112e-06,1.82176e-05
1483,-2.80294e-05,1.15655e-05,2.20819e-05,5.33147e-05,-7.25272e-06,2.13572e-05
1484,-8.60719e-06,1.12427e-05,2.97655e-05,5.4234e-05,-8.56211e-06,2.12652e-05
1485,8.69174e-06,1.20322e-05,3.83785e-05,5.4463e-05,-1.24347e-05,1.76842e-05
1486,1.16202e-05,1.42383e-05,3.98759e-05,4.99581e-05,-1.33037e-05,1.46766e-05
1487,3.38837e-06,1.63551e-05,3.63567e-05,4.55817e-05,-1.03013e-05,1.5232e-05
1488,-1.36743e-05,1.64068e-05,2.87901e-05,4.72684e-05,-5.62591e-06,1.57302e-05
1489,-1.93339e-05,1.56662e-05,2.41659e-05,5.20023e-05,-2.71594e-06,1.26714e-05
1490,-4.42249e-06,1.48003e-05,2.91254e-05,5.32303e-05,-3.79542e-06,1.10256e-05
1491,5.76309e-06,1.41783e-05,3.69203e-05,4.97279e-05,-4.93191e-06,1.2547e-05
1492,6.48699e-06,1.46695e-05,4.17751e-05,5.01735e-05,-5.62165e-06,1.36155e-05
1493,6.63855e-06,1.44587e-05,4.31359e-05,5.34406e-05,-7.30365e-06,1.47303e-05
1494,6.50563e-06,1.18e-05,3.94432e-05,5.361e-05,-8.32512e-06,1.52515e-05
1495,5.82127e-06,1.08019e-05,3.44726e-05,4.91065e-05,-7.78043e-06,1.71239e-05
1496,-7.90201e-06,1.38176e-05,2.95128e-05,4.54924e-05,-9.75709e-06,1.77552e-05
1497,-2.78252e-05,1.44058e-05,2.4962e-05,4.78141e-05,-1.38018e-05,1.80296e-05
1498,-2.79574e-05,1.2735e-05,2.64876e-05,5.06777e-05,-1.61008e-05,1.82521e-05
1499,-9.77773e-06,1.15281e-05,3.33774e-05,4.93296e-05,-1.50528e-05,1.5296e-05
1500,1.28931e-06,1.00337e-05,3.70688e-05,4.63843e-05,-1.38288e-05,1.33245e-05
1501,-1.84972e-06,1.02449e-05,3.50302e-05,4.4789e-05,-1.36949e-05,1.42056e-05
1502,-1.5959e-05,1.21637e-05,2.87622e-05,4.48372e-05,-1.25688e-05,1.46863e-05
1503,-2.77059e-05,1.33079e-05,2.07327e-05,4.6752e-05,-1.14679e-05,1.35445e-05
1504,-2.50654e-05,1.18399e-05,2.06678e-05,4.95392e-05,-1.11997e-05,1.30905e-05
1505,-1.35137e-05,1.13378e-05,3.05532e-05,5.0381e-05,-1.14029e-05,1.26643e-05
1506,-7.90554e-06,1.31084e-05,3.8611e-05,4.64131e-05,-1.07767e-05,1.16441e-05
1507,-1.15671e-05,1.5253e-05,3.73057e-05,3.95798e-05,-8.68087e-06,1.1037e-05
1508,-1.96365e-05,1.6388e-05,3.11897e-05,3.5972e-05,-4.96309e-06,1.22921e-05
1509,-2.72507e-05,1.54897e-05,2.57334e-05,4.00846e-05,-3.71024e-06,1.33851e-05
1510,-2.25926e-05,1.26821e-05,2.54733e-05,4.81298e-05,-9.01352e-06,1.4121e-05
1511,-7.32751e-06,1.18941e-05,3.25323e-05,5.18309e-05,-1.82926e-05,1.75285e-05
1512,2.30157e-06,1.44744e-05,4.15655e-05,4.91792e-05,-2.39699e-05,2.30126e-05
1513,-5.98832e-07,1.68625e-05,4.3906e-05,4.52702e-05,-2.30121e-05,2.63616e-05
1514,-1.23658e-05,1.58884e-05,3.75821e-05,4.16419e-05,-1.69501e-05,2.53179e-05
1515,-3.15614e-05,1.16693e-05,2.77062e-05,4.17108e-05,-1.17147e-05,1.96792e-05
1516,-3.58106e-05,9.76913e-06,2.55704e-05,4.53202e-05,-1.16728e-05,1.34662e-05
1517,-1.42702e-05,1.3021e-05,3.60826e-05,4.67582e-05,-1.02256e-05,1.37294e-05
1518,3.75572e-06,1.57216e-05,4.17647e-05,4.76457e-05,-5.43803e-06,1.64977e-05
1519,9.67529e-06,1.56029e-05,4.04968e-05,4.84188e-05,-2.57967e-06,1.74288e-05
1520,1.41798e-05,1.47969e-05,3.92875e-05,4.72377e-05,-1.5862e-06,1.64914e-05
1521,1.37496e-05,1.47079e-05,3.82307e-05,4.60925e-05,-2.90617e-06,1.36671e-05
1522,8.54423e-06,1.40122e-05,3.80687e-05,4.61485e-05,-7.60625e-06,1.28191e-05
1523,-7.16497e-06,1.15559e-05,3.28604e-05,4.71785e-05,-1.3343e-05,1.10986e-05
1524,-2.06431e-05,1.02544e-05,2.72307e-05,4.97439e-05,-1.57244e-05,7.781e-06
1525,-1.21518e-05,8.5265e-06,2.83803e-05,5.25549e-05,-1.35726e-05,8.425e-06
1526,9.23503e-06,6.8844e-06,3.83898e-05,5.47483e-05,-1.11061e-05,1.16721e-05
1527,2.01149e-05,7.38687e-06,4.72897e-05,5.56933e-05,-1.27157e-05,1.25196e-05
1528,1.38701e-05,1.10212e-05,4.66896e-05,5.50341e-05,-1.74638e-05,1.07472e-05
1529,-4.70023e-06,1.45008e-05,3.659e-05,5.40572e-05,-2.10392e-05,8.85662e-06
1530,-2.13968e-05,1.48109e-05,2.38393e-05,5.5681e-05,-2.03117e-05,8.67205e-06
1531,-2.1959e-05,1.21022e-05,1.98918e-05,5.94345e-05,-1.73671e-05,1.12902e-05
1532,-1.12405e-05,9.23973e-06,2.6793e-05,6.21227e-05,-1.53792e-05,1.46671e-05
1533,-4.13233e-06,9.37805e-06,3.46252e-05,6.24518e-05,-1.39771e-05,1.61343e-05
1534,-4.19633e-06,1.14576e-05,3.76381e-05,5.97978e-05,-1.37181e-05,1.57048e-05
1535,-1.04629e-05,1.34233e-05,3.58101e-05,5.51473e-05,-1.33927e-05,1.37186e-05
1536,-2.4619e-05,1.40056e-05,2.86347e-05,5.21764e-05,-1.27283e-05,1.24999e-05
1537,-2.9938e-05,1.42049e-05,2.67742e-05,5.29975e-05,-1.19295e-05,1.39648e-05
1538,-1.65845e-05,1.47482e-05,3.6611e-05,5.56001e-05,-1.0004e-05,1.63707e-05
1539,-1.18392e-06,1.38953e-05,4.79708e-05,5.74429e-05,-8.47741e-06,1.76115e-05
1540,2.46995e-06,1.20092e-05,5.16143e-05,5.76321e-05,-8.83773e-06,1.47633e-05
1541,-4.91128e-06,1.28139e-05,4.88231e-05,5.77525e-05,-8.85678e-06,9.93567e-06
1542,-2.28737e-05,1.43967e-05,3.78485e-05,6.04755e-05,-6.59886e-06,6.93174e-06
1543,-2.96396e-05,1.12343e-05,3.09507e-05,6.42981e-05,-3.27797e-06,6.57435e-06
1544,-1.17488e-05,3.97934e-06,3.97337e-05,6.63266e-05,-4.04658e-06,1.25489e-05
1545,1.50238e-07,4.23912e-06,4.75055e-05,6.43279e-05,-8.87119e-06,1.58695e-05
1546,-1.89962e-06,1.07357e-05,4.77653e-05,6.1212e-05,-1.19472e-05,1.38267e-05
1547,-9.61295e-08,1.2225e-05,4.96669e-05,6.10797e-05,-1.04009e-05,1.70942e-05
1548,5.04177e-06,1.07304e-05,5.20364e-05,6.22583e-05,-6.86071e-06,2.16715e-05
1549,7.64746e-06,1.02618e-05,5.12665e-05,6.26825e-05,-6.11405e-06,2.04655e-05
1550,-4.07173e-06,1.11777e-05,4.20428e-05,6.05285e-05,-7.95204e-06,1.59044e-05
1551,-1.85361e-05,1.08683e-05,2.9817e-05,6.03606e-05,-9.55491e-06,1.38611e-05
1552,-1.31955e-05,1.02719e-05,2.68553e-05,6.20014e-05,-1.16388e-05,1.39182e-05
