Time_Index,DELTOID_Affected,DELTOID_NonAffected,BICEPS_Affected,BICEPS_NonAffected,FOREARM_Affected,FOREARM_NonAffected
1,-1.64333e-05,1.54358e-05,3.15797e-05,4.65238e-05,-1.40953e-05,2.7358e-05
2,-2.89371e-05,1.15242e-05,2.8701e-05,5.55134e-05,-1.20031e-05,2.42429e-05
3,-8.9602e-06,7.17339e-06,4.02841e-05,6.16596e-05,-8.79641e-06,2.614e-05
4,6.4207e-06,4.82737e-06,5.0049e-05,5.93657e-05,-9.7549e-06,2.1121e-05
5,2.81826e-06,2.90295e-06,4.88767e-05,5.49971e-05,-1.13456e-05,1.15426e-05
6,-6.13104e-07,1.12918e-06,4.48788e-05,5.58352e-05,-7.3126e-06,1.30662e-05
7,-5.85431e-07,-3.44746e-07,4.04815e-05,5.37114e-05,-2.88405e-06,2.23633e-05
8,3.0414e-06,-5.23955e-07,3.54341e-05,4.92276e-05,-1.94645e-06,2.81234e-05
9,-7.74816e-06,2.18501e-06,3.15838e-05,4.8412e-05,-5.60219e-06,2.15355e-05
10,-2.76372e-05,3.823e-06,2.84492e-05,5.14368e-05,-7.95472e-06,8.82221e-06
11,-2.61362e-05,4.8046e-06,2.98529e-05,5.37629e-05,-9.13382e-06,3.9393e-06
12,-4.98545e-06,5.76682e-06,3.62304e-05,5.3555e-05,-9.44184e-06,9.953e-06
13,1.0166e-05,7.10229e-06,4.061e-05,5.41675e-05,-8.08673e-06,1.66581e-05
14,1.00732e-05,9.04543e-06,4.04883e-05,5.30013e-05,-7.6259e-06,1.58213e-05
15,-6.87921e-06,1.10004e-05,3.39451e-05,4.93909e-05,-8.29125e-06,1.12084e-05
16,-2.76406e-05,1.29032e-05,2.47343e-05,4.80454e-05,-8.8022e-06,9.55142e-06
17,-2.83089e-05,1.56983e-05,2.37504e-05,5.16142e-05,-8.9038e-06,1.44554e-05
18,-8.58937e-06,1.84808e-05,3.35733e-05,5.49818e-05,-1.05931e-05,1.89024e-05
19,8.9183e-06,1.92553e-05,4.1154e-05,5.47873e-05,-1.20928e-05,1.6148e-05
20,1.07945e-05,1.79765e-05,3.87221e-05,5.13349e-05,-1.29745e-05,9.02789e-06
21,-2.1132e-06,1.47031e-05,3.0674e-05,4.58858e-05,-1.42388e-05,4.53139e-06
22,-2.34017e-05,8.65994e-06,2.11839e-05,4.24423e-05,-1.5286e-05,1.10403e-06
23,-2.81658e-05,2.68496e-06,2.03447e-05,4.25596e-05,-1.61297e-05,-3.23721e-06
24,-7.49428e-06,3.14772e-06,3.04005e-05,4.21389e-05,-1.74067e-05,-5.22151e-06
25,1.05205e-05,7.22286e-06,3.97407e-05,4.11209e-05,-1.57403e-05,-7.43916e-07
26,9.1429e-06,8.79674e-06,4.08554e-05,3.95877e-05,-1.04019e-05,6.54803e-06
27,-3.70802e-06,6.21919e-06,3.75072e-05,3.84787e-05,-6.30711e-06,9.06821e-06
28,-2.92937e-05,2.34187e-06,2.95488e-05,3.96789e-05,-6.4357e-06,7.28696e-06
29,-4.15899e-05,1.59719e-08,2.42729e-05,4.37761e-05,-9.36537e-06,9.32076e-06
30,-1.98131e-05,3.10875e-06,3.177e-05,4.94017e-05,-1.10781e-05,1.64521e-05
31,-1.32425e-06,9.47015e-06,3.79533e-05,5.2002e-05,-1.26623e-05,2.07842e-05
32,-5.17848e-07,1.3362e-05,3.84437e-05,4.98676e-05,-1.22871e-05,1.98617e-05
33,7.917e-07,1.5751e-05,3.97073e-05,4.8175e-05,-1.1436e-05,1.56208e-05
34,5.53349e-06,1.76152e-05,4.09108e-05,4.9481e-05,-1.36702e-05,1.02768e-05
35,8.06487e-06,1.88457e-05,4.32057e-05,4.85327e-05,-1.42986e-05,1.06043e-05
36,-3.51434e-06,2.05034e-05,4.01427e-05,4.63425e-05,-1.33695e-05,1.00805e-05
37,-2.28878e-05,1.80567e-05,3.09268e-05,5.02473e-05,-1.16302e-05,6.93288e-06
38,-2.25912e-05,1.21774e-05,2.94507e-05,5.78182e-05,-8.9171e-06,8.29607e-06
39,-9.16174e-07,8.4077e-06,3.54224e-05,6.13257e-05,-6.55127e-06,1.59589e-05
40,1.42462e-05,7.78234e-06,4.00701e-05,5.67737e-05,-7.68447e-06,2.60338e-05
41,1.71505e-05,9.68185e-06,4.17223e-05,4.87036e-05,-9.40523e-06,3.0961e-05
42,5.47375e-06,1.48615e-05,3.66784e-05,4.50753e-05,-9.99177e-06,2.76411e-05
43,-1.50676e-05,1.80646e-05,2.9298e-05,4.81901e-05,-1.10309e-05,2.0672e-05
44,-2.02563e-05,1.45804e-05,2.9812e-05,5.2988e-05,-1.07211e-05,1.92599e-05
45,-3.31454e-06,8.01037e-06,4.02575e-05,5.41488e-05,-1.01629e-05,2.53258e-05
46,1.19649e-05,5.83434e-06,5.04982e-05,5.34621e-05,-1.09074e-05,3.1946e-05
47,1.11037e-05,1.0871e-05,5.36625e-05,5.20774e-05,-1.24495e-05,3.21307e-05
48,-6.24542e-07,1.66746e-05,4.92099e-05,4.8445e-05,-1.53839e-05,2.44974e-05
49,-1.68073e-05,1.55405e-05,4.10556e-05,4.5523e-05,-1.59674e-05,1.53658e-05
50,-2.12289e-05,9.2765e-06,3.66942e-05,4.72906e-05,-9.39861e-06,1.40225e-05
51,-8.39111e-06,6.38329e-06,3.90374e-05,5.12935e-05,-2.4666e-06,1.73393e-05
52,7.13436e-06,8.96277e-06,4.25321e-05,5.65029e-05,-4.19101e-06,1.76964e-05
53,1.51522e-05,1.43205e-05,4.27308e-05,5.84648e-05,-1.06319e-05,1.09569e-05
54,8.79574e-06,1.6402e-05,3.84729e-05,5.57722e-05,-1.02694e-05,3.81915e-06
55,-1.85008e-05,1.1019e-05,3.16127e-05,5.36235e-05,-6.71935e-06,7.36191e-07
56,-3.29563e-05,5.18756e-06,3.13691e-05,5.44407e-05,-5.88785e-06,2.2071e-06
57,-8.67709e-06,3.91757e-06,3.84745e-05,5.99671e-05,-3.93317e-06,1.34064e-05
58,1.10037e-05,2.45749e-06,4.30355e-05,6.2648e-05,5.70094e-07,2.08537e-05
59,1.39242e-05,1.29408e-06,4.48458e-05,5.85303e-05,6.10758e-07,1.6551e-05
60,1.65579e-05,3.14454e-06,4.80199e-05,5.62716e-05,-1.34403e-06,1.35982e-05
61,1.31824e-05,7.95188e-06,5.2602e-05,5.61171e-05,-3.59314e-06,1.63832e-05
62,1.06931e-05,1.37258e-05,5.57259e-05,5.32753e-05,-6.16641e-06,2.04682e-05
63,-1.68624e-06,1.47937e-05,4.65357e-05,5.116e-05,-6.89361e-06,1.75444e-05
64,-1.73451e-05,9.2149e-06,3.09958e-05,5.51154e-05,-6.89102e-06,8.90865e-06
65,-1.54821e-05,6.29205e-06,2.87933e-05,6.11233e-05,-6.84564e-06,4.01017e-06
66,1.40602e-06,8.68641e-06,3.9046e-05,6.32768e-05,-9.36824e-06,6.50921e-06
67,9.06078e-06,1.29628e-05,4.60327e-05,5.91698e-05,-1.12731e-05,9.41985e-06
68,4.54058e-06,1.70156e-05,4.46286e-05,5.03654e-05,-9.88377e-06,1.04017e-05
69,-8.99248e-06,1.92059e-05,3.68291e-05,4.39776e-05,-7.93847e-06,1.02584e-05
70,-2.33497e-05,1.56696e-05,2.73891e-05,4.67475e-05,-7.27221e-06,7.28503e-06
71,-2.16105e-05,1.19506e-05,2.69661e-05,5.34668e-05,-6.6283e-06,3.85838e-06
72,-3.58267e-06,1.30338e-05,3.63662e-05,5.53708e-05,-7.21675e-06,5.09661e-06
73,1.32672e-05,1.67299e-05,4.31225e-05,5.25205e-05,-1.00472e-05,8.57205e-06
74,1.79379e-05,2.06517e-05,4.37582e-05,4.66312e-05,-1.17298e-05,1.17079e-05
75,1.22094e-05,2.42042e-05,3.89737e-05,4.30195e-05,-9.78955e-06,1.50233e-05
76,-4.44004e-06,2.45727e-05,3.03249e-05,4.87019e-05,-7.33555e-06,1.48198e-05
77,-1.34593e-05,2.01132e-05,3.00938e-05,5.87269e-05,-4.94244e-06,1.41845e-05
78,-2.237e-06,1.53867e-05,4.30145e-05,6.33734e-05,-2.36754e-06,1.96111e-05
79,1.12156e-05,1.30009e-05,5.23446e-05,6.14118e-05,-3.18239e-06,2.81909e-05
80,1.0788e-05,1.42765e-05,4.93713e-05,5.25757e-05,-3.07328e-06,3.11061e-05
81,-1.07334e-06,1.37943e-05,3.92325e-05,4.42036e-05,-6.06395e-07,2.84035e-05
82,-2.64759e-05,1.01043e-05,2.51596e-05,4.48329e-05,-2.73273e-06,2.01475e-05
83,-3.54796e-05,7.37272e-06,2.1819e-05,5.23985e-05,-3.82599e-06,1.08701e-05
84,-1.54869e-05,8.29119e-06,3.45741e-05,6.18574e-05,-3.28011e-06,9.03938e-06
85,-5.82826e-06,1.43877e-05,4.32917e-05,5.8476e-05,-6.40153e-06,1.377e-05
86,-9.55986e-06,1.93607e-05,4.0638e-05,4.6806e-05,-8.92735e-06,1.88444e-05
87,-7.74612e-06,1.57199e-05,3.57285e-05,4.71551e-05,-8.48935e-06,1.8102e-05
88,-3.6027e-06,1.07603e-05,3.43291e-05,5.1736e-05,-7.91165e-06,1.47348e-05
89,2.60941e-07,9.87012e-06,3.61655e-05,5.08845e-05,-6.77071e-06,1.66903e-05
90,-1.3951e-05,1.06576e-05,3.30556e-05,4.6347e-05,-4.35735e-06,1.64115e-05
91,-3.61609e-05,9.37726e-06,2.55641e-05,4.49358e-05,-2.22238e-06,9.40083e-06
92,-3.28225e-05,1.07319e-05,2.45374e-05,4.64763e-05,-3.86368e-06,4.04209e-06
93,-5.55214e-06,1.34695e-05,3.18707e-05,4.72725e-05,-8.11048e-06,1.12235e-05
94,1.2945e-05,1.44129e-05,3.88895e-05,4.96993e-05,-1.18006e-05,2.11619e-05
95,1.03106e-05,1.62504e-05,4.12992e-05,5.18187e-05,-1.46271e-05,2.21772e-05
96,-8.35902e-06,1.8303e-05,3.5775e-05,5.20647e-05,-1.61809e-05,1.43144e-05
97,-3.00748e-05,1.37596e-05,2.62373e-05,5.38632e-05,-1.65214e-05,3.39357e-06
98,-3.49142e-05,4.60253e-06,2.49706e-05,5.82725e-05,-1.60888e-05,9.47847e-07
99,-2.05297e-05,-9.11496e-09,3.44852e-05,6.0649e-05,-1.66434e-05,7.60943e-06
100,-4.53516e-06,3.88482e-06,4.28815e-05,5.97798e-05,-1.74864e-05,1.45331e-05
101,2.76897e-07,1.23685e-05,4.25632e-05,5.65072e-05,-1.8038e-05,1.76616e-05
102,-6.48925e-06,1.73043e-05,3.53789e-05,5.41487e-05,-1.8103e-05,1.88762e-05
103,-2.26063e-05,1.40532e-05,2.52458e-05,5.69574e-05,-1.6592e-05,1.67598e-05
104,-2.92449e-05,6.267e-06,2.31299e-05,6.26436e-05,-1.27204e-05,1.5025e-05
105,-1.56728e-05,3.01212e-06,3.36093e-05,6.37309e-05,-8.40285e-06,1.77134e-05
106,-5.23501e-07,7.59052e-06,4.24578e-05,6.09683e-05,-3.61854e-06,2.07616e-05
107,-9.57974e-07,1.55334e-05,3.6556e-05,5.69504e-05,8.60009e-07,1.86947e-05
108,-1.24986e-05,1.83045e-05,2.3897e-05,5.12849e-05,1.96151e-06,1.34712e-05
109,-3.78585e-05,1.1096e-05,1.48379e-05,5.05957e-05,-4.51989e-06,5.61515e-06
110,-4.71901e-05,-6.39773e-07,1.73407e-05,5.47276e-05,-1.26157e-05,7.72382e-07
111,-2.13418e-05,-8.40821e-07,2.99427e-05,5.74783e-05,-1.5277e-05,4.32444e-06
112,-4.12591e-06,8.43516e-06,3.73979e-05,5.84315e-05,-1.55224e-05,7.41974e-06
113,-3.44071e-08,1.10752e-05,4.08244e-05,5.91374e-05,-1.74514e-05,3.32773e-06
114,6.56527e-06,4.83437e-06,4.36878e-05,5.65642e-05,-2.06747e-05,5.12116e-07
115,7.70343e-06,3.12895e-06,4.53281e-05,5.13655e-05,-2.16242e-05,3.80747e-06
116,7.11086e-06,6.733e-06,4.39204e-05,4.7847e-05,-1.84346e-05,8.92688e-06
117,-6.76503e-06,1.21507e-05,3.41776e-05,4.73271e-05,-1.36064e-05,8.57287e-06
118,-2.832e-05,1.34029e-05,2.51253e-05,5.09483e-05,-1.12485e-05,3.89018e-08
119,-2.72176e-05,1.25728e-05,2.76205e-05,5.33433e-05,-9.50612e-06,-4.84412e-06
120,-2.26972e-06,1.29027e-05,3.75161e-05,5.53732e-05,-9.11531e-06,1.16215e-06
121,1.57237e-05,1.47639e-05,4.16965e-05,5.73193e-05,-9.04276e-06,1.07035e-05
122,1.81161e-05,1.95641e-05,3.8451e-05,5.6367e-05,-9.56686e-06,1.60693e-05
123,5.93199e-06,2.32775e-05,3.02938e-05,5.32022e-05,-1.17909e-05,1.31826e-05
124,-1.07676e-05,2.36969e-05,2.27539e-05,5.10871e-05,-1.19577e-05,3.59702e-06
125,-1.05015e-05,2.08256e-05,2.49544e-05,5.02022e-05,-6.60693e-06,-6.7813e-07
126,7.70429e-06,1.81644e-05,3.52325e-05,4.95887e-05,-2.4877e-06,8.52134e-06
127,2.16845e-05,1.78449e-05,4.19739e-05,5.08254e-05,-4.95343e-06,2.23816e-05
128,2.03895e-05,2.02704e-05,4.20161e-05,5.24297e-05,-8.19984e-06,2.86125e-05
129,6.5767e-06,2.20673e-05,3.83105e-05,5.31922e-05,-7.93265e-06,2.38733e-05
130,-1.42864e-05,2.15917e-05,3.02896e-05,5.37811e-05,-5.10244e-06,1.72046e-05
131,-1.92177e-05,1.74711e-05,2.5449e-05,5.54489e-05,-7.22032e-07,2.06774e-05
132,-3.37524e-06,1.34048e-05,3.30619e-05,5.64056e-05,2.51153e-06,3.20452e-05
133,9.6214e-06,1.41893e-05,4.37471e-05,5.75735e-05,3.26018e-06,3.46664e-05
134,6.54847e-06,1.74854e-05,4.67984e-05,5.56229e-05,3.39043e-06,2.54227e-05
135,-5.39774e-06,1.97636e-05,4.23332e-05,4.99463e-05,3.26217e-07,1.84006e-05
136,-2.71885e-05,1.78045e-05,3.21011e-05,4.66353e-05,-5.87313e-06,1.65528e-05
137,-3.37136e-05,1.20595e-05,2.88941e-05,4.52317e-05,-1.03046e-05,1.7614e-05
138,-1.02169e-05,1.04836e-05,4.07357e-05,4.45295e-05,-7.59951e-06,2.18414e-05
139,8.30106e-06,1.36253e-05,4.98741e-05,4.36748e-05,-4.22669e-06,2.4012e-05
140,1.22037e-05,1.69447e-05,4.89344e-05,4.46328e-05,-3.26232e-06,2.30921e-05
141,1.47214e-05,1.57792e-05,4.61618e-05,4.69482e-05,-1.42007e-06,2.37759e-05
142,1.48279e-05,1.34453e-05,4.28679e-05,4.70628e-05,2.6743e-07,2.38069e-05
143,1.52721e-05,1.44789e-05,4.39641e-05,4.49753e-05,3.97899e-08,1.92754e-05
144,1.45428e-06,1.98373e-05,4.16755e-05,4.00144e-05,-2.19734e-06,1.21117e-05
145,-2.21013e-05,2.15472e-05,3.40293e-05,3.90461e-05,-2.23218e-06,7.57285e-06
146,-2.13821e-05,1.83825e-05,3.50978e-05,4.20913e-05,-1.96703e-06,8.29195e-06
147,3.73861e-06,1.58972e-05,4.50432e-05,4.50002e-05,-3.77519e-06,1.49833e-05
148,2.10062e-05,1.6277e-05,4.883e-05,4.47236e-05,-3.77153e-06,1.86217e-05
149,1.76924e-05,2.03934e-05,4.60361e-05,4.26346e-05,-2.35249e-06,1.55791e-05
150,-2.09509e-06,2.10201e-05,3.89537e-05,4.19538e-05,-1.38576e-06,9.36193e-06
151,-2.28282e-05,1.55541e-05,3.19626e-05,4.66642e-05,1.18398e-08,3.57704e-06
152,-2.08028e-05,1.03608e-05,3.39296e-05,5.51339e-05,2.50131e-06,1.48435e-06
153,1.73613e-06,8.39433e-06,4.44315e-05,6.03491e-05,3.80252e-06,5.2132e-06
154,2.04738e-05,5.93551e-06,5.22867e-05,5.95603e-05,2.86071e-06,1.15595e-05
155,2.17164e-05,3.45734e-06,5.24802e-05,5.33266e-05,1.30743e-06,1.38857e-05
156,6.77635e-06,2.31651e-06,4.80146e-05,4.70198e-05,-2.28806e-06,1.10016e-05
157,-1.60119e-05,2.32155e-06,3.89466e-05,4.49965e-05,-6.45842e-06,4.8241e-06
158,-2.4081e-05,1.3358e-06,3.41924e-05,4.68064e-05,-7.30953e-06,3.77186e-06
159,-1.02756e-05,-5.11915e-07,3.91318e-05,4.9695e-05,-6.2828e-06,1.07497e-05
160,4.04219e-06,2.03657e-07,4.55672e-05,5.5276e-05,-7.99358e-06,2.07953e-05
161,5.22955e-06,3.39363e-06,4.76289e-05,5.71812e-05,-1.01479e-05,2.43916e-05
162,-4.37011e-06,4.36429e-06,4.66864e-05,5.09175e-05,-1.26657e-05,2.20418e-05
163,-2.72273e-05,2.71315e-06,3.80434e-05,4.42131e-05,-1.634e-05,1.73861e-05
164,-3.79631e-05,1.79082e-06,3.1935e-05,4.26972e-05,-1.76918e-05,1.45757e-05
165,-1.91465e-05,6.40481e-06,3.70069e-05,4.37294e-05,-1.70003e-05,1.5806e-05
166,-6.0181e-06,9.64147e-06,4.10067e-05,4.55014e-05,-1.79829e-05,1.65542e-05
167,-5.05843e-06,1.0424e-05,4.17669e-05,4.75015e-05,-2.00562e-05,2.1832e-05
168,-1.68034e-06,1.06673e-05,4.18623e-05,4.81973e-05,-2.08083e-05,2.41811e-05
169,2.60175e-06,1.23735e-05,3.97562e-05,4.83213e-05,-1.84238e-05,1.96143e-05
170,3.26521e-06,1.79152e-05,3.95376e-05,4.88536e-05,-1.21515e-05,1.63531e-05
171,-1.40269e-05,1.82201e-05,3.56619e-05,4.63564e-05,-9.00958e-06,1.33514e-05
172,-3.79726e-05,1.45763e-05,3.08076e-05,4.35873e-05,-7.99182e-06,7.40553e-06
173,-3.54825e-05,1.14916e-05,3.33502e-05,4.26089e-05,-6.09878e-06,1.3042e-06
174,-8.47548e-06,1.03676e-05,4.09731e-05,4.54595e-05,-3.51183e-06,5.22628e-06
175,8.70809e-06,1.02804e-05,4.40854e-05,5.00643e-05,-4.78871e-06,1.46417e-05
176,7.44224e-06,1.31809e-05,4.1607e-05,5.02871e-05,-9.81943e-06,2.00567e-05
177,-1.01709e-05,1.74257e-05,3.62205e-05,4.59171e-05,-1.25905e-05,1.41291e-05
178,-2.88991e-05,1.69017e-05,2.99901e-05,4.32564e-05,-1.41786e-05,-1.81077e-06
179,-2.61061e-05,1.40217e-05,2.88517e-05,4.60112e-05,-1.50514e-05,-9.31381e-06
180,-4.93496e-06,1.08695e-05,3.37491e-05,5.01956e-05,-1.41271e-05,-1.31562e-06
181,7.70011e-06,8.75505e-06,3.85643e-05,5.23146e-05,-1.36654e-05,9.13583e-06
182,2.22077e-06,9.58811e-06,4.05266e-05,4.95552e-05,-1.62732e-05,1.51762e-05
183,-1.15542e-05,1.27708e-05,3.77132e-05,4.51649e-05,-1.73896e-05,1.72058e-05
184,-2.83747e-05,1.40839e-05,2.68833e-05,4.6776e-05,-1.4428e-05,1.28651e-05
185,-3.13428e-05,1.28153e-05,1.86382e-05,5.35026e-05,-1.11937e-05,7.63844e-06
186,-1.04871e-05,1.10915e-05,2.00156e-05,5.53054e-05,-1.13599e-05,9.36848e-06
187,1.14842e-05,9.5449e-06,2.50217e-05,5.17887e-05,-1.28166e-05,1.31142e-05
188,1.05011e-05,1.15856e-05,2.87867e-05,4.77201e-05,-1.41623e-05,1.40122e-05
189,-8.82403e-06,1.72146e-05,2.90875e-05,4.43771e-05,-1.50092e-05,1.61714e-05
190,-3.88559e-05,1.82582e-05,2.27527e-05,4.41363e-05,-1.50818e-05,1.68373e-05
191,-5.02315e-05,1.496e-05,2.3028e-05,4.99291e-05,-1.39131e-05,1.91659e-05
192,-2.77361e-05,1.18902e-05,3.56593e-05,5.6223e-05,-1.36633e-05,2.36273e-05
193,-1.15924e-05,1.10938e-05,3.90995e-05,5.64729e-05,-1.38525e-05,2.09508e-05
194,-1.2253e-05,1.34956e-05,3.64708e-05,5.62774e-05,-1.67944e-05,1.60531e-05
195,-1.16091e-05,1.05316e-05,4.16612e-05,6.00302e-05,-1.99833e-05,1.68834e-05
196,-1.00001e-05,2.82349e-06,4.19905e-05,5.98931e-05,-1.68558e-05,2.22055e-05
197,-6.6891e-06,3.781e-06,3.43926e-05,5.2387e-05,-1.10439e-05,2.20651e-05
198,-1.56969e-05,1.15365e-05,2.50614e-05,4.75792e-05,-6.62735e-06,9.47946e-06
199,-3.5026e-05,1.1596e-05,2.26865e-05,5.13801e-05,-6.60393e-06,-1.23541e-06
200,-3.33981e-05,8.90763e-06,2.98122e-05,5.45762e-05,-9.04219e-06,2.9868e-06
201,-1.02132e-05,9.42247e-06,3.89551e-05,5.35181e-05,-1.01076e-05,1.43537e-05
202,4.85286e-06,1.25262e-05,4.14764e-05,5.10877e-05,-8.93545e-06,2.10232e-05
203,5.0609e-06,1.59598e-05,4.08113e-05,4.92399e-05,-8.62131e-06,2.21203e-05
204,-6.28192e-06,1.76934e-05,3.81237e-05,4.95532e-05,-8.07397e-06,2.05823e-05
205,-1.96993e-05,1.56975e-05,3.34265e-05,5.40942e-05,-6.39933e-06,1.68422e-05
206,-1.83553e-05,1.08728e-05,3.28652e-05,5.88264e-05,-4.67667e-06,1.48213e-05
207,-5.29741e-07,1.00265e-05,3.6153e-05,6.06794e-05,-5.53346e-06,1.83695e-05
208,1.53984e-05,1.30917e-05,3.53332e-05,5.87581e-05,-8.58381e-06,2.30887e-05
209,1.67339e-05,1.43977e-05,3.03526e-05,5.24871e-05,-9.1049e-06,2.24172e-05
210,8.9322e-07,1.21901e-05,2.72912e-05,4.72391e-05,-5.657e-06,1.48984e-05
211,-2.31893e-05,1.04628e-05,2.54276e-05,4.92215e-05,-1.13877e-06,7.14167e-06
212,-2.89575e-05,9.94455e-06,2.78122e-05,5.68698e-05,4.33457e-07,6.11035e-06
213,-1.00343e-05,9.69694e-06,3.57669e-05,6.18557e-05,-1.74652e-06,1.14949e-05
214,7.50228e-06,9.27249e-06,4.25756e-05,6.19953e-05,-8.48938e-06,1.66753e-05
215,6.39735e-06,1.03901e-05,4.29304e-05,5.81783e-05,-1.38204e-05,1.85084e-05
216,-6.71132e-06,1.12546e-05,3.8301e-05,5.2408e-05,-1.28038e-05,1.60892e-05
217,-2.94072e-05,1.0199e-05,2.85705e-05,5.15115e-05,-8.79417e-06,1.07543e-05
218,-3.55249e-05,9.08008e-06,2.35534e-05,5.58126e-05,-6.34173e-06,1.32744e-05
219,-9.62484e-06,8.23397e-06,3.05442e-05,5.53318e-05,-6.16718e-06,2.39343e-05
220,2.4799e-06,6.85737e-06,3.63183e-05,4.89197e-05,-7.84163e-06,2.27131e-05
221,-4.14188e-06,8.22674e-06,3.87857e-05,4.83673e-05,-1.38787e-05,1.23167e-05
222,2.48826e-06,9.70281e-06,4.35328e-05,5.34894e-05,-1.79783e-05,7.53234e-06
223,1.14659e-05,8.43102e-06,4.4771e-05,5.05609e-05,-1.50621e-05,8.93351e-06
224,9.95156e-06,1.03041e-05,4.50637e-05,4.29478e-05,-8.23313e-06,1.55086e-05
225,-1.20601e-05,1.53547e-05,3.90185e-05,3.97369e-05,-4.28423e-06,1.9705e-05
226,-3.93978e-05,1.80313e-05,3.03612e-05,4.39595e-05,-4.43409e-06,1.8839e-05
227,-3.87449e-05,1.50714e-05,2.9692e-05,4.76059e-05,-5.23834e-06,1.73986e-05
228,-1.08212e-05,8.69412e-06,3.69969e-05,5.0342e-05,-5.78126e-06,2.10264e-05
229,1.14038e-05,5.19232e-06,4.18432e-05,5.15974e-05,-7.7449e-06,2.13036e-05
230,1.26393e-05,8.55155e-06,4.15451e-05,4.89287e-05,-9.51234e-06,1.86442e-05
231,-1.86282e-06,1.3948e-05,3.63582e-05,4.73998e-05,-8.77984e-06,1.81157e-05
232,-1.66099e-05,1.33722e-05,2.77602e-05,5.11116e-05,-8.69822e-06,1.97846e-05
233,-1.4461e-05,8.93042e-06,2.7612e-05,5.6388e-05,-6.42743e-06,1.96401e-05
234,1.65119e-06,6.70553e-06,3.8187e-05,5.79523e-05,-3.65583e-06,1.85484e-05
235,1.45454e-05,8.14254e-06,4.8185e-05,5.645e-05,-4.07844e-06,2.183e-05
236,1.7195e-05,1.23375e-05,5.01319e-05,4.97002e-05,-6.68874e-06,2.77812e-05
237,9.11336e-06,1.75078e-05,4.58817e-05,4.28353e-05,-7.49639e-06,3.26217e-05
238,-9.45213e-06,1.8733e-05,3.48442e-05,4.56857e-05,-7.76234e-06,2.87402e-05
239,-1.57839e-05,1.45935e-05,2.98042e-05,5.4319e-05,-9.77907e-06,1.84743e-05
240,1.97308e-06,9.96095e-06,3.9066e-05,5.6906e-05,-1.13502e-05,1.46217e-05
241,2.0514e-05,7.94664e-06,4.95456e-05,5.5076e-05,-1.24518e-05,1.96611e-05
242,2.15566e-05,9.14167e-06,4.97249e-05,5.11584e-05,-1.38857e-05,2.22649e-05
243,7.70414e-06,1.24398e-05,4.36465e-05,4.59891e-05,-1.52063e-05,2.02673e-05
244,-2.00927e-05,1.16106e-05,3.41897e-05,4.51432e-05,-1.77593e-05,1.64888e-05
245,-2.86602e-05,1.00664e-05,3.14593e-05,4.91123e-05,-2.14175e-05,1.46765e-05
246,4.2916e-07,1.23849e-05,3.81602e-05,5.25344e-05,-2.03751e-05,1.93165e-05
247,1.71491e-05,1.40241e-05,3.99673e-05,5.33653e-05,-1.48098e-05,2.18388e-05
248,1.3196e-05,1.56848e-05,3.95281e-05,5.30371e-05,-1.09878e-05,1.51002e-05
249,9.15452e-06,1.44903e-05,3.92721e-05,5.41109e-05,-9.80061e-06,8.20726e-06
250,7.39612e-06,1.32668e-05,3.72766e-05,5.15387e-05,-9.28722e-06,5.67175e-06
251,9.51182e-06,1.45e-05,3.42824e-05,4.59698e-05,-6.72717e-06,1.0282e-05
252,-4.26241e-06,1.45408e-05,2.5582e-05,4.35034e-05,-5.09705e-06,1.13997e-05
253,-2.25963e-05,1.1696e-05,2.21391e-05,4.57126e-05,-7.66042e-06,4.284e-06
254,-1.63416e-05,9.7581e-06,3.0408e-05,4.86096e-05,-9.50515e-06,1.23424e-06
255,8.91808e-06,9.6386e-06,3.99182e-05,5.1404e-05,-7.83556e-06,8.65387e-06
256,2.23708e-05,9.34288e-06,4.24692e-05,5.23523e-05,-6.84973e-06,1.55261e-05
257,1.81614e-05,1.3075e-05,4.23603e-05,5.0018e-05,-8.80559e-06,1.72451e-05
258,6.00092e-07,1.98876e-05,3.8053e-05,4.61642e-05,-8.73517e-06,1.51097e-05
259,-1.90806e-05,2.16076e-05,3.04688e-05,4.4328e-05,-6.16264e-06,1.17701e-05
260,-2.11466e-05,1.81338e-05,2.97422e-05,4.42261e-05,-4.92073e-06,1.12999e-05
261,-4.33034e-06,1.51896e-05,3.84489e-05,4.34268e-05,-4.94415e-06,1.44137e-05
262,9.77983e-06,1.39668e-05,4.64125e-05,4.19614e-05,-2.51903e-06,1.77539e-05
263,1.02117e-05,1.42324e-05,4.50406e-05,3.95751e-05,-7.74112e-07,1.669e-05
264,-9.5275e-07,1.72807e-05,3.61584e-05,3.92377e-05,-1.4424e-06,1.25815e-05
265,-2.23443e-05,2.01327e-05,2.79366e-05,4.23626e-05,4.20423e-07,5.32361e-06
266,-3.06095e-05,1.87636e-05,2.94137e-05,4.51292e-05,4.71486e-06,1.4121e-06
267,-1.30679e-05,1.58225e-05,3.6961e-05,4.49962e-05,5.93179e-06,7.04884e-06
268,9.21736e-06,1.4755e-05,4.122e-05,4.79559e-05,5.08949e-06,1.71968e-05
269,1.51665e-05,1.69123e-05,3.9993e-05,4.97224e-05,3.08402e-06,1.84519e-05
270,4.4042e-06,1.86341e-05,3.56983e-05,4.83371e-05,-7.21321e-07,8.75959e-06
271,-2.15536e-05,1.32963e-05,2.74313e-05,5.15528e-05,-4.7537e-06,-4.3072e-06
272,-3.20756e-05,5.15623e-06,2.71817e-05,5.65996e-05,-6.69829e-06,-5.3397e-06
273,-1.0221e-05,1.98551e-06,3.56718e-05,5.61765e-05,-6.40425e-06,8.96173e-06
274,3.36919e-06,3.11904e-06,3.71464e-05,5.16715e-05,-1.04051e-05,2.16095e-05
275,3.20663e-06,8.18374e-06,3.56037e-05,5.02025e-05,-1.60882e-05,2.12382e-05
276,8.12006e-06,1.20176e-05,3.92293e-05,5.53211e-05,-1.75898e-05,1.5878e-05
277,1.07576e-05,1.50019e-05,4.19242e-05,5.67854e-05,-1.82839e-05,1.12382e-05
278,7.02867e-06,1.93296e-05,4.27496e-05,5.34123e-05,-1.80492e-05,1.01737e-05
279,-1.17701e-05,2.03415e-05,3.38421e-05,5.03397e-05,-1.59657e-05,8.12906e-06
280,-3.44057e-05,1.48284e-05,1.96694e-05,4.9919e-05,-1.2358e-05,3.9666e-06
281,-3.38526e-05,8.98431e-06,1.95021e-05,5.00391e-05,-1.00257e-05,5.6834e-06
282,-8.84045e-06,7.45542e-06,3.41538e-05,5.29645e-05,-1.24532e-05,1.29181e-05
283,1.07535e-05,9.84485e-06,4.83496e-05,5.67803e-05,-1.62047e-05,1.66057e-05
284,1.38927e-05,1.41071e-05,5.15819e-05,5.42607e-05,-1.57962e-05,1.57203e-05
285,-1.66992e-06,1.48139e-05,4.24331e-05,4.85162e-05,-1.12504e-05,1.18945e-05
286,-2.51094e-05,1.17104e-05,3.01271e-05,4.57633e-05,-8.08284e-06,5.79399e-06
287,-2.84089e-05,8.69819e-06,2.98359e-05,4.75847e-05,-7.49566e-06,3.90118e-06
288,-6.13088e-06,6.78265e-06,4.00462e-05,5.0434e-05,-7.24876e-06,9.21517e-06
289,1.54852e-05,6.47572e-06,4.69581e-05,5.22066e-05,-7.09155e-06,1.80123e-05
290,1.64002e-05,8.4974e-06,4.57179e-05,4.87233e-05,-8.79795e-06,2.22266e-05
291,-4.38056e-07,1.04653e-05,4.18141e-05,4.24189e-05,-1.00299e-05,1.92958e-05
292,-2.28699e-05,9.07441e-06,3.52442e-05,4.11605e-05,-9.49754e-06,1.26979e-05
293,-2.66009e-05,5.50493e-06,3.26369e-05,4.60278e-05,-7.40689e-06,9.13418e-06
294,-5.98289e-06,3.15943e-06,3.92586e-05,4.98585e-05,-6.52767e-06,8.59729e-06
295,1.44143e-05,2.92597e-06,4.58799e-05,5.09243e-05,-1.10611e-05,1.05807e-05
296,1.56739e-05,6.929e-06,4.66313e-05,5.17087e-05,-1.49803e-05,1.52871e-05
297,2.85028e-06,1.13016e-05,4.1434e-05,5.36167e-05,-1.41626e-05,1.66345e-05
298,-2.50906e-05,1.12596e-05,2.99719e-05,5.63e-05,-1.1286e-05,9.76932e-06
299,-3.91668e-05,9.11723e-06,2.49027e-05,5.70153e-05,-7.64441e-06,6.52693e-06
300,-1.61047e-05,7.11091e-06,3.4153e-05,5.70603e-05,-5.57439e-06,1.22353e-05
301,3.98817e-06,6.71505e-06,4.21641e-05,5.76669e-05,-8.48776e-06,1.84849e-05
302,7.6519e-06,6.78697e-06,4.49106e-05,5.87469e-05,-1.32659e-05,1.8786e-05
303,8.99758e-06,2.88385e-06,4.57224e-05,6.02649e-05,-1.12747e-05,1.57676e-05
304,3.64988e-06,2.57755e-06,4.31232e-05,5.7488e-05,-7.73167e-06,1.33442e-05
305,-1.58499e-06,1.07536e-05,4.15383e-05,5.34677e-05,-7.9852e-06,9.03515e-06
306,-1.55581e-05,2.02338e-05,3.8231e-05,5.0322e-05,-8.89261e-06,1.7012e-06
307,-3.41358e-05,2.17961e-05,3.61927e-05,4.9102e-05,-7.80653e-06,-4.92874e-06
308,-2.78889e-05,1.86518e-05,4.07237e-05,4.98182e-05,-6.17948e-06,-9.89651e-07
309,-2.15476e-06,1.67661e-05,4.61955e-05,5.22557e-05,-8.1789e-06,1.24903e-05
310,1.19441e-05,1.81966e-05,4.5265e-05,5.44305e-05,-1.13487e-05,2.32796e-05
311,9.77688e-06,2.0199e-05,3.91781e-05,5.23846e-05,-1.10521e-05,2.6191e-05
312,-4.57211e-06,1.86743e-05,2.96936e-05,4.75174e-05,-7.72525e-06,2.26334e-05
313,-2.27206e-05,1.66207e-05,2.22089e-05,4.81279e-05,-4.43872e-06,1.87695e-05
314,-2.51852e-05,1.64596e-05,2.60094e-05,5.41379e-05,-3.58496e-06,1.83621e-05
315,-6.99575e-06,1.76511e-05,3.85386e-05,5.68708e-05,-6.32258e-06,2.01651e-05
316,1.04815e-05,1.79004e-05,4.55906e-05,5.22037e-05,-1.07544e-05,2.18843e-05
317,1.28644e-05,1.65465e-05,4.39582e-05,4.2479e-05,-1.28371e-05,2.46515e-05
318,7.2937e-07,1.37856e-05,4.144e-05,3.57239e-05,-1.0923e-05,2.37059e-05
319,-1.89274e-05,1.02892e-05,3.81861e-05,3.77906e-05,-7.67662e-06,1.64586e-05
320,-2.18766e-05,6.39804e-06,3.79167e-05,4.57489e-05,-4.7605e-06,1.12105e-05
321,-1.10847e-06,4.51245e-06,4.35439e-05,5.07288e-05,-5.29509e-06,1.29168e-05
322,1.69188e-05,5.16354e-06,4.89708e-05,5.23052e-05,-1.16145e-05,1.73729e-05
323,1.5868e-05,1.07158e-05,4.98684e-05,5.02375e-05,-1.86468e-05,2.02361e-05
324,3.80139e-06,1.94593e-05,4.4611e-05,4.80549e-05,-1.89333e-05,2.22713e-05
325,-1.76072e-05,2.25092e-05,3.63905e-05,5.22148e-05,-1.45111e-05,1.6232e-05
326,-2.53099e-05,1.96895e-05,3.66435e-05,5.8455e-05,-9.02021e-06,5.86489e-06
327,-5.30486e-06,1.40557e-05,4.63899e-05,6.10744e-05,-8.85306e-06,3.4831e-06
328,3.85232e-06,4.40016e-06,4.57808e-05,5.95079e-05,-1.25182e-05,7.13839e-06
329,-4.22935e-06,-6.07814e-07,3.63133e-05,5.41505e-05,-1.19733e-05,1.26005e-05
330,-5.91186e-06,3.1898e-07,3.52532e-05,5.22617e-05,-9.91601e-06,1.68667e-05
331,-2.51825e-06,6.44487e-06,3.64647e-05,5.20476e-05,-9.5308e-06,1.69583e-05
332,5.66676e-07,1.6305e-05,3.49659e-05,5.01944e-05,-8.94146e-06,1.46985e-05
333,-1.09206e-05,1.77831e-05,2.80119e-05,4.98611e-05,-9.51906e-06,8.40397e-06
334,-2.89943e-05,7.79309e-06,2.24554e-05,5.48615e-05,-1.52031e-05,2.1254e-06
335,-2.67044e-05,-1.78062e-07,2.63595e-05,6.05102e-05,-1.94557e-05,3.53461e-06
336,-4.51667e-06,2.08635e-06,3.71379e-05,6.1464e-05,-1.98616e-05,1.18146e-05
337,1.00214e-05,6.9539e-06,4.63642e-05,5.7227e-05,-1.82557e-05,2.00056e-05
338,9.11389e-06,9.56919e-06,4.82614e-05,5.03632e-05,-1.54333e-05,1.91261e-05
339,-8.04634e-06,9.24249e-06,4.0053e-05,4.49305e-05,-1.27413e-05,8.2846e-06
340,-3.10805e-05,1.13374e-05,2.58328e-05,4.59673e-05,-1.12739e-05,-1.43346e-06
341,-3.70303e-05,1.81594e-05,2.14587e-05,5.35998e-05,-9.77317e-06,4.00996e-09
342,-2.17076e-05,2.29587e-05,3.24119e-05,5.88311e-05,-6.06179e-06,9.00741e-06
343,-5.97488e-06,2.21967e-05,4.42916e-05,5.76831e-05,-3.5509e-06,1.37785e-05
344,-3.76171e-06,2.13914e-05,4.39583e-05,5.11397e-05,-5.74373e-06,1.37219e-05
345,-1.56471e-05,2.19716e-05,3.45278e-05,4.574e-05,-1.01647e-05,1.39421e-05
346,-3.65611e-05,1.61667e-05,2.53085e-05,4.6587e-05,-1.10286e-05,1.17219e-05
347,-4.11673e-05,7.48055e-06,2.53651e-05,5.27738e-05,-9.9022e-06,9.25837e-06
348,-1.95855e-05,4.60295e-06,3.37802e-05,5.9421e-05,-1.04244e-05,1.26207e-05
349,3.96431e-06,4.94015e-06,4.28375e-05,6.16912e-05,-1.17169e-05,1.88256e-05
350,9.32149e-06,5.67701e-06,4.36667e-05,5.54841e-05,-8.94296e-06,2.34491e-05
351,1.78464e-06,9.64521e-06,3.52765e-05,4.82499e-05,-4.35541e-06,2.36091e-05
352,-1.86556e-05,1.56241e-05,2.5303e-05,4.78526e-05,-4.3508e-06,1.94569e-05
353,-2.90098e-05,1.94043e-05,2.3495e-05,5.05508e-05,-6.79635e-06,1.68594e-05
354,-8.98775e-06,2.05911e-05,2.94352e-05,5.07427e-05,-9.42328e-06,2.0404e-05
355,7.71635e-06,1.82232e-05,3.09615e-05,4.84934e-05,-1.1535e-05,2.27327e-05
356,8.56195e-06,1.75925e-05,3.22436e-05,4.75132e-05,-1.1542e-05,1.96201e-05
357,1.08875e-05,1.84668e-05,3.6519e-05,4.90696e-05,-8.11546e-06,1.70773e-05
358,1.31064e-05,1.93124e-05,3.74802e-05,5.00737e-05,-2.00185e-06,1.82e-05
359,1.34839e-05,1.95368e-05,3.65258e-05,4.92658e-05,1.16337e-07,2.46835e-05
360,-1.44829e-06,1.58937e-05,3.26945e-05,4.9406e-05,-2.14892e-06,2.96616e-05
361,-2.62994e-05,1.18913e-05,2.88987e-05,5.53637e-05,-5.49227e-06,2.77752e-05
362,-3.04877e-05,1.03258e-05,3.0566e-05,6.25314e-05,-7.98474e-06,2.40643e-05
363,-1.09934e-05,9.57427e-06,3.87633e-05,6.41628e-05,-7.35158e-06,2.51476e-05
364,4.27268e-06,6.68499e-06,4.37527e-05,5.95354e-05,-6.40735e-06,2.72173e-05
365,4.99207e-06,5.43737e-06,4.33304e-05,5.14123e-05,-5.19345e-06,2.68465e-05
366,-9.75555e-06,6.92761e-06,3.55939e-05,4.58516e-05,-1.60016e-06,2.29263e-05
367,-3.03609e-05,9.08759e-06,2.43566e-05,4.69807e-05,3.91627e-06,1.69391e-05
368,-3.21142e-05,1.01621e-05,2.23653e-05,5.22017e-05,5.85007e-06,1.22499e-05
369,-1.04012e-05,1.12713e-05,3.24367e-05,5.59112e-05,2.74503e-06,8.25798e-06
370,1.07111e-05,1.39057e-05,4.29445e-05,5.47283e-05,7.22449e-07,5.15973e-06
371,1.22566e-05,1.71191e-05,4.33685e-05,4.82737e-05,3.18028e-06,7.37534e-06
372,-4.87115e-06,1.82929e-05,3.53665e-05,4.25935e-05,5.25026e-06,1.43094e-05
373,-3.08209e-05,1.41212e-05,2.56809e-05,4.39253e-05,3.97629e-06,1.70016e-05
374,-3.81074e-05,5.49102e-06,2.33839e-05,4.87675e-05,1.52066e-06,1.54576e-05
375,-2.04451e-05,7.08898e-07,3.13032e-05,4.93891e-05,-3.19924e-06,1.32079e-05
376,-3.06059e-06,3.27047e-06,4.18101e-05,4.92141e-05,-9.61983e-06,1.01486e-05
377,1.60796e-06,6.93576e-06,4.59704e-05,5.05451e-05,-9.58918e-06,8.30024e-06
378,-4.62417e-06,9.98552e-06,4.60566e-05,5.05299e-05,-5.23541e-06,7.79589e-06
379,-2.47089e-05,9.79094e-06,4.18207e-05,4.81554e-05,-7.55847e-06,7.14453e-06
380,-3.10996e-05,6.07089e-06,4.09719e-05,4.58259e-05,-1.29375e-05,8.50345e-06
381,-6.50444e-06,3.27322e-06,5.04729e-05,4.75211e-05,-1.34109e-05,1.22154e-05
382,9.88584e-06,1.01425e-06,5.59884e-05,4.78094e-05,-1.2298e-05,1.49736e-05
383,1.15036e-05,2.33687e-06,5.03684e-05,4.85256e-05,-1.38538e-05,1.66137e-05
384,1.59434e-05,5.84054e-06,4.61502e-05,5.32957e-05,-1.58748e-05,1.68412e-05
385,1.79821e-05,6.12393e-06,4.56778e-05,5.45119e-05,-1.70727e-05,1.64506e-05
386,1.29251e-05,8.06361e-06,4.659e-05,5.29323e-05,-1.79513e-05,1.8136e-05
387,-6.62854e-06,1.10029e-05,4.35616e-05,5.12038e-05,-1.8383e-05,1.94777e-05
388,-2.90263e-05,1.04607e-05,3.70135e-05,5.29817e-05,-1.90304e-05,1.71696e-05
389,-2.63683e-05,9.08905e-06,3.78693e-05,5.411e-05,-2.11488e-05,1.3039e-05
390,1.20864e-06,1.19193e-05,4.57592e-05,5.28423e-05,-2.15561e-05,1.41263e-05
391,1.79781e-05,1.52262e-05,4.97482e-05,5.33127e-05,-2.27397e-05,1.62755e-05
392,1.56358e-05,1.54968e-05,4.72258e-05,5.37053e-05,-2.35199e-05,1.59644e-05
393,6.78024e-07,1.52117e-05,3.95069e-05,5.01081e-05,-2.07924e-05,1.2302e-05
394,-1.76083e-05,1.42885e-05,3.16538e-05,4.8467e-05,-1.60856e-05,8.1675e-06
395,-2.1792e-05,1.32944e-05,3.111e-05,5.21085e-05,-1.26196e-05,7.81982e-06
396,-6.72157e-06,1.24295e-05,4.033e-05,5.36229e-05,-1.306e-05,1.20378e-05
397,8.53631e-06,1.32214e-05,5.07423e-05,5.1943e-05,-1.51353e-05,1.77422e-05
398,1.10008e-05,1.52628e-05,5.24731e-05,4.91325e-05,-1.52444e-05,2.01908e-05
399,3.27581e-07,1.75489e-05,4.43451e-05,4.77703e-05,-1.41737e-05,1.84673e-05
400,-2.15517e-05,1.91118e-05,3.19773e-05,4.94697e-05,-1.50159e-05,1.4038e-05
401,-3.0813e-05,1.70583e-05,2.76717e-05,5.21958e-05,-1.4935e-05,1.12538e-05
402,-1.35351e-05,1.43508e-05,3.38142e-05,5.29845e-05,-1.36065e-05,1.52136e-05
403,8.52937e-06,1.87868e-05,4.04947e-05,5.33156e-05,-1.11598e-05,2.46989e-05
404,1.30315e-05,2.44543e-05,4.1274e-05,5.24099e-05,-9.39391e-06,2.77474e-05
405,2.43031e-06,2.12969e-05,3.86886e-05,5.04117e-05,-7.06142e-06,2.06122e-05
406,-2.2157e-05,1.12224e-05,3.02685e-05,5.0779e-05,-3.3102e-06,1.08701e-05
407,-3.60325e-05,3.95813e-06,2.70652e-05,5.63492e-05,-2.57498e-06,6.64667e-06
408,-1.32619e-05,3.65335e-06,3.65831e-05,6.00109e-05,-2.88323e-07,5.15047e-06
409,8.973e-06,6.94442e-06,4.0918e-05,5.55063e-05,2.91894e-06,6.85326e-06
410,9.72579e-06,1.0683e-05,3.7607e-05,5.07255e-05,1.89952e-06,7.67991e-06
411,8.84657e-06,1.18094e-05,3.65712e-05,5.39181e-05,-1.83929e-06,1.93965e-06
412,1.05304e-05,1.19258e-05,3.75624e-05,5.70367e-05,-5.25337e-06,-3.70079e-08
413,1.38089e-05,1.52925e-05,4.0551e-05,5.27434e-05,-5.38168e-06,7.47464e-06
414,6.08414e-07,2.09772e-05,3.7377e-05,4.6917e-05,-6.71162e-06,1.24786e-05
415,-1.93399e-05,2.03558e-05,3.06017e-05,4.78091e-05,-7.6697e-06,4.02002e-06
416,-1.85503e-05,1.45084e-05,3.11661e-05,5.40456e-05,-7.64688e-06,-4.70288e-06
417,-1.03587e-06,8.91493e-06,3.71166e-05,5.93223e-05,-8.7161e-06,-1.42928e-06
418,1.15698e-05,8.32001e-06,4.19997e-05,6.16162e-05,-8.4917e-06,6.34883e-06
419,1.31368e-05,1.30686e-05,4.46356e-05,5.99263e-05,-6.73484e-06,1.24015e-05
420,1.24475e-06,1.73142e-05,3.91003e-05,5.57649e-05,-7.88297e-06,1.34043e-05
421,-1.67372e-05,1.62347e-05,2.60037e-05,5.38793e-05,-1.16678e-05,1.074e-05
422,-2.13798e-05,1.27748e-05,2.08394e-05,5.53047e-05,-1.2116e-05,1.14293e-05
423,-5.72413e-06,1.10513e-05,2.94815e-05,5.68934e-05,-9.81729e-06,1.77237e-05
424,1.26737e-05,1.14986e-05,4.01966e-05,5.60579e-05,-8.62146e-06,2.18024e-05
425,1.85964e-05,1.38362e-05,4.32071e-05,5.17136e-05,-8.96027e-06,2.18238e-05
426,9.1562e-06,1.52466e-05,3.93562e-05,4.83859e-05,-8.92087e-06,2.04993e-05
427,-1.2194e-05,1.3642e-05,3.10566e-05,5.13106e-05,-9.76345e-06,1.73605e-05
428,-2.08375e-05,9.8872e-06,2.79084e-05,5.662e-05,-1.05969e-05,1.41057e-05
429,-5.98165e-06,6.92774e-06,3.51162e-05,5.69093e-05,-9.63109e-06,1.45313e-05
430,1.01103e-05,5.11191e-06,4.11981e-05,5.26729e-05,-9.34291e-06,1.50376e-05
431,1.14898e-05,5.68285e-06,3.62906e-05,4.74106e-05,-9.71452e-06,1.16884e-05
432,6.77583e-08,9.71961e-06,2.6388e-05,4.32062e-05,-7.0232e-06,1.14087e-05
433,-2.73164e-05,1.06652e-05,1.90998e-05,4.34935e-05,-5.9901e-06,1.28189e-05
434,-4.20843e-05,7.46496e-06,2.29753e-05,4.76705e-05,-7.31692e-06,1.47897e-05
435,-1.81681e-05,5.17345e-06,3.6965e-05,5.15065e-05,-6.01472e-06,2.22573e-05
436,5.17713e-06,3.31796e-06,4.08951e-05,5.26169e-05,-3.35581e-06,2.99174e-05
437,4.75734e-06,4.50013e-06,3.52753e-05,5.34327e-05,-4.46269e-06,2.59753e-05
438,1.57339e-06,5.97863e-06,3.40774e-05,5.53698e-05,-6.30316e-06,1.7453e-05
439,-3.12514e-07,8.12347e-06,3.52956e-05,5.523e-05,-3.88138e-06,1.6547e-05
440,-1.72492e-06,1.31362e-05,3.56326e-05,5.5051e-05,-3.78741e-06,2.05695e-05
441,-1.57702e-05,1.73331e-05,3.24719e-05,5.13552e-05,-7.39259e-06,2.29536e-05
442,-3.90584e-05,1.55522e-05,2.86892e-05,4.80721e-05,-1.32918e-05,2.00082e-05
443,-4.22e-05,1.14441e-05,3.02496e-05,5.09558e-05,-1.65464e-05,1.46119e-05
444,-2.05194e-05,9.56271e-06,3.42845e-05,5.69945e-05,-1.50932e-05,1.28524e-05
445,-4.40767e-06,8.70618e-06,3.41906e-05,5.81806e-05,-1.31903e-05,1.50063e-05
446,-3.52713e-06,8.55375e-06,3.34985e-05,4.90453e-05,-1.09674e-05,1.98061e-05
447,-1.56822e-05,9.98491e-06,3.08772e-05,3.8686e-05,-1.05318e-05,1.80738e-05
448,-3.06257e-05,1.07726e-05,2.65526e-05,3.8526e-05,-1.10523e-05,6.87167e-06
449,-2.98866e-05,8.51963e-06,2.8966e-05,4.7156e-05,-1.31658e-05,3.06565e-07
450,-1.14011e-05,5.65548e-06,3.91742e-05,5.62207e-05,-1.42904e-05,6.05683e-06
451,5.11143e-06,6.99939e-06,4.51891e-05,5.97426e-05,-1.3164e-05,1.42404e-05
452,5.36782e-06,1.36124e-05,4.33829e-05,5.63501e-05,-1.16188e-05,1.57516e-05
453,-8.71824e-06,2.0186e-05,3.88209e-05,5.04599e-05,-1.22859e-05,9.94311e-06
454,-2.94572e-05,2.05393e-05,3.24427e-05,4.95717e-05,-1.55441e-05,2.07271e-06
455,-3.32627e-05,1.44209e-05,3.22929e-05,5.49153e-05,-1.70614e-05,1.58667e-06
456,-1.40499e-05,1.05815e-05,4.12379e-05,5.68094e-05,-1.67213e-05,8.67101e-06
457,4.98581e-06,1.31245e-05,4.58887e-05,5.24608e-05,-1.55036e-05,1.6402e-05
458,8.2389e-06,1.81361e-05,4.06764e-05,4.59777e-05,-1.00821e-05,1.91306e-05
459,2.3493e-06,2.01032e-05,3.23389e-05,4.20877e-05,-4.07825e-06,1.55514e-05
460,-1.66498e-05,1.60405e-05,2.15443e-05,4.32526e-05,-1.74022e-06,1.06931e-05
461,-2.36171e-05,1.11531e-05,1.84024e-05,4.81448e-05,-2.58717e-06,1.3628e-05
462,-1.18108e-06,1.16918e-05,2.80673e-05,5.45266e-05,-8.62272e-06,2.02672e-05
463,9.04379e-06,1.2854e-05,3.4467e-05,5.51038e-05,-1.22592e-05,2.00074e-05
464,4.82515e-06,1.03645e-05,3.38107e-05,5.25619e-05,-8.49685e-06,1.73044e-05
465,8.51646e-06,6.75686e-06,3.52814e-05,5.3485e-05,-3.01513e-06,1.52374e-05
466,1.11063e-05,9.32001e-06,3.63196e-05,5.32081e-05,2.31983e-06,1.58011e-05
467,1.00826e-05,1.7651e-05,3.82139e-05,5.0103e-05,2.34049e-06,1.78807e-05
468,-4.87125e-06,2.57585e-05,3.60287e-05,4.77347e-05,-5.11246e-06,1.40443e-05
469,-2.55952e-05,2.53604e-05,2.73067e-05,5.14087e-05,-7.52255e-06,7.43857e-06
470,-2.67062e-05,1.87484e-05,2.47729e-05,5.43705e-05,-3.58016e-06,4.5248e-06
471,-7.90226e-06,1.24531e-05,3.20052e-05,5.43102e-05,7.55166e-07,8.81642e-06
472,7.82113e-06,1.09308e-05,3.83295e-05,5.192e-05,7.16775e-07,1.42972e-05
473,1.06917e-05,1.36581e-05,4.0521e-05,4.8899e-05,-2.64128e-06,1.97858e-05
474,-7.1389e-07,1.4544e-05,4.03994e-05,4.67443e-05,-7.75878e-06,2.30216e-05
475,-1.81725e-05,1.47227e-05,3.69483e-05,4.88998e-05,-1.24344e-05,2.09191e-05
476,-2.23291e-05,1.81999e-05,3.46228e-05,5.40154e-05,-1.32579e-05,1.5442e-05
477,-9.28935e-06,2.20169e-05,3.71002e-05,5.5307e-05,-1.02887e-05,1.16371e-05
478,3.01983e-06,2.1366e-05,4.13682e-05,5.22844e-05,-7.26786e-06,1.16797e-05
479,4.74855e-06,2.11787e-05,4.29826e-05,4.78415e-05,-5.5132e-06,1.57414e-05
480,-2.09383e-06,2.42261e-05,4.07853e-05,4.45285e-05,-9.85202e-07,1.80987e-05
481,-1.85025e-05,2.46421e-05,3.55648e-05,4.46704e-05,4.51178e-06,1.30472e-05
482,-2.55802e-05,1.73147e-05,3.54417e-05,4.94449e-05,5.36e-06,9.58498e-06
483,-8.80166e-06,9.31988e-06,4.23384e-05,5.29896e-05,-4.04664e-07,1.51641e-05
484,1.2283e-05,8.25308e-06,4.47619e-05,5.30872e-05,-6.46213e-06,2.54283e-05
485,1.87347e-05,1.54649e-05,4.05236e-05,4.93174e-05,-8.23696e-06,3.07909e-05
486,1.234e-05,2.18646e-05,3.64884e-05,4.32712e-05,-9.18222e-06,2.59468e-05
487,-1.44795e-05,1.74794e-05,2.96684e-05,3.99435e-05,-1.24612e-05,1.14345e-05
488,-2.90278e-05,7.91365e-06,2.57058e-05,4.2445e-05,-1.38037e-05,9.38338e-07
489,-4.16461e-06,4.11955e-06,3.49417e-05,4.60498e-05,-1.14821e-05,6.22895e-06
490,1.13828e-05,5.38773e-06,3.87097e-05,4.35664e-05,-1.08202e-05,1.86394e-05
491,8.30473e-06,5.34534e-06,3.56485e-05,3.84541e-05,-1.25822e-05,2.31286e-05
492,1.19789e-05,3.36508e-06,3.83205e-05,4.02517e-05,-1.27284e-05,2.04794e-05
493,1.58808e-05,8.84687e-07,4.13254e-05,4.29944e-05,-1.20643e-05,1.80018e-05
494,1.1938e-05,9.36283e-07,4.45734e-05,4.32695e-05,-9.63065e-06,1.97327e-05
495,-5.67574e-06,5.83668e-06,4.11591e-05,3.98054e-05,-8.18423e-06,1.88178e-05
496,-2.69972e-05,8.61731e-06,3.12691e-05,4.02278e-05,-8.75601e-06,1.30543e-05
497,-2.77556e-05,9.00034e-06,2.70283e-05,4.53804e-05,-7.47359e-06,1.14936e-05
498,-6.00886e-06,9.48594e-06,3.78339e-05,5.02143e-05,-5.20868e-06,1.64907e-05
499,1.15408e-05,1.00437e-05,5.07771e-05,5.13797e-05,-4.7487e-06,1.83856e-05
500,1.46817e-05,1.40668e-05,5.24289e-05,4.85983e-05,-5.85964e-06,1.6564e-05
501,-2.41564e-06,1.78702e-05,4.26296e-05,4.61984e-05,-6.84889e-06,1.55652e-05
502,-2.77019e-05,1.4791e-05,3.24786e-05,4.63899e-05,-4.74131e-06,1.246e-05
503,-3.29796e-05,8.19567e-06,3.24752e-05,5.01865e-05,-7.362e-07,9.27526e-06
504,-1.32812e-05,4.17291e-06,3.95134e-05,5.34597e-05,-1.16425e-06,1.21793e-05
505,3.05791e-06,3.45697e-06,4.5275e-05,5.36017e-05,-7.58382e-06,1.9965e-05
506,1.16273e-06,5.0496e-06,4.46799e-05,4.97577e-05,-1.46336e-05,2.4761e-05
507,-1.06777e-05,7.45321e-06,3.9117e-05,4.57085e-05,-1.61389e-05,2.26788e-05
508,-2.73184e-05,6.00746e-06,3.23584e-05,4.60374e-05,-1.33546e-05,1.57431e-05
509,-3.25037e-05,2.07979e-06,3.46627e-05,5.1629e-05,-1.09588e-05,1.18866e-05
510,-1.70118e-05,2.68795e-06,4.56052e-05,5.67775e-05,-9.84512e-06,1.26412e-05
511,-1.27844e-06,4.7492e-06,5.13751e-05,5.64309e-05,-8.11814e-06,1.3588e-05
512,2.31107e-06,4.86488e-06,4.72359e-05,4.82677e-05,-5.17766e-06,1.57003e-05
513,-5.35981e-07,6.81343e-06,4.08092e-05,4.05418e-05,-1.75131e-07,1.81387e-05
514,-1.97514e-05,9.89555e-06,3.02496e-05,4.34074e-05,-7.34205e-07,1.61286e-05
515,-3.37637e-05,1.2542e-05,2.80661e-05,5.21649e-05,-6.62023e-06,1.52567e-05
516,-1.78595e-05,1.48388e-05,4.20317e-05,5.45724e-05,-9.73306e-06,1.89381e-05
517,-3.95887e-06,1.09236e-05,5.26074e-05,5.2624e-05,-1.34544e-05,1.87197e-05
518,-2.69961e-06,7.87199e-06,5.38863e-05,4.76267e-05,-1.79686e-05,1.38694e-05
519,1.82043e-07,1.13057e-05,4.96581e-05,4.68954e-05,-2.14565e-05,1.44459e-05
520,3.26438e-07,1.69484e-05,4.51111e-05,5.04732e-05,-2.15554e-05,1.79935e-05
521,9.22061e-07,2.31706e-05,4.59987e-05,5.04707e-05,-1.96113e-05,1.88089e-05
522,-8.83936e-06,2.62532e-05,4.04469e-05,4.6901e-05,-1.89599e-05,1.40282e-05
523,-2.39281e-05,2.30861e-05,2.79975e-05,4.59831e-05,-1.93733e-05,9.01067e-06
524,-2.261e-05,1.77255e-05,2.66077e-05,5.00186e-05,-1.91055e-05,1.49085e-05
525,-4.31687e-06,1.33883e-05,4.01165e-05,5.19672e-05,-1.61288e-05,2.13098e-05
526,8.3326e-06,1.15735e-05,5.07407e-05,5.16975e-05,-1.30766e-05,1.68732e-05
527,8.39138e-06,1.32691e-05,4.83117e-05,4.91981e-05,-1.14137e-05,9.35299e-06
528,-4.17042e-06,1.41257e-05,3.70856e-05,4.5976e-05,-9.73138e-06,7.2442e-06
529,-2.14194e-05,9.67531e-06,2.60314e-05,4.68382e-05,-7.21408e-06,7.7416e-06
530,-2.36783e-05,2.55615e-06,2.37271e-05,5.21125e-05,-5.84945e-06,6.73479e-06
531,-8.15922e-06,-1.10132e-07,3.10275e-05,5.65776e-05,-5.73854e-06,3.78805e-06
532,5.0043e-06,5.04907e-06,3.87578e-05,5.71663e-05,-6.79306e-06,-1.01205e-06
533,5.50116e-06,1.31899e-05,4.08427e-05,5.32429e-05,-7.2516e-06,-4.71249e-06
534,-2.8954e-06,1.53129e-05,3.76445e-05,4.87447e-05,-5.19297e-06,-5.51137e-06
535,-1.97482e-05,8.98503e-06,2.97441e-05,5.14025e-05,-2.15083e-06,-2.79492e-06
536,-2.50462e-05,4.64822e-06,2.79616e-05,6.10141e-05,-3.71066e-06,3.37904e-06
537,-6.53676e-06,9.11294e-06,3.68798e-05,6.66585e-05,-9.73135e-06,8.41302e-06
538,1.20413e-05,1.74997e-05,4.31876e-05,6.31024e-05,-1.23505e-05,1.02471e-05
539,1.27509e-05,2.50106e-05,3.93939e-05,5.54216e-05,-9.75136e-06,1.16093e-05
540,3.83866e-06,2.70941e-05,3.19302e-05,5.13621e-05,-3.34799e-06,1.1812e-05
541,-1.74241e-05,2.16395e-05,2.43556e-05,5.37338e-05,2.06377e-06,8.70636e-06
542,-2.80134e-05,1.33934e-05,2.48389e-05,5.51207e-05,2.43846e-06,6.12623e-06
543,-8.03795e-06,8.86815e-06,3.68285e-05,5.3267e-05,-2.16843e-06,8.26014e-06
544,7.24526e-06,1.02814e-05,4.23399e-05,5.19007e-05,-7.82437e-06,1.22394e-05
545,5.19453e-06,1.43759e-05,3.78161e-05,5.02917e-05,-5.68218e-06,1.4963e-05
546,2.37191e-07,1.54601e-05,3.55584e-05,5.12408e-05,-1.29044e-06,1.4817e-05
547,4.42571e-08,1.23347e-05,3.63797e-05,5.323e-05,-1.68528e-06,1.70837e-05
548,6.97894e-06,1.05422e-05,4.20984e-05,5.19733e-05,-4.54576e-06,1.95833e-05
549,-1.77181e-06,1.18921e-05,4.06664e-05,4.71073e-05,-1.063e-05,1.22457e-05
550,-2.04065e-05,8.81472e-06,3.15948e-05,4.93926e-05,-1.59483e-05,8.5874e-07
551,-1.98081e-05,8.38165e-06,2.98196e-05,5.60551e-05,-1.7027e-05,-2.68565e-06
552,2.05318e-06,9.15944e-06,3.69343e-05,5.68031e-05,-1.60169e-05,3.60317e-06
553,1.68981e-05,8.59169e-06,4.20021e-05,5.18729e-05,-1.38829e-05,1.06071e-05
554,1.45709e-05,1.0815e-05,3.88921e-05,4.78483e-05,-1.17456e-05,1.34415e-05
555,-3.28296e-06,1.1878e-05,3.07602e-05,4.66516e-05,-1.23703e-05,7.78965e-06
556,-2.46199e-05,8.40673e-06,2.41533e-05,4.85005e-05,-1.48404e-05,-2.12928e-06
557,-2.51977e-05,4.56774e-06,2.74186e-05,5.43776e-05,-1.53368e-05,-4.2787e-06
558,-5.22106e-06,3.79787e-06,3.72771e-05,5.70586e-05,-1.33609e-05,4.90987e-06
559,1.0251e-05,4.96511e-06,4.21052e-05,5.35847e-05,-1.33568e-05,1.3763e-05
560,8.84583e-06,9.62841e-06,3.92069e-05,4.74769e-05,-1.51568e-05,1.45292e-05
561,-2.99446e-06,1.40076e-05,3.48943e-05,4.70848e-05,-1.50695e-05,1.26262e-05
562,-1.97772e-05,1.34332e-05,3.04905e-05,5.24954e-05,-1.17862e-05,1.06184e-05
563,-2.09555e-05,9.78801e-06,3.00775e-05,5.79172e-05,-6.92797e-06,8.25106e-06
564,-4.0094e-07,1.09716e-05,3.46697e-05,5.82803e-05,-5.13523e-06,5.72656e-06
565,1.6466e-05,1.60687e-05,3.76604e-05,5.59095e-05,-8.95959e-06,5.85341e-06
566,1.34799e-05,2.04708e-05,3.64729e-05,5.30623e-05,-1.46904e-05,1.21711e-05
567,1.06174e-06,1.81912e-05,3.42501e-05,4.98631e-05,-1.85526e-05,1.9549e-05
568,-1.96694e-05,1.05589e-05,2.94523e-05,4.98238e-05,-2.14226e-05,1.92772e-05
569,-2.7134e-05,4.48258e-06,2.67434e-05,5.25714e-05,-2.20497e-05,1.63347e-05
570,-4.49002e-06,4.66848e-06,3.00592e-05,5.21857e-05,-1.74772e-05,1.96192e-05
571,1.09591e-05,7.97819e-06,3.13729e-05,4.97848e-05,-1.20977e-05,2.34571e-05
572,1.21947e-05,1.2867e-05,3.10411e-05,5.1486e-05,-7.88738e-06,2.46041e-05
573,1.36492e-05,1.723e-05,3.40785e-05,5.6723e-05,-4.34998e-06,2.59648e-05
574,1.31016e-05,1.67811e-05,3.86273e-05,5.80689e-05,-1.51171e-06,2.66024e-05
575,1.32803e-05,1.43609e-05,3.83341e-05,5.25694e-05,-1.19322e-06,2.69814e-05
576,-1.35074e-06,1.0936e-05,3.04547e-05,4.61779e-05,-5.7651e-06,2.11133e-05
577,-2.54993e-05,9.26141e-06,2.37145e-05,4.88534e-05,-6.60454e-06,1.14833e-05
578,-2.57701e-05,1.18518e-05,3.04363e-05,5.66618e-05,-1.19998e-06,7.79735e-06
579,-2.60373e-06,1.49561e-05,4.36574e-05,6.08001e-05,-1.63856e-06,1.40016e-05
580,1.02233e-05,1.49991e-05,4.89165e-05,5.94885e-05,-1.04797e-05,2.08819e-05
581,7.19355e-06,1.31546e-05,4.82968e-05,5.55727e-05,-1.59553e-05,2.24472e-05
582,-9.84201e-06,1.03692e-05,4.16775e-05,5.33309e-05,-1.39654e-05,1.79622e-05
583,-3.02147e-05,8.08521e-06,3.11303e-05,5.48676e-05,-1.00178e-05,1.12873e-05
584,-3.36858e-05,7.6124e-06,2.69852e-05,5.6945e-05,-7.80068e-06,8.45447e-06
585,-1.9032e-05,9.57447e-06,3.38267e-05,5.41849e-05,-7.00438e-06,1.16365e-05
586,-6.16003e-06,1.29664e-05,3.9302e-05,4.97607e-05,-8.24699e-06,1.89184e-05
587,-4.06403e-06,1.69274e-05,3.731e-05,4.68496e-05,-9.42755e-06,2.4496e-05
588,-1.03676e-05,2.03805e-05,3.25281e-05,4.59682e-05,-7.08344e-06,2.41153e-05
589,-2.54399e-05,2.07941e-05,2.69993e-05,4.88598e-05,-2.93225e-06,1.83786e-05
590,-3.0972e-05,1.69314e-05,2.87412e-05,5.40884e-05,-2.13283e-06,1.55524e-05
591,-1.56377e-05,1.21427e-05,3.99453e-05,5.56065e-05,-5.87751e-06,1.86244e-05
592,3.08041e-06,1.11504e-05,4.83477e-05,5.50751e-05,-1.12433e-05,2.19336e-05
593,9.13825e-06,1.5008e-05,4.74925e-05,5.30929e-05,-1.32625e-05,2.08952e-05
594,3.55996e-06,1.80266e-05,4.30831e-05,5.17409e-05,-9.71576e-06,1.89427e-05
595,-1.67553e-05,1.27219e-05,3.21673e-05,5.43711e-05,-4.95659e-06,1.9642e-05
596,-2.49187e-05,6.63092e-06,2.38896e-05,5.70179e-05,-5.5352e-06,1.96088e-05
597,-4.01111e-06,7.73116e-06,3.31345e-05,5.45469e-05,-1.16772e-05,1.46178e-05
598,1.01395e-05,1.2275e-05,4.43078e-05,5.21285e-05,-1.28268e-05,1.6764e-05
599,5.47761e-06,1.39319e-05,4.59303e-05,5.31242e-05,-7.72118e-06,2.42962e-05
600,2.17908e-06,1.50234e-05,4.39954e-05,5.54134e-05,-5.73873e-06,2.54541e-05
601,2.32378e-06,1.80008e-05,4.05073e-05,5.76338e-05,-7.96451e-06,2.19092e-05
602,1.50523e-07,2.22048e-05,3.84135e-05,5.40132e-05,-9.05491e-06,1.9096e-05
603,-1.03734e-05,2.693e-05,3.87697e-05,4.95145e-05,-9.8453e-06,1.54533e-05
604,-2.26116e-05,2.56416e-05,4.06086e-05,5.1725e-05,-1.13548e-05,7.59682e-06
605,-1.91829e-05,2.01907e-05,4.43858e-05,5.83081e-05,-1.12966e-05,2.90873e-06
606,2.13842e-06,1.36699e-05,4.99466e-05,6.35566e-05,-1.25725e-05,9.15296e-06
607,1.73612e-05,1.07953e-05,5.17634e-05,6.15186e-05,-1.53726e-05,2.20195e-05
608,1.88022e-05,1.43729e-05,4.9716e-05,5.28734e-05,-1.49306e-05,3.07038e-05
609,4.09921e-06,1.88525e-05,4.31205e-05,4.49359e-05,-9.11807e-06,2.8044e-05
610,-1.92034e-05,1.58337e-05,3.4142e-05,4.66303e-05,-2.23067e-06,1.76393e-05
611,-2.70326e-05,8.90266e-06,3.2824e-05,5.31673e-05,-1.93281e-06,1.13366e-05
612,-1.16383e-05,5.47576e-06,4.01222e-05,5.55901e-05,-1.00572e-05,1.38907e-05
613,6.98085e-06,5.71649e-06,4.3922e-05,5.32021e-05,-1.82576e-05,1.97902e-05
614,1.09143e-05,6.31994e-06,3.79063e-05,4.75849e-05,-2.03547e-05,2.21409e-05
615,-4.06331e-06,5.9375e-06,2.84673e-05,4.34432e-05,-2.12341e-05,1.7971e-05
616,-3.12541e-05,3.43151e-06,2.10385e-05,4.62383e-05,-2.28015e-05,1.08798e-05
617,-3.95009e-05,-7.12664e-07,2.07657e-05,5.39185e-05,-1.79249e-05,1.06445e-05
618,-1.91171e-05,-1.39681e-06,3.01469e-05,5.82994e-05,-9.11847e-06,1.56416e-05
619,-1.22998e-06,1.15451e-06,3.96461e-05,5.72744e-05,-8.90665e-06,1.94197e-05
620,-1.14504e-06,4.26829e-06,4.19317e-05,5.2737e-05,-1.56943e-05,1.95886e-05
621,-9.69184e-06,4.53208e-06,4.16236e-05,4.56911e-05,-1.99095e-05,1.61849e-05
622,-3.01546e-05,5.59291e-07,3.90303e-05,4.28925e-05,-1.76036e-05,1.0512e-05
623,-3.74529e-05,-3.02645e-06,3.71509e-05,4.91165e-05,-1.17068e-05,1.48059e-06
624,-1.22269e-05,1.50802e-06,4.29286e-05,5.27517e-05,-4.39211e-06,1.63065e-06
625,3.77962e-06,7.13309e-06,4.7024e-05,4.67096e-05,1.67684e-07,1.33508e-05
626,2.77366e-06,9.87789e-06,4.4707e-05,4.10918e-05,-2.60047e-06,1.92801e-05
627,6.40144e-06,1.15376e-05,3.95934e-05,4.27057e-05,-8.03252e-06,1.6771e-05
628,9.76617e-06,1.33756e-05,3.55845e-05,4.48527e-05,-1.10734e-05,1.1271e-05
629,1.15014e-05,1.54045e-05,3.52454e-05,4.3078e-05,-9.51623e-06,1.31567e-05
630,-5.26931e-06,1.57158e-05,2.91363e-05,4.04569e-05,-8.41394e-06,2.14207e-05
631,-3.25986e-05,1.43831e-05,2.22188e-05,4.14798e-05,-8.89503e-06,2.08744e-05
632,-3.69645e-05,1.21401e-05,2.58695e-05,4.48599e-05,-7.45029e-06,1.32801e-05
633,-1.37203e-05,1.09259e-05,3.49125e-05,4.94885e-05,-4.14026e-06,1.14216e-05
634,3.87822e-06,1.10565e-05,4.05441e-05,5.15185e-05,-3.72063e-06,1.79282e-05
635,6.68922e-06,1.31157e-05,4.26657e-05,4.67061e-05,-7.58056e-06,2.2576e-05
636,-3.76077e-06,1.344e-05,3.85729e-05,3.74696e-05,-9.47385e-06,2.07651e-05
637,-2.01831e-05,1.08936e-05,3.07857e-05,3.26519e-05,-8.40618e-06,1.51397e-05
638,-2.52026e-05,6.68829e-06,2.86537e-05,3.74711e-05,-8.05886e-06,6.59624e-06
639,-1.38229e-05,2.92639e-06,3.29779e-05,4.6763e-05,-9.27132e-06,-6.59993e-07
640,1.47907e-07,3.28318e-06,3.54279e-05,5.23277e-05,-9.70405e-06,-2.39053e-06
641,4.09588e-06,7.34042e-06,3.49091e-05,5.02792e-05,-1.01574e-05,1.33965e-06
642,-5.06741e-06,9.61012e-06,3.15926e-05,4.48473e-05,-1.17123e-05,5.12338e-06
643,-2.28562e-05,7.37802e-06,2.3333e-05,4.37253e-05,-1.22117e-05,2.64928e-06
644,-2.31913e-05,4.28183e-06,1.98786e-05,4.9641e-05,-7.78588e-06,-1.37742e-07
645,-2.94479e-06,3.1387e-06,2.7749e-05,5.51929e-05,-4.08228e-06,4.72325e-06
646,1.09836e-05,3.10478e-06,3.77634e-05,5.83687e-05,-3.93737e-06,1.24146e-05
647,6.13865e-06,2.24973e-06,3.92688e-05,5.86211e-05,-3.17589e-06,1.82276e-05
648,-5.09048e-06,2.3351e-06,3.36503e-05,5.64707e-05,-3.63059e-06,1.99402e-05
649,-2.69727e-05,4.14124e-06,2.74424e-05,5.821e-05,-4.35273e-06,1.5403e-05
650,-3.62951e-05,7.19219e-06,3.0789e-05,6.18223e-05,-4.35078e-06,8.41295e-06
651,-1.3669e-05,9.43293e-06,4.40366e-05,6.33269e-05,-5.4876e-06,9.59798e-06
652,2.61924e-06,7.18288e-06,4.57939e-05,6.05656e-05,-6.9194e-06,1.0742e-05
653,9.24277e-07,6.23687e-06,3.9629e-05,5.85461e-05,-8.87116e-06,6.18356e-06
654,1.75813e-06,7.28129e-06,4.00285e-05,6.02594e-05,-8.85578e-06,5.01255e-06
655,2.00773e-06,8.98658e-06,4.17031e-05,6.01008e-05,-6.2478e-06,7.20021e-06
656,2.04791e-06,1.33444e-05,4.42854e-05,5.60521e-05,-4.36558e-06,1.10014e-05
657,-9.71114e-06,1.59678e-05,3.99891e-05,5.14965e-05,-4.22298e-06,1.42527e-05
658,-2.99238e-05,1.31134e-05,3.21699e-05,5.37545e-05,-5.4714e-06,1.56101e-05
659,-2.98589e-05,7.95577e-06,3.34774e-05,5.70252e-05,-7.96573e-06,1.87746e-05
660,-1.00308e-05,5.17125e-06,4.31803e-05,5.63756e-05,-1.36117e-05,2.51671e-05
661,3.32223e-06,7.48529e-06,4.91478e-05,5.2566e-05,-2.02522e-05,2.48335e-05
662,2.81947e-06,1.54309e-05,4.6844e-05,4.70752e-05,-2.13786e-05,1.93128e-05
663,-9.40773e-06,2.0314e-05,3.73424e-05,4.23278e-05,-1.51799e-05,1.37297e-05
664,-2.588e-05,1.68804e-05,2.85359e-05,4.18191e-05,-1.0998e-05,1.43484e-05
665,-2.74647e-05,1.02798e-05,3.02704e-05,4.51309e-05,-1.02388e-05,2.14011e-05
666,-9.39582e-06,8.41042e-06,4.05946e-05,4.89389e-05,-8.99433e-06,2.95512e-05
667,8.7981e-06,1.2387e-05,4.87986e-05,4.95043e-05,-6.95228e-06,2.99097e-05
668,1.0792e-05,1.6921e-05,4.804e-05,4.50311e-05,-6.75509e-06,2.06754e-05
669,-2.75896e-06,1.75086e-05,3.98138e-05,4.08339e-05,-8.24502e-06,1.03402e-05
670,-2.14519e-05,1.57377e-05,2.77384e-05,4.12304e-05,-1.02242e-05,5.8359e-06
671,-1.98416e-05,1.54019e-05,2.54165e-05,4.56108e-05,-1.2011e-05,9.82789e-06
672,5.99428e-06,1.60136e-05,3.66544e-05,5.04029e-05,-1.08709e-05,1.89762e-05
673,2.53221e-05,1.47761e-05,4.61849e-05,5.24315e-05,-9.54766e-06,2.60721e-05
674,2.2703e-05,1.36032e-05,4.5588e-05,4.92595e-05,-1.11087e-05,2.52563e-05
675,9.67282e-06,1.69973e-05,3.90835e-05,4.59098e-05,-1.14531e-05,2.22219e-05
676,-1.63581e-05,2.07649e-05,2.9187e-05,4.82757e-05,-6.68412e-06,1.91246e-05
677,-3.02901e-05,1.9548e-05,2.67731e-05,5.19455e-05,-2.34817e-06,1.59128e-05
678,-7.55541e-06,1.60651e-05,3.70172e-05,5.20078e-05,-1.85574e-06,1.45916e-05
679,1.21329e-05,1.7247e-05,4.57419e-05,5.07154e-05,-4.29263e-06,1.92271e-05
680,1.55834e-05,1.73426e-05,4.65516e-05,5.24825e-05,-6.4008e-06,2.54339e-05
681,1.81265e-05,1.37047e-05,4.69535e-05,5.75144e-05,-6.52023e-06,2.60244e-05
682,1.76092e-05,1.33289e-05,4.93587e-05,5.82234e-05,-4.40596e-06,2.37893e-05
683,1.4182e-05,1.55091e-05,5.21756e-05,5.27775e-05,-3.11734e-06,2.65531e-05
684,2.84028e-07,1.83157e-05,4.68082e-05,4.75987e-05,-3.95922e-06,2.67534e-05
685,-1.60112e-05,1.93488e-05,3.47804e-05,4.97088e-05,-3.55207e-06,1.69185e-05
686,-1.49815e-05,1.88639e-05,3.09335e-05,5.4577e-05,-3.92572e-06,8.3254e-06
687,3.9125e-06,1.79001e-05,3.60409e-05,5.49092e-05,-9.07895e-06,1.21359e-05
688,1.40073e-05,1.90208e-05,3.90192e-05,4.94094e-05,-1.20975e-05,2.29946e-05
689,1.09944e-05,2.3982e-05,3.86149e-05,4.17723e-05,-9.00657e-06,2.78004e-05
690,-3.44857e-06,2.72714e-05,3.53259e-05,3.76501e-05,-8.6527e-06,2.10865e-05
691,-1.92506e-05,2.50364e-05,2.94168e-05,4.31362e-05,-1.21396e-05,1.12105e-05
692,-1.6761e-05,2.16029e-05,2.78473e-05,5.37344e-05,-1.37112e-05,7.63413e-06
693,1.16029e-06,2.07678e-05,3.34633e-05,5.90465e-05,-1.54917e-05,9.41923e-06
694,1.22976e-05,2.02004e-05,3.83985e-05,5.55586e-05,-1.94967e-05,1.0658e-05
695,8.88302e-06,1.72034e-05,3.80149e-05,4.83665e-05,-2.06028e-05,1.13937e-05
696,-3.26928e-06,1.29534e-05,3.3935e-05,4.42571e-05,-1.56688e-05,1.20413e-05
697,-2.24999e-05,1.03609e-05,2.61589e-05,4.65373e-05,-1.02171e-05,1.03289e-05
698,-2.96977e-05,1.08539e-05,2.42516e-05,5.42516e-05,-1.04468e-05,7.12878e-06
699,-1.40434e-05,1.38566e-05,3.2743e-05,5.98825e-05,-1.30835e-05,3.49449e-06
700,4.43526e-06,1.79063e-05,4.09893e-05,6.01924e-05,-1.47752e-05,1.3006e-06
701,7.77073e-06,1.98428e-05,4.21651e-05,5.46879e-05,-1.39875e-05,3.20538e-07
702,-4.57155e-07,1.88196e-05,3.87104e-05,4.95829e-05,-9.26971e-06,1.76251e-06
703,-2.21515e-05,1.35594e-05,3.49921e-05,5.12485e-05,-5.71717e-06,2.37626e-06
704,-2.78884e-05,5.63413e-06,3.64611e-05,5.68368e-05,-7.30429e-06,8.14906e-07
705,-3.12577e-06,4.76224e-06,4.61264e-05,5.9918e-05,-1.02186e-05,1.97977e-06
706,9.88175e-06,1.00851e-05,5.1297e-05,5.66784e-05,-1.15523e-05,3.68364e-06
707,6.89954e-06,1.27756e-05,4.85122e-05,5.31645e-05,-1.20739e-05,4.63059e-06
708,9.90891e-06,1.08391e-05,4.50134e-05,5.24837e-05,-1.52705e-05,6.22288e-06
709,1.27323e-05,1.08321e-05,4.38779e-05,5.18072e-05,-1.65795e-05,7.26057e-06
710,9.93723e-06,1.43517e-05,4.46657e-05,4.9281e-05,-1.37399e-05,9.67238e-06
711,-7.95344e-06,1.72508e-05,3.85935e-05,4.53162e-05,-1.31833e-05,1.08767e-05
712,-3.0022e-05,1.46435e-05,2.98301e-05,4.89656e-05,-1.44872e-05,6.53779e-06
713,-2.88613e-05,1.20011e-05,2.69372e-05,5.57854e-05,-1.69228e-05,4.3947e-06
714,-8.32078e-06,1.26568e-05,3.46613e-05,5.76666e-05,-1.75741e-05,9.21868e-06
715,2.09331e-06,1.31515e-05,4.3029e-05,5.22513e-05,-1.55178e-05,1.24533e-05
716,-1.62853e-06,1.40131e-05,4.59783e-05,4.55833e-05,-1.08107e-05,1.43211e-05
717,-1.47684e-05,1.29572e-05,3.9743e-05,4.36666e-05,-7.76562e-06,1.42646e-05
718,-2.84483e-05,9.7979e-06,2.96687e-05,4.86141e-05,-8.35314e-06,1.18914e-05
719,-2.56013e-05,7.03038e-06,2.83895e-05,5.65285e-05,-9.77318e-06,1.04952e-05
720,-6.71543e-06,7.30529e-06,3.69442e-05,5.99032e-05,-1.13201e-05,1.36618e-05
721,8.7171e-06,8.58132e-06,4.42068e-05,5.7231e-05,-1.07752e-05,1.76793e-05
722,1.01721e-05,9.94129e-06,4.41831e-05,5.00584e-05,-9.57851e-06,1.61132e-05
723,3.37723e-07,1.30255e-05,4.03378e-05,4.24623e-05,-1.12614e-05,1.0729e-05
724,-1.75745e-05,1.62857e-05,3.45003e-05,4.08078e-05,-1.61795e-05,7.95868e-06
725,-2.42918e-05,1.76877e-05,3.3425e-05,4.55497e-05,-1.93728e-05,1.08374e-05
726,-1.02471e-05,1.72296e-05,3.90262e-05,4.9285e-05,-1.60544e-05,1.53143e-05
727,2.94385e-06,1.65604e-05,4.59637e-05,5.14361e-05,-8.20941e-06,1.21658e-05
728,5.84327e-07,1.82971e-05,4.57234e-05,4.92521e-05,-4.30703e-06,5.61966e-06
729,-1.00903e-05,2.16583e-05,3.84037e-05,4.61445e-05,-7.86621e-06,7.4784e-06
730,-3.19287e-05,2.00701e-05,2.9173e-05,5.09182e-05,-1.11684e-05,9.27092e-06
731,-4.23905e-05,1.27306e-05,2.67783e-05,5.94108e-05,-6.40836e-06,1.12649e-05
732,-2.02735e-05,1.0375e-05,3.502e-05,6.09503e-05,-5.59655e-07,1.87368e-05
733,-3.87758e-06,1.13039e-05,4.16139e-05,5.52335e-05,-1.59329e-06,2.41928e-05
734,-3.64046e-06,1.24527e-05,4.00109e-05,4.8625e-05,-7.18501e-06,2.75322e-05
735,-2.5117e-06,1.06618e-05,3.734e-05,4.72925e-05,-1.1411e-05,3.14131e-05
736,-4.42501e-06,7.71292e-06,3.56464e-05,5.12183e-05,-1.21519e-05,3.44182e-05
737,-4.05689e-06,8.6767e-06,3.52995e-05,5.34508e-05,-8.59085e-06,3.49821e-05
738,-1.60661e-05,8.82058e-06,2.80205e-05,5.31501e-05,-3.6194e-06,2.33224e-05
739,-3.26914e-05,7.08414e-06,1.8419e-05,5.56081e-05,9.47309e-07,5.94235e-06
740,-2.82544e-05,5.34889e-06,1.87871e-05,5.77053e-05,1.96262e-06,-1.00427e-06
741,-6.32381e-06,5.12247e-06,2.95524e-05,5.86076e-05,1.41764e-06,2.38596e-06
742,7.32433e-06,3.7476e-06,3.84963e-05,5.76921e-05,7.26291e-07,6.8874e-06
743,7.6561e-06,3.21653e-06,3.99127e-05,5.17733e-05,-1.07926e-06,1.23759e-05
744,-1.96733e-06,3.9938e-06,3.25889e-05,4.39787e-05,-2.82362e-06,1.36985e-05
745,-1.51336e-05,2.62175e-06,2.16963e-05,4.26147e-05,-2.35797e-06,6.971e-06
746,-1.5003e-05,1.90736e-06,2.03707e-05,4.60767e-05,1.45889e-06,1.85892e-06
747,-5.54625e-07,6.9575e-06,3.06902e-05,4.74165e-05,2.14389e-06,4.15583e-06
748,9.40762e-06,1.26723e-05,4.04478e-05,4.50695e-05,-1.64587e-06,9.07964e-06
749,4.85136e-06,1.3602e-05,4.35933e-05,3.87524e-05,-5.55743e-06,1.31575e-05
750,-8.37389e-06,1.13781e-05,4.13677e-05,3.20715e-05,-4.88613e-06,1.63067e-05
751,-2.57166e-05,7.448e-06,3.15025e-05,3.40522e-05,-2.33704e-06,1.44959e-05
752,-3.00741e-05,2.85734e-06,2.52756e-05,4.5343e-05,-5.60012e-07,8.30586e-06
753,-1.53488e-05,8.15678e-08,3.12481e-05,5.39046e-05,-1.35874e-06,4.83203e-06
754,-1.25123e-06,1.12587e-06,3.95802e-05,5.4164e-05,-3.45964e-06,6.25079e-06
755,-3.17105e-06,5.19564e-06,4.12226e-05,4.76427e-05,-5.52895e-06,8.77018e-06
756,-1.30469e-05,9.09341e-06,3.93959e-05,4.06203e-05,-7.9952e-06,1.04056e-05
757,-3.42692e-05,1.01186e-05,3.11181e-05,4.2292e-05,-1.28441e-05,9.23803e-06
758,-4.29581e-05,9.41205e-06,2.6416e-05,4.97807e-05,-1.49651e-05,1.07636e-05
759,-1.57369e-05,9.68086e-06,3.5037e-05,4.92193e-05,-8.73841e-06,1.57253e-05
760,5.40179e-06,1.24476e-05,3.91793e-05,4.45308e-05,-2.82197e-06,1.39396e-05
761,6.99025e-06,1.49374e-05,3.90096e-05,4.3322e-05,-2.32067e-06,1.12529e-05
762,8.6571e-06,1.52865e-05,4.7982e-05,4.50932e-05,-5.83906e-06,1.22638e-05
763,1.23388e-05,1.19666e-05,5.22067e-05,4.83967e-05,-1.07032e-05,9.21383e-06
764,1.64548e-05,9.09725e-06,4.94267e-05,4.97054e-05,-9.97505e-06,9.96202e-06
765,3.49766e-06,7.39315e-06,4.13483e-05,5.10871e-05,-7.54689e-06,9.16917e-06
766,-1.86605e-05,2.60911e-06,3.20541e-05,5.61365e-05,-6.74989e-06,2.86484e-06
767,-2.07436e-05,1.49826e-06,3.27901e-05,6.10183e-05,-5.87737e-06,3.02667e-07
768,6.27693e-07,6.4854e-06,4.22933e-05,6.35195e-05,-7.82518e-06,6.20358e-06
769,1.5723e-05,1.3152e-05,4.97401e-05,6.20064e-05,-1.02695e-05,1.18234e-05
770,1.34043e-05,1.51356e-05,5.03058e-05,5.41379e-05,-1.07279e-05,1.28243e-05
771,-1.71219e-06,1.23666e-05,4.20951e-05,4.35116e-05,-1.04017e-05,1.20412e-05
772,-1.81049e-05,6.70705e-06,2.94035e-05,4.04252e-05,-1.0424e-05,1.00515e-05
773,-1.83077e-05,3.62173e-06,2.5786e-05,4.8774e-05,-1.01213e-05,7.63021e-06
774,-1.03996e-06,4.1792e-06,3.36763e-05,6.06277e-05,-1.02709e-05,7.11484e-06
775,1.64214e-05,6.41915e-06,4.25658e-05,6.64951e-05,-1.05364e-05,1.12765e-05
776,1.95297e-05,9.93853e-06,4.50375e-05,6.26609e-05,-8.01727e-06,1.65938e-05
777,3.76313e-06,1.20067e-05,4.09591e-05,5.5537e-05,-3.82942e-06,1.89381e-05
778,-2.31015e-05,1.33794e-05,3.23107e-05,5.53675e-05,-3.8341e-06,1.57204e-05
779,-2.97947e-05,1.4304e-05,3.03146e-05,6.24527e-05,-6.33283e-06,1.29964e-05
780,-9.29649e-06,1.44062e-05,3.92433e-05,6.29007e-05,-7.27266e-06,1.62696e-05
781,1.07032e-05,1.40523e-05,4.73226e-05,5.33862e-05,-1.26239e-05,2.14817e-05
782,1.2219e-05,1.64013e-05,4.55605e-05,4.71358e-05,-2.20638e-05,2.04055e-05
783,-9.26939e-08,2.19575e-05,3.93685e-05,4.87759e-05,-2.44823e-05,1.48531e-05
784,-2.59353e-05,2.50251e-05,2.84095e-05,5.24657e-05,-1.544e-05,1.33383e-05
785,-3.85917e-05,2.15999e-05,2.26236e-05,5.52014e-05,-6.67825e-06,2.19626e-05
786,-1.58084e-05,1.84008e-05,2.9505e-05,5.49111e-05,-8.86276e-06,2.94144e-05
787,2.00553e-06,1.77309e-05,3.38462e-05,5.19105e-05,-1.32307e-05,2.87006e-05
788,1.65156e-06,1.58143e-05,3.4485e-05,4.95942e-05,-1.72347e-05,2.35359e-05
789,4.3839e-06,1.13489e-05,3.78726e-05,5.00975e-05,-1.98961e-05,2.1228e-05
790,5.49852e-06,1.17031e-05,4.24717e-05,5.23228e-05,-1.83912e-05,2.05882e-05
791,7.62625e-06,1.8107e-05,4.53935e-05,5.29326e-05,-1.52218e-05,2.0623e-05
792,-4.96911e-06,2.20159e-05,4.18271e-05,5.30049e-05,-1.33105e-05,1.94443e-05
793,-3.02483e-05,1.94664e-05,3.38328e-05,5.53651e-05,-1.19576e-05,1.26402e-05
794,-3.51946e-05,1.26435e-05,3.04131e-05,5.67855e-05,-1.03387e-05,8.9516e-06
795,-1.48621e-05,6.71805e-06,3.76046e-05,5.6318e-05,-1.24078e-05,1.24968e-05
796,2.41106e-06,4.80172e-06,4.45493e-05,5.44899e-05,-1.70454e-05,1.90265e-05
797,5.2659e-06,8.09805e-06,4.57177e-05,4.87839e-05,-1.71876e-05,2.21815e-05
798,-4.62236e-06,1.47019e-05,4.21513e-05,4.31213e-05,-1.05315e-05,2.20855e-05
799,-1.91415e-05,1.61825e-05,3.32941e-05,4.53595e-05,-4.12468e-06,1.76907e-05
800,-2.14893e-05,1.06927e-05,2.86212e-05,5.01176e-05,4.00168e-07,1.14591e-05
801,-9.40128e-06,3.41417e-06,3.2325e-05,5.11172e-05,2.89708e-06,9.11296e-06
802,4.11777e-07,2.23259e-06,3.41835e-05,5.05852e-05,2.69065e-06,1.10014e-05
803,-2.51198e-06,8.09129e-06,2.89567e-05,4.84226e-05,-3.0755e-07,1.29623e-05
804,-1.30229e-05,1.4695e-05,2.10197e-05,4.32101e-05,-2.19736e-06,1.29539e-05
805,-2.66322e-05,1.72248e-05,1.70449e-05,4.04565e-05,7.22724e-07,1.36678e-05
806,-2.85636e-05,1.68277e-05,2.4591e-05,4.32433e-05,5.66265e-06,1.83707e-05
807,-1.24085e-05,1.40989e-05,3.7898e-05,4.64557e-05,4.84923e-06,2.37045e-05
808,4.88981e-06,8.39641e-06,4.38622e-05,4.73469e-05,-3.59761e-06,2.49784e-05
809,1.189e-05,8.69008e-06,4.10832e-05,4.80928e-05,-1.17496e-05,2.38753e-05
810,8.55407e-06,1.28674e-05,3.32791e-05,4.69361e-05,-1.22704e-05,2.2938e-05
811,-1.62616e-05,9.19621e-06,2.33234e-05,4.70252e-05,-7.6911e-06,2.06795e-05
812,-3.09115e-05,1.54272e-06,2.4822e-05,5.05759e-05,-5.17454e-06,1.7675e-05
813,-4.40505e-06,2.74397e-06,3.82332e-05,5.23485e-05,-4.71178e-06,1.70901e-05
814,1.76862e-05,6.7237e-06,4.41113e-05,4.81266e-05,-6.03913e-06,1.18248e-05
815,1.47612e-05,9.37669e-06,4.38362e-05,4.30455e-05,-8.33632e-06,6.35326e-06
816,9.62603e-06,1.42596e-05,4.6387e-05,4.84616e-05,-1.20094e-05,1.09297e-05
817,6.87837e-06,1.73181e-05,4.70398e-05,5.53043e-05,-1.52543e-05,2.33972e-05
818,7.19181e-06,1.88701e-05,4.56313e-05,5.29509e-05,-1.39196e-05,3.18656e-05
819,-3.31251e-06,1.85277e-05,4.01053e-05,4.58446e-05,-1.01556e-05,2.17711e-05
820,-1.82843e-05,1.43021e-05,3.55453e-05,4.63707e-05,-7.011e-06,2.20769e-06
821,-1.59374e-05,1.22071e-05,3.66181e-05,5.1283e-05,-3.69291e-06,-6.11627e-06
822,4.55067e-06,1.08486e-05,4.05806e-05,5.53909e-05,-9.61065e-08,9.56612e-07
823,1.97885e-05,7.55956e-06,4.36579e-05,5.4817e-05,7.81469e-07,1.15523e-05
824,2.12783e-05,8.07557e-06,4.49651e-05,4.91799e-05,-1.65257e-06,1.75748e-05
825,7.56264e-06,1.06847e-05,4.02142e-05,4.42665e-05,-5.79441e-06,1.49785e-05
826,-1.22987e-05,1.05993e-05,3.01222e-05,4.49065e-05,-7.59628e-06,8.07152e-06
827,-1.7727e-05,9.98882e-06,2.68342e-05,5.06174e-05,-4.2135e-06,5.61936e-06
828,-6.14829e-06,8.98791e-06,3.38794e-05,5.53954e-05,-3.27871e-06,1.06698e-05
829,4.99946e-06,8.27544e-06,4.05708e-05,5.67576e-05,-1.14584e-05,1.66666e-05
830,4.10327e-06,1.08917e-05,4.00454e-05,5.31575e-05,-1.9655e-05,1.88737e-05
831,-6.67007e-06,1.46123e-05,3.56096e-05,4.76231e-05,-1.78027e-05,1.80718e-05
832,-2.46468e-05,1.1942e-05,3.06908e-05,4.55911e-05,-1.0437e-05,1.45279e-05
833,-2.93103e-05,5.73288e-06,3.2294e-05,5.0159e-05,-6.27765e-06,1.11912e-05
834,-1.02344e-05,6.99002e-06,3.95246e-05,5.72507e-05,-6.7623e-06,1.43613e-05
835,1.08379e-05,1.47343e-05,4.39286e-05,6.27904e-05,-9.06168e-06,2.2974e-05
836,1.52742e-05,2.11227e-05,4.70567e-05,6.07221e-05,-1.18955e-05,2.59313e-05
837,6.12701e-06,2.3678e-05,4.93538e-05,5.35278e-05,-1.05471e-05,2.20944e-05
838,-2.19639e-05,1.90357e-05,4.26545e-05,5.15955e-05,-4.87618e-06,1.33516e-05
839,-3.92109e-05,1.18374e-05,3.28946e-05,5.57293e-05,-2.32197e-06,9.24056e-06
840,-2.06047e-05,1.01778e-05,3.27678e-05,5.89754e-05,-6.31341e-06,1.12872e-05
841,-2.95212e-06,1.003e-05,3.97811e-05,5.75339e-05,-1.12387e-05,1.22573e-05
842,-5.10072e-07,8.30952e-06,4.44192e-05,5.24167e-05,-1.49197e-05,1.45291e-05
843,4.20874e-06,4.52936e-06,4.65351e-05,5.23613e-05,-1.90107e-05,1.4325e-05
844,7.89258e-06,3.09903e-06,4.65749e-05,5.33497e-05,-1.753e-05,1.08791e-05
845,9.96249e-06,8.0584e-06,4.53635e-05,5.1003e-05,-1.38718e-05,1.18683e-05
846,-1.0338e-06,1.20723e-05,3.67482e-05,4.99297e-05,-1.27508e-05,1.1864e-05
847,-2.29756e-05,9.2937e-06,2.59486e-05,5.3381e-05,-1.09022e-05,5.90661e-06
848,-2.40643e-05,8.12148e-06,2.86424e-05,5.7489e-05,-7.52287e-06,3.71441e-06
849,-3.02335e-06,9.56209e-06,3.99946e-05,5.90173e-05,-5.25679e-06,1.06368e-05
850,1.24854e-05,1.08936e-05,4.59029e-05,5.77486e-05,-7.22451e-06,2.01621e-05
851,1.37869e-05,1.24195e-05,4.46366e-05,5.13694e-05,-1.03306e-05,2.42538e-05
852,1.48152e-06,1.30702e-05,3.57794e-05,4.43856e-05,-1.03337e-05,2.12068e-05
853,-1.4721e-05,1.19289e-05,2.27298e-05,4.30653e-05,-7.9078e-06,1.67813e-05
854,-1.71731e-05,1.01019e-05,2.0405e-05,4.6596e-05,-5.84039e-06,1.4629e-05
855,-1.10008e-06,1.06226e-05,3.08044e-05,4.86473e-05,-3.45849e-06,1.25817e-05
856,1.56686e-05,1.54458e-05,3.93502e-05,4.89557e-05,-1.43793e-06,1.04391e-05
857,1.55902e-05,2.22368e-05,3.87487e-05,4.67917e-05,-2.65427e-06,1.15689e-05
858,-2.15333e-06,2.53044e-05,3.3865e-05,4.30955e-05,-7.23975e-06,1.47095e-05
859,-2.67539e-05,2.18357e-05,2.73303e-05,4.35224e-05,-7.8224e-06,1.44491e-05
860,-3.33733e-05,1.6204e-05,2.69642e-05,4.77038e-05,-3.17796e-06,1.34497e-05
861,-1.39053e-05,1.4768e-05,3.69111e-05,5.01715e-05,-4.10099e-06,1.58484e-05
862,3.87145e-06,1.49595e-05,4.67929e-05,5.19692e-05,-1.23736e-05,1.76408e-05
863,1.59473e-06,1.62019e-05,4.72045e-05,5.15936e-05,-2.08871e-05,1.66932e-05
864,-8.16417e-06,2.00992e-05,4.02199e-05,4.6609e-05,-2.46438e-05,1.34734e-05
865,-2.76354e-05,2.19578e-05,3.0735e-05,4.36986e-05,-2.4259e-05,1.20471e-05
866,-3.43577e-05,1.83546e-05,2.76753e-05,4.69712e-05,-1.99032e-05,1.75632e-05
867,-1.15893e-05,1.24471e-05,3.67193e-05,5.14266e-05,-1.33738e-05,2.56888e-05
868,2.69639e-06,8.39266e-06,4.35561e-05,5.34658e-05,-7.86359e-06,2.21571e-05
869,2.78809e-06,5.69685e-06,4.10428e-05,5.32247e-05,-6.74649e-06,1.37924e-05
870,5.76754e-06,3.80531e-06,3.83293e-05,5.52186e-05,-1.07688e-05,1.32566e-05
871,6.38139e-06,7.81696e-06,3.62348e-05,5.67919e-05,-1.66734e-05,1.46437e-05
872,3.90895e-06,1.42781e-05,3.68529e-05,5.36407e-05,-2.14915e-05,1.22854e-05
873,-1.2749e-05,1.81568e-05,3.45301e-05,4.85086e-05,-2.33272e-05,3.83733e-06
874,-3.57441e-05,2.04124e-05,3.03197e-05,4.84279e-05,-2.18341e-05,1.36589e-07
875,-3.19171e-05,2.19551e-05,3.60158e-05,5.18552e-05,-1.59843e-05,4.43447e-06
876,-3.75152e-06,2.0275e-05,4.64181e-05,5.40717e-05,-1.30412e-05,1.23433e-05
877,1.47276e-05,1.34558e-05,4.91979e-05,5.33617e-05,-1.39123e-05,1.81964e-05
878,1.3936e-05,7.46159e-06,4.56368e-05,4.94711e-05,-1.33486e-05,2.15973e-05
879,-3.92896e-06,6.08281e-06,3.92291e-05,4.7124e-05,-1.34265e-05,2.05048e-05
880,-2.50097e-05,5.78261e-06,2.88372e-05,4.93938e-05,-1.46499e-05,1.41997e-05
881,-2.50139e-05,5.60476e-06,2.43857e-05,5.3704e-05,-1.47317e-05,9.93548e-06
882,-4.29793e-06,7.81196e-06,3.19761e-05,5.45283e-05,-1.29811e-05,1.27678e-05
883,1.36263e-05,1.11537e-05,4.08581e-05,5.26246e-05,-1.13506e-05,1.99646e-05
884,1.75991e-05,1.46653e-05,4.1865e-05,4.87755e-05,-1.16154e-05,2.52073e-05
885,5.42368e-06,1.84954e-05,3.64419e-05,4.39114e-05,-1.22587e-05,2.51867e-05
886,-2.16715e-05,1.92328e-05,3.03376e-05,4.32492e-05,-1.12641e-05,1.66527e-05
887,-3.51327e-05,1.69622e-05,3.13083e-05,5.11825e-05,-8.90712e-06,3.90908e-06
888,-1.84326e-05,1.51145e-05,3.97904e-05,6.04359e-05,-5.00965e-06,-3.94961e-06
889,4.63229e-06,1.22499e-05,4.62473e-05,6.20587e-05,-3.20644e-06,-3.56647e-07
890,1.23542e-05,1.31311e-05,4.34464e-05,5.46952e-05,-4.21924e-06,7.57758e-06
891,4.15366e-06,2.00759e-05,3.5951e-05,4.47429e-05,-6.25697e-06,8.50642e-06
892,-2.41558e-05,2.19411e-05,2.63191e-05,4.3784e-05,-7.63863e-06,5.09632e-06
893,-4.06589e-05,1.83608e-05,2.45102e-05,5.07839e-05,-7.14946e-06,8.39803e-06
894,-1.92722e-05,1.60811e-05,3.46581e-05,5.22113e-05,-2.52521e-06,1.45235e-05
895,-2.50862e-06,1.15682e-05,3.77539e-05,4.97062e-05,-4.58842e-08,1.43496e-05
896,-2.76249e-06,7.27374e-06,3.62432e-05,4.69075e-05,-4.05454e-07,1.33603e-05
897,-3.96513e-06,4.9254e-06,3.62033e-05,4.66323e-05,1.04115e-06,1.48401e-05
898,-8.88275e-06,3.03549e-06,3.40254e-05,4.74653e-05,-1.99844e-06,1.41108e-05
899,-1.14536e-05,4.73528e-06,3.27247e-05,4.53395e-05,-6.37469e-06,1.71398e-05
900,-2.4336e-05,7.6283e-06,2.94706e-05,4.50676e-05,-8.26915e-06,1.93276e-05
901,-4.61608e-05,4.64383e-06,2.7742e-05,4.92966e-05,-8.93626e-06,1.68275e-05
902,-4.59246e-05,-6.32822e-07,3.02872e-05,5.13223e-05,-9.48681e-06,1.52285e-05
903,-2.06258e-05,3.53624e-07,3.31206e-05,4.82029e-05,-1.17468e-05,1.66134e-05
904,1.2096e-06,6.43092e-06,3.1665e-05,4.69824e-05,-1.52947e-05,1.69671e-05
905,8.84513e-06,1.30294e-05,3.04662e-05,4.70859e-05,-1.43599e-05,1.58507e-05
906,-1.74156e-06,1.63435e-05,2.92696e-05,4.73907e-05,-1.12338e-05,1.43414e-05
907,-2.2679e-05,1.54727e-05,2.63362e-05,4.78635e-05,-8.6316e-06,1.10627e-05
908,-2.77556e-05,1.32964e-05,2.62504e-05,4.93516e-05,-6.818e-06,1.34556e-05
909,-8.13365e-06,1.23247e-05,3.08836e-05,5.18922e-05,-7.65873e-06,2.27941e-05
910,1.18407e-05,1.19838e-05,3.36536e-05,5.56922e-05,-1.02313e-05,3.07442e-05
911,1.25464e-05,1.2794e-05,3.22693e-05,5.54912e-05,-1.258e-05,3.04114e-05
912,-4.24887e-06,1.4884e-05,2.81503e-05,4.97327e-05,-1.34679e-05,2.31627e-05
913,-2.70726e-05,1.4738e-05,2.19406e-05,4.78218e-05,-1.04515e-05,1.40277e-05
914,-3.14139e-05,1.30862e-05,2.29911e-05,5.13629e-05,-4.20264e-06,1.16371e-05
915,-9.23847e-06,1.29586e-05,3.33388e-05,5.46129e-05,-1.15262e-07,1.67031e-05
916,1.14669e-05,1.37544e-05,4.23776e-05,5.52013e-05,-4.17716e-07,2.43702e-05
917,1.08235e-05,1.45913e-05,4.26802e-05,5.15099e-05,-4.38977e-06,3.13503e-05
918,-3.99448e-06,1.53828e-05,3.55107e-05,4.56269e-05,-7.01288e-06,2.86086e-05
919,-3.26205e-05,1.3559e-05,2.22646e-05,4.74081e-05,-8.75478e-06,1.42739e-05
920,-4.48022e-05,8.83728e-06,1.99842e-05,5.59814e-05,-1.10867e-05,6.74818e-06
921,-1.82705e-05,4.52663e-06,3.32077e-05,6.10362e-05,-1.49583e-05,1.32711e-05
922,3.85958e-06,3.20395e-06,3.89018e-05,5.78613e-05,-1.60039e-05,2.05541e-05
923,9.92874e-06,7.90777e-06,3.65621e-05,5.42987e-05,-1.29847e-05,2.07028e-05
924,1.2571e-05,1.2932e-05,3.97844e-05,5.59175e-05,-1.00587e-05,1.91015e-05
925,8.92349e-06,1.33217e-05,4.48112e-05,5.76399e-05,-1.04554e-05,1.99726e-05
926,7.024e-06,1.52753e-05,4.95354e-05,5.52171e-05,-1.26805e-05,2.06069e-05
927,-3.81948e-06,1.86756e-05,4.59614e-05,4.83553e-05,-1.25758e-05,1.77715e-05
928,-2.15628e-05,1.52564e-05,3.37849e-05,4.6566e-05,-1.14108e-05,1.34339e-05
929,-2.03963e-05,8.60931e-06,2.97334e-05,4.96637e-05,-1.16437e-05,1.22891e-05
930,1.05633e-06,6.27484e-06,3.6958e-05,5.38078e-05,-1.51452e-05,1.30386e-05
931,1.27943e-05,9.55409e-06,4.29745e-05,5.4339e-05,-1.67475e-05,1.33715e-05
932,1.18756e-05,1.60922e-05,4.39613e-05,5.14778e-05,-1.50915e-05,1.51342e-05
933,1.54717e-06,1.87624e-05,3.80469e-05,4.87233e-05,-1.47383e-05,1.74912e-05
934,-1.19187e-05,1.56649e-05,2.79871e-05,4.91555e-05,-1.58868e-05,1.74612e-05
935,-1.30187e-05,1.29923e-05,2.62337e-05,5.39762e-05,-1.49076e-05,1.53246e-05
936,4.76758e-06,1.36897e-05,3.49184e-05,5.65171e-05,-1.40492e-05,1.55526e-05
937,2.25032e-05,1.43666e-05,4.19061e-05,5.35734e-05,-1.63325e-05,1.7127e-05
938,2.2863e-05,1.38483e-05,4.05796e-05,4.74348e-05,-1.83689e-05,1.48883e-05
939,7.50844e-06,1.34278e-05,3.50252e-05,4.4059e-05,-1.7101e-05,7.91265e-06
940,-1.30493e-05,1.26364e-05,2.78271e-05,4.46929e-05,-1.12232e-05,1.58213e-07
941,-1.60424e-05,1.22517e-05,2.73003e-05,5.0373e-05,-2.85455e-06,2.17769e-07
942,2.35474e-07,1.39583e-05,3.85287e-05,5.5698e-05,-4.27652e-07,8.80073e-06
943,1.21335e-05,1.46222e-05,5.01558e-05,5.60106e-05,-7.04825e-06,1.78413e-05
944,7.44922e-06,1.51963e-05,5.02389e-05,5.25649e-05,-1.29754e-05,2.18866e-05
945,-3.86466e-06,1.64829e-05,3.89635e-05,4.98847e-05,-1.08012e-05,2.10599e-05
946,-2.60656e-05,1.23202e-05,2.6757e-05,5.18312e-05,-8.22409e-06,1.29341e-05
947,-3.53767e-05,7.77344e-06,2.69306e-05,5.69764e-05,-7.98057e-06,5.87483e-06
948,-8.32746e-06,7.22211e-06,3.67519e-05,5.93248e-05,-3.00238e-06,3.47444e-06
949,1.04729e-05,7.46444e-06,3.84886e-05,5.59235e-05,1.38049e-06,-1.3832e-06
950,7.47516e-06,6.84952e-06,3.37341e-05,5.11616e-05,-3.76724e-07,-2.55555e-06
951,8.1486e-06,5.60753e-06,3.45298e-05,5.01711e-05,-5.81568e-06,3.38821e-06
952,1.07484e-05,6.34575e-06,3.9803e-05,5.0235e-05,-6.61022e-06,1.1018e-05
953,1.51141e-05,1.1372e-05,4.62429e-05,4.73979e-05,-2.26372e-06,1.43472e-05
954,3.94203e-06,1.64902e-05,4.34604e-05,4.41498e-05,-1.16994e-06,1.29426e-05
955,-1.72783e-05,9.54261e-06,3.69892e-05,4.64771e-05,-2.05247e-06,7.60537e-06
956,-1.89312e-05,1.23941e-06,3.64917e-05,5.11148e-05,-1.92911e-06,2.80091e-06
957,-1.71676e-07,1.76829e-06,4.07526e-05,5.19445e-05,-3.17447e-06,6.31793e-06
958,1.0213e-05,7.08486e-06,4.11895e-05,4.79209e-05,-6.22127e-06,1.42932e-05
959,7.34308e-06,1.28235e-05,3.85343e-05,4.36203e-05,-8.69488e-06,1.79532e-05
960,-4.13045e-06,1.62911e-05,3.54732e-05,4.2649e-05,-9.12186e-06,1.68013e-05
961,-1.95764e-05,1.76486e-05,3.31713e-05,4.61783e-05,-6.03457e-06,1.5541e-05
962,-2.45086e-05,1.64964e-05,3.70069e-05,5.323e-05,-2.85426e-06,1.68502e-05
963,-1.31526e-05,1.50455e-05,4.39638e-05,5.87194e-05,-3.07489e-06,2.17651e-05
964,2.38071e-06,1.61315e-05,4.66711e-05,5.80715e-05,-5.46944e-06,2.45086e-05
965,9.49135e-06,2.00932e-05,4.38546e-05,5.05852e-05,-8.213e-06,2.04492e-05
966,3.74439e-06,2.25839e-05,4.15566e-05,4.454e-05,-9.51312e-06,1.30841e-05
967,-1.26745e-05,1.89934e-05,4.04669e-05,4.68576e-05,-8.53283e-06,6.71168e-06
968,-1.56838e-05,1.21347e-05,4.33606e-05,5.31267e-05,-6.63557e-06,7.07661e-06
969,2.74718e-06,8.76927e-06,4.85425e-05,5.40847e-05,-6.08116e-06,2.00173e-05
970,2.02534e-05,8.30154e-06,4.84835e-05,5.0635e-05,-7.74513e-06,3.30164e-05
971,2.06172e-05,1.22024e-05,4.19579e-05,4.44336e-05,-8.80041e-06,2.84785e-05
972,5.94304e-06,1.79386e-05,3.93887e-05,3.97614e-05,-6.96547e-06,1.36824e-05
973,-2.74576e-05,1.84341e-05,3.61088e-05,4.34877e-05,-3.98179e-06,6.80178e-06
974,-4.4239e-05,1.29705e-05,3.24484e-05,4.98357e-05,-3.80329e-06,7.35375e-06
975,-2.03674e-05,7.52996e-06,3.97544e-05,5.03667e-05,-3.65002e-06,9.09196e-06
976,1.84193e-06,7.82616e-06,4.67259e-05,4.84303e-05,4.10382e-07,7.72582e-06
977,5.30955e-06,8.26906e-06,4.71665e-05,4.75172e-05,2.32609e-06,5.55906e-06
978,4.61621e-06,4.82198e-06,4.84401e-05,5.10797e-05,-2.01827e-06,9.21001e-06
979,3.32715e-07,6.54975e-06,4.77492e-05,5.18176e-05,-5.92966e-06,1.60226e-05
980,-1.17484e-06,1.15294e-05,4.48946e-05,4.62413e-05,-5.10836e-06,2.4324e-05
981,-8.16991e-06,1.45663e-05,3.9491e-05,4.25637e-05,-4.89609e-06,2.55915e-05
982,-2.08554e-05,1.42496e-05,3.25833e-05,4.36938e-05,-4.03945e-06,1.85104e-05
983,-1.79336e-05,1.46878e-05,3.19496e-05,4.6924e-05,-2.24041e-06,1.62895e-05
984,1.98741e-06,1.5017e-05,3.56668e-05,5.00657e-05,-3.8023e-06,2.33899e-05
985,1.50865e-05,1.2139e-05,3.80974e-05,5.14026e-05,-8.44352e-06,2.50511e-05
986,1.34096e-05,1.16718e-05,3.94816e-05,4.86265e-05,-1.27742e-05,1.71648e-05
987,-3.36144e-06,1.53658e-05,3.74109e-05,4.57115e-05,-1.43922e-05,7.78081e-06
988,-2.45338e-05,1.74496e-05,3.18369e-05,4.76611e-05,-1.44505e-05,1.4397e-06
989,-2.84023e-05,1.35105e-05,3.03513e-05,5.27927e-05,-1.46909e-05,3.78163e-06
990,-1.35414e-05,9.068e-06,3.78125e-05,5.74334e-05,-1.64836e-05,1.37364e-05
991,4.21514e-08,9.29697e-06,4.72577e-05,5.88674e-05,-1.92328e-05,2.00538e-05
992,-1.25709e-07,1.39327e-05,4.84388e-05,5.48172e-05,-1.92325e-05,1.78002e-05
993,-1.23757e-05,1.5713e-05,3.99138e-05,4.97307e-05,-1.55246e-05,1.22639e-05
994,-3.04066e-05,1.35369e-05,2.93347e-05,4.8892e-05,-1.15609e-05,4.24666e-06
995,-3.25534e-05,1.10308e-05,2.97035e-05,5.27834e-05,-8.62912e-06,-2.2434e-06
996,-1.07269e-05,1.01682e-05,3.78552e-05,5.81696e-05,-8.55533e-06,-9.18519e-07
997,7.83209e-06,8.67211e-06,4.03618e-05,6.13025e-05,-1.04498e-05,3.11386e-06
998,4.98203e-06,5.89456e-06,3.76792e-05,5.7304e-05,-1.30214e-05,4.34158e-06
999,-7.05249e-06,4.9337e-06,3.22379e-05,4.8021e-05,-1.71101e-05,4.55551e-06
1000,-2.96055e-05,4.98331e-06,2.32679e-05,4.23981e-05,-2.03412e-05,5.24822e-07
1001,-3.83232e-05,2.93715e-06,2.0767e-05,4.19911e-05,-2.17644e-05,-2.20686e-06
1002,-1.3097e-05,1.92892e-06,3.15085e-05,4.45168e-05,-1.72746e-05,5.04882e-06
1003,-1.59775e-07,3.74472e-06,3.76165e-05,4.72933e-05,-1.1363e-05,9.60941e-06
1004,-4.20723e-06,1.80058e-06,3.57302e-05,4.70126e-05,-1.05214e-05,1.06789e-05
1005,-2.55858e-06,-5.52668e-06,3.7191e-05,4.75131e-05,-9.34947e-06,1.54299e-05
1006,-1.2725e-06,-8.89005e-06,3.98619e-05,4.77314e-05,-8.48377e-06,2.27459e-05
1007,-1.03955e-06,-1.67592e-06,4.20088e-05,4.45812e-05,-9.8185e-06,3.19119e-05
1008,-1.83285e-05,9.28328e-06,3.7302e-05,4.26043e-05,-1.11909e-05,3.04141e-05
1009,-3.93641e-05,1.51394e-05,2.99111e-05,4.57678e-05,-1.09568e-05,1.81677e-05
1010,-3.57439e-05,1.56843e-05,3.00318e-05,5.10664e-05,-9.32123e-06,7.68281e-06
1011,-1.43019e-05,1.21628e-05,3.81021e-05,5.54249e-05,-9.45531e-06,4.7052e-06
1012,3.86918e-07,8.71458e-06,4.27153e-05,5.54633e-05,-1.25145e-05,6.12973e-06
1013,3.12292e-06,1.14937e-05,4.05604e-05,5.24611e-05,-1.323e-05,1.05136e-05
1014,-1.02245e-05,1.61015e-05,3.28375e-05,4.94397e-05,-1.11364e-05,1.31024e-05
1015,-3.13723e-05,1.44198e-05,2.68758e-05,4.961e-05,-1.0345e-05,1.14247e-05
1016,-3.4408e-05,1.05911e-05,3.24981e-05,5.29405e-05,-1.07744e-05,1.0444e-05
1017,-1.30633e-05,9.98032e-06,4.51976e-05,5.47731e-05,-7.65325e-06,1.37856e-05
1018,7.29227e-06,1.06228e-05,5.23851e-05,5.42917e-05,-3.18994e-06,1.91594e-05
1019,9.5394e-06,1.2132e-05,4.95405e-05,5.10499e-05,-4.80543e-06,2.16718e-05
1020,-1.47241e-06,1.35999e-05,4.2889e-05,4.79521e-05,-9.44084e-06,1.88291e-05
1021,-1.71084e-05,1.14327e-05,3.52548e-05,4.93367e-05,-1.01847e-05,1.33371e-05
1022,-1.69183e-05,9.37191e-06,3.33872e-05,5.30871e-05,-7.66906e-06,1.31666e-05
1023,2.81036e-06,1.28596e-05,3.97829e-05,5.57875e-05,-8.80238e-06,1.96919e-05
1024,1.92277e-05,1.54892e-05,4.7735e-05,5.73567e-05,-1.48418e-05,2.52189e-05
1025,1.77342e-05,1.79644e-05,4.95102e-05,5.6238e-05,-1.93797e-05,2.345e-05
1026,3.0025e-06,2.52975e-05,4.31898e-05,5.32574e-05,-1.77219e-05,1.86997e-05
1027,-2.68881e-05,2.78027e-05,3.20774e-05,5.38847e-05,-1.34757e-05,8.1626e-06
1028,-3.78644e-05,2.16965e-05,3.02324e-05,5.91405e-05,-1.06047e-05,-2.54222e-06
1029,-1.06368e-05,1.47083e-05,3.91485e-05,6.27868e-05,-9.68389e-06,-5.10359e-06
1030,7.64452e-06,1.63683e-05,4.0043e-05,6.08825e-05,-1.47306e-05,1.63924e-06
1031,5.04684e-06,2.22022e-05,3.4684e-05,5.69104e-05,-1.98595e-05,1.12659e-05
1032,2.17562e-06,1.93095e-05,3.34926e-05,5.58106e-05,-1.59774e-05,1.59763e-05
1033,2.44103e-06,1.38104e-05,3.28942e-05,5.71565e-05,-1.07092e-05,1.91505e-05
1034,7.1214e-06,1.2174e-05,3.15495e-05,5.88921e-05,-8.5102e-06,2.24707e-05
1035,-4.05975e-06,1.21729e-05,2.64852e-05,5.67443e-05,-8.21421e-06,2.38889e-05
1036,-2.37723e-05,9.23234e-06,1.93875e-05,5.30957e-05,-9.73873e-06,1.73678e-05
1037,-2.29632e-05,7.60513e-06,2.24461e-05,5.055e-05,-1.16527e-05,8.91451e-06
1038,-1.08243e-06,1.06615e-05,3.50635e-05,5.37035e-05,-1.38014e-05,9.49397e-06
1039,1.60726e-05,1.64587e-05,4.45661e-05,5.74376e-05,-1.42626e-05,1.72656e-05
1040,1.73759e-05,1.78131e-05,4.66087e-05,5.4433e-05,-1.50672e-05,2.53156e-05
1041,9.05986e-07,1.09651e-05,3.85005e-05,4.87925e-05,-1.92205e-05,2.6914e-05
1042,-2.32845e-05,3.76561e-07,2.70427e-05,4.9304e-05,-2.15076e-05,2.20784e-05
1043,-2.84809e-05,-4.30223e-06,2.53463e-05,5.38069e-05,-1.94831e-05,1.61209e-05
1044,-1.14958e-05,9.02627e-07,3.63048e-05,5.42876e-05,-1.95172e-05,1.21382e-05
1045,4.79655e-06,6.84617e-06,4.69864e-05,5.14726e-05,-2.45148e-05,8.58146e-06
1046,6.05843e-06,9.13533e-06,4.97436e-05,4.8258e-05,-2.64363e-05,4.16131e-06
1047,-5.67581e-06,1.03895e-05,4.47982e-05,4.8279e-05,-2.0179e-05,2.27278e-06
1048,-2.52955e-05,9.69486e-06,3.48245e-05,5.1192e-05,-1.14404e-05,5.25624e-06
1049,-2.99017e-05,3.39791e-06,3.15263e-05,5.55326e-05,-6.9094e-06,1.15302e-05
1050,-1.08329e-05,-3.03163e-06,3.9121e-05,5.81513e-05,-7.15305e-06,1.73777e-05
1051,9.36219e-06,-1.66727e-06,4.61546e-05,5.66012e-05,-1.23797e-05,1.9653e-05
1052,1.35305e-05,7.2742e-06,4.37287e-05,5.14445e-05,-1.88785e-05,1.92288e-05
1053,2.5291e-06,1.49119e-05,3.70946e-05,4.82818e-05,-1.90552e-05,1.85524e-05
1054,-2.09123e-05,1.55157e-05,3.04318e-05,4.81716e-05,-1.33529e-05,1.41036e-05
1055,-2.65068e-05,1.04194e-05,3.09994e-05,4.94108e-05,-7.93431e-06,8.22941e-06
1056,7.87661e-07,4.36925e-06,3.91463e-05,4.90091e-05,-7.27772e-06,1.10689e-05
1057,1.59717e-05,2.61253e-06,4.38911e-05,4.846e-05,-8.30479e-06,1.5062e-05
1058,1.13487e-05,7.08393e-06,4.44018e-05,4.82753e-05,-9.74496e-06,1.60571e-05
1059,9.73423e-06,1.29808e-05,4.15067e-05,4.68646e-05,-8.94629e-06,1.92129e-05
1060,7.48462e-06,1.82765e-05,3.56192e-05,4.34391e-05,-4.47024e-06,2.13798e-05
1061,5.02078e-06,1.82308e-05,3.17697e-05,3.97119e-05,-1.0864e-06,2.28147e-05
1062,-8.73426e-06,1.40987e-05,2.69576e-05,3.84453e-05,1.49948e-06,2.25375e-05
1063,-2.55198e-05,8.63849e-06,2.20383e-05,4.12677e-05,4.15345e-06,1.80415e-05
1064,-2.10507e-05,4.35923e-06,2.45823e-05,4.55606e-05,5.07359e-06,1.63406e-05
1065,8.65661e-07,3.40075e-06,3.40324e-05,4.85497e-05,2.14605e-06,2.17607e-05
1066,1.25476e-05,7.29582e-06,3.6604e-05,4.89955e-05,-2.10309e-06,2.4322e-05
1067,9.19418e-06,1.59681e-05,3.0315e-05,4.5254e-05,-3.99301e-06,2.00573e-05
1068,-5.71682e-06,2.14258e-05,2.0037e-05,3.90865e-05,-3.91866e-06,1.70579e-05
1069,-1.99808e-05,1.94807e-05,1.55217e-05,3.88918e-05,-2.59094e-06,1.59003e-05
1070,-1.52829e-05,1.60442e-05,2.39114e-05,4.63005e-05,-1.30414e-06,1.2486e-05
1071,5.69264e-06,1.71336e-05,3.73188e-05,5.27971e-05,-7.9258e-07,1.38976e-05
1072,2.00491e-05,2.05613e-05,4.23733e-05,5.54337e-05,4.42333e-08,2.04478e-05
1073,1.59768e-05,2.18994e-05,3.96218e-05,5.47055e-05,3.05109e-06,2.35854e-05
1074,1.5952e-06,1.96656e-05,3.55971e-05,5.13631e-05,5.33849e-06,1.8927e-05
1075,-1.67005e-05,1.77e-05,3.09711e-05,4.87277e-05,3.88413e-06,1.17161e-05
1076,-2.01895e-05,1.72669e-05,3.23753e-05,4.95546e-05,6.55815e-07,9.19241e-06
1077,-1.67324e-06,1.58771e-05,4.09669e-05,5.11469e-05,-1.91893e-06,1.20724e-05
1078,1.76481e-05,1.36005e-05,4.5822e-05,5.11682e-05,-4.85745e-06,1.53804e-05
1079,2.0726e-05,1.48442e-05,4.17168e-05,4.87145e-05,-7.62472e-06,1.7272e-05
1080,9.62425e-06,1.76543e-05,3.34327e-05,4.66444e-05,-9.41597e-06,1.96655e-05
1081,-2.12895e-05,1.4236e-05,2.72944e-05,4.95741e-05,-9.04839e-06,1.98015e-05
1082,-3.6334e-05,7.81275e-06,3.52018e-05,5.40906e-05,-8.77362e-06,1.82652e-05
1083,-8.05866e-06,1.10891e-05,4.91105e-05,5.71333e-05,-1.01587e-05,1.71605e-05
1084,1.12058e-05,1.44868e-05,4.90583e-05,5.65701e-05,-1.13687e-05,1.38032e-05
1085,6.60206e-06,1.21569e-05,4.27106e-05,5.19482e-05,-1.1463e-05,1.16072e-05
1086,4.0169e-06,9.08979e-06,4.26555e-05,5.07729e-05,-9.54894e-06,9.94981e-06
1087,2.58893e-06,7.70506e-06,4.57432e-05,4.99415e-05,-1.01854e-05,6.93382e-06
1088,1.27772e-06,1.20251e-05,4.66828e-05,4.50007e-05,-1.2312e-05,8.97193e-06
1089,-1.48909e-05,1.60774e-05,3.98418e-05,3.94046e-05,-1.36708e-05,9.59803e-06
1090,-3.58495e-05,1.56419e-05,3.00764e-05,4.30409e-05,-1.32786e-05,6.54894e-06
1091,-3.1599e-05,1.44812e-05,2.66442e-05,5.03333e-05,-1.2895e-05,4.51429e-06
1092,-8.08083e-06,1.50396e-05,3.39497e-05,5.61464e-05,-1.04757e-05,9.75561e-06
1093,5.22726e-06,1.61895e-05,4.13786e-05,5.81426e-05,-7.1582e-06,2.02814e-05
1094,2.99622e-06,1.7606e-05,4.29807e-05,5.35843e-05,-8.65638e-06,2.63644e-05
1095,-1.17277e-05,1.83576e-05,3.71865e-05,4.66844e-05,-1.29565e-05,2.25909e-05
1096,-3.03159e-05,1.6586e-05,2.81997e-05,4.40519e-05,-1.32014e-05,9.61651e-06
1097,-3.31284e-05,1.39099e-05,2.7339e-05,4.66341e-05,-6.22167e-06,-2.0333e-06
1098,-1.53453e-05,1.08672e-05,3.6704e-05,5.056e-05,2.75587e-06,-1.02825e-06
1099,2.82433e-06,7.97536e-06,4.44279e-05,5.32074e-05,6.29949e-06,9.62804e-06
1100,6.51154e-06,7.50144e-06,4.37227e-05,5.21205e-05,1.95275e-06,1.90583e-05
1101,-4.88391e-06,9.69788e-06,3.93638e-05,5.04441e-05,-4.32178e-06,2.27047e-05
1102,-2.54049e-05,9.87865e-06,3.46982e-05,5.27887e-05,-6.1595e-06,2.1155e-05
1103,-3.13221e-05,7.03511e-06,3.5983e-05,5.88799e-05,-2.38291e-06,1.74952e-05
1104,-1.56933e-05,4.86351e-06,4.24762e-05,6.18155e-05,1.92627e-06,1.80911e-05
1105,1.09429e-06,5.91629e-06,4.46685e-05,6.36565e-05,2.08378e-06,2.33208e-05
1106,3.78632e-06,9.66667e-06,4.08239e-05,6.15631e-05,-4.21962e-06,2.239e-05
1107,-6.31235e-06,1.34998e-05,3.60227e-05,5.57074e-05,-1.22132e-05,1.61588e-05
1108,-3.42878e-05,1.0803e-05,2.67328e-05,5.33936e-05,-1.54462e-05,9.37557e-06
1109,-4.88474e-05,2.36308e-06,2.42447e-05,5.58544e-05,-1.13941e-05,4.82587e-06
1110,-2.13203e-05,3.18937e-06,3.50295e-05,5.62178e-05,-5.38261e-06,1.11694e-05
1111,2.87805e-06,9.6007e-06,3.99556e-05,5.62047e-05,-3.41341e-06,2.08265e-05
1112,3.43921e-06,1.50014e-05,3.57431e-05,5.5753e-05,-3.91148e-06,1.95342e-05
1113,1.11055e-06,1.37284e-05,3.6445e-05,5.61797e-05,-3.3144e-06,1.43373e-05
1114,2.33505e-07,7.42776e-06,4.17524e-05,5.80101e-05,-3.86179e-06,1.47507e-05
1115,2.42039e-06,3.13018e-06,4.50204e-05,5.37521e-05,-6.43754e-06,1.64128e-05
1116,-9.24032e-06,2.95093e-06,3.80992e-05,5.08413e-05,-1.05992e-05,1.11979e-05
1117,-2.78089e-05,8.58676e-06,2.72846e-05,5.34103e-05,-1.29415e-05,1.42821e-06
1118,-2.54666e-05,1.64383e-05,2.73862e-05,5.59656e-05,-1.03048e-05,-2.59687e-06
1119,-1.60963e-06,2.11522e-05,3.70146e-05,5.63871e-05,-8.16715e-06,3.94723e-06
1120,1.66864e-05,1.93553e-05,4.47493e-05,5.52931e-05,-7.84683e-06,1.21197e-05
1121,1.70563e-05,1.79831e-05,4.54562e-05,5.22037e-05,-1.18459e-05,1.64324e-05
1122,-6.08532e-07,1.89438e-05,3.95311e-05,4.82065e-05,-1.70091e-05,1.90913e-05
1123,-2.27207e-05,2.02e-05,3.16446e-05,4.89333e-05,-1.82131e-05,1.95454e-05
1124,-2.38072e-05,1.94897e-05,3.06987e-05,5.25723e-05,-1.46992e-05,1.82485e-05
1125,-2.74379e-06,1.56925e-05,3.77923e-05,5.51852e-05,-1.04046e-05,1.68693e-05
1126,1.37883e-05,1.38508e-05,4.39769e-05,5.66237e-05,-9.89695e-06,1.4745e-05
1127,1.01191e-05,1.60442e-05,4.2986e-05,5.42688e-05,-1.22513e-05,1.30941e-05
1128,-6.64795e-06,1.71472e-05,3.52252e-05,4.94897e-05,-1.40855e-05,1.22543e-05
1129,-2.54701e-05,1.24807e-05,2.62369e-05,4.81707e-05,-1.26806e-05,8.63419e-06
1130,-2.51378e-05,6.53092e-06,2.86936e-05,5.15101e-05,-9.94351e-06,4.17576e-06
1131,-4.13778e-06,5.93061e-06,4.02768e-05,5.52276e-05,-9.15271e-06,5.00532e-06
1132,1.14298e-05,7.83091e-06,4.63911e-05,5.50732e-05,-1.12067e-05,9.88433e-06
1133,9.90461e-06,8.69751e-06,4.33298e-05,5.05721e-05,-1.33659e-05,1.37098e-05
1134,-3.2924e-06,8.66841e-06,3.5524e-05,4.72644e-05,-1.56164e-05,1.54044e-05
1135,-3.10038e-05,4.8592e-06,2.60991e-05,5.12679e-05,-1.67514e-05,1.19686e-05
1136,-4.29268e-05,-6.61729e-07,2.57182e-05,6.007e-05,-1.52639e-05,7.88131e-06
1137,-1.1788e-05,-2.96322e-06,3.62843e-05,6.52562e-05,-1.21362e-05,1.13148e-05
1138,1.71501e-05,-8.60649e-07,4.15702e-05,6.14864e-05,-1.11819e-05,1.62596e-05
1139,1.84076e-05,5.12428e-07,4.22589e-05,5.36973e-05,-1.55704e-05,1.93149e-05
1140,1.34305e-05,1.65138e-06,4.48941e-05,5.22436e-05,-1.77982e-05,2.33108e-05
1141,1.38072e-05,5.11802e-06,4.41455e-05,5.20383e-05,-1.37422e-05,2.48172e-05
1142,1.83197e-05,8.7044e-06,4.04609e-05,4.71083e-05,-1.12123e-05,2.22445e-05
1143,7.85477e-06,1.23648e-05,3.40236e-05,4.45904e-05,-1.21091e-05,1.22658e-05
1144,-1.44336e-05,1.38658e-05,2.97686e-05,4.78065e-05,-1.30183e-05,2.89193e-06
1145,-2.05907e-05,1.41392e-05,3.73709e-05,5.10127e-05,-1.1696e-05,4.35119e-06
1146,-8.36881e-07,1.21442e-05,4.98657e-05,5.39656e-05,-8.33782e-06,1.43269e-05
1147,1.78251e-05,9.63845e-06,5.27258e-05,5.70683e-05,-1.04987e-05,2.05064e-05
1148,2.0898e-05,8.37077e-06,4.63883e-05,5.72189e-05,-1.50461e-05,1.78119e-05
1149,4.49151e-06,7.77099e-06,3.34302e-05,5.41504e-05,-1.46269e-05,1.35666e-05
1150,-1.76837e-05,7.05904e-06,1.99059e-05,5.26425e-05,-1.07602e-05,1.19023e-05
1151,-2.14218e-05,7.71483e-06,2.11928e-05,5.41874e-05,-5.45954e-06,1.27622e-05
1152,-2.44139e-06,9.86298e-06,3.38678e-05,5.40821e-05,4.41276e-07,1.56394e-05
1153,1.83423e-05,1.44148e-05,3.94863e-05,5.03175e-05,3.58411e-06,1.88743e-05
1154,2.38508e-05,2.08322e-05,3.59501e-05,4.53055e-05,1.42047e-06,1.95561e-05
1155,9.99344e-06,2.29196e-05,3.22457e-05,4.26118e-05,-1.78083e-06,1.76843e-05
1156,-1.6148e-05,1.96088e-05,2.9242e-05,4.5265e-05,-4.31172e-06,1.27748e-05
1157,-2.26731e-05,1.4667e-05,2.93611e-05,5.13459e-05,-6.20037e-06,9.55722e-06
1158,-2.7243e-06,1.23791e-05,3.66428e-05,5.46739e-05,-8.37832e-06,1.19581e-05
1159,1.45015e-05,1.30277e-05,4.36587e-05,5.68177e-05,-1.02126e-05,1.52543e-05
1160,1.4864e-05,1.40084e-05,4.59096e-05,5.50915e-05,-7.56289e-06,1.74941e-05
1161,3.16484e-06,1.51323e-05,4.17503e-05,4.72767e-05,-1.72748e-06,1.79754e-05
1162,-2.76449e-05,1.7733e-05,2.75754e-05,4.04622e-05,-4.21061e-07,1.46124e-05
1163,-4.50663e-05,1.90532e-05,1.95737e-05,3.67972e-05,-4.90559e-06,1.6783e-05
1164,-2.65684e-05,1.60685e-05,3.11427e-05,3.87168e-05,-6.29162e-06,2.56721e-05
1165,-8.02828e-06,1.44019e-05,3.9453e-05,4.24635e-05,-2.81568e-06,2.49569e-05
1166,-4.90523e-06,1.87927e-05,3.72598e-05,4.49888e-05,-1.86293e-06,1.93338e-05
1167,-5.65245e-06,1.9408e-05,3.53959e-05,5.02576e-05,-3.43502e-06,2.01028e-05
1168,-5.77949e-06,1.6271e-05,3.2288e-05,5.25805e-05,-2.98399e-06,2.08009e-05
1169,-2.07844e-06,1.69466e-05,3.35811e-05,4.65718e-05,-4.90395e-06,1.75621e-05
1170,-1.20276e-05,1.93761e-05,3.12749e-05,3.81653e-05,-8.78737e-06,9.5806e-06
1171,-3.22543e-05,1.90822e-05,2.47158e-05,3.6935e-05,-8.84424e-06,1.64075e-06
1172,-3.02867e-05,1.82117e-05,2.51125e-05,4.05347e-05,-3.95688e-06,1.41355e-06
1173,-7.64231e-06,1.75682e-05,3.25047e-05,4.34914e-05,1.86013e-07,1.05272e-05
1174,5.51018e-06,1.80024e-05,3.92433e-05,4.3419e-05,-2.18477e-06,1.69045e-05
1175,9.7153e-07,2.33704e-05,4.05355e-05,4.09059e-05,-8.70419e-06,1.77767e-05
1176,-1.68444e-05,2.98195e-05,3.52639e-05,3.89816e-05,-1.55344e-05,1.42956e-05
1177,-3.37762e-05,2.75136e-05,2.63143e-05,4.02179e-05,-1.93582e-05,9.28591e-06
1178,-3.18762e-05,2.12553e-05,2.52728e-05,4.43202e-05,-2.17042e-05,6.89701e-06
1179,-1.29203e-05,1.99132e-05,3.50184e-05,4.84876e-05,-2.25807e-05,7.54966e-06
1180,2.07484e-06,2.14181e-05,4.65995e-05,5.04203e-05,-2.30586e-05,1.07708e-05
1181,1.62074e-06,2.1761e-05,5.01518e-05,4.98471e-05,-2.44293e-05,1.18593e-05
1182,-1.28652e-05,1.90443e-05,4.31255e-05,5.09669e-05,-2.6926e-05,9.71848e-06
1183,-3.51739e-05,1.33994e-05,3.06258e-05,5.66253e-05,-2.61825e-05,5.61002e-06
1184,-4.14995e-05,9.50478e-06,2.88044e-05,6.35171e-05,-1.7066e-05,2.02287e-06
1185,-2.35987e-05,1.25887e-05,4.09531e-05,6.72726e-05,-7.58396e-06,3.42338e-06
1186,-4.64519e-06,1.81335e-05,5.06e-05,6.6613e-05,-8.48114e-06,1.19222e-05
1187,9.80494e-08,2.22485e-05,5.14665e-05,6.06716e-05,-1.21665e-05,2.23368e-05
1188,-9.89633e-06,2.36723e-05,4.88711e-05,5.38476e-05,-1.02317e-05,2.79232e-05
1189,-3.6642e-05,1.73794e-05,3.98506e-05,5.3381e-05,-9.51266e-06,1.64313e-05
1190,-4.64593e-05,5.85748e-06,3.42561e-05,5.83093e-05,-8.07106e-06,1.1499e-06
1191,-1.76223e-05,2.75401e-06,4.02831e-05,6.21903e-05,-6.88194e-06,9.32762e-07
1192,5.30481e-06,6.82243e-06,4.22789e-05,5.85088e-05,-1.10196e-05,6.66679e-06
1193,3.88554e-06,6.86779e-06,4.16458e-05,5.46106e-05,-1.68814e-05,7.6515e-06
1194,2.7011e-06,5.03838e-06,4.04601e-05,5.35148e-05,-1.90567e-05,7.20766e-06
1195,1.26048e-06,1.00283e-05,3.36244e-05,4.79265e-05,-1.56534e-05,9.66604e-06
1196,-3.9443e-07,1.79367e-05,3.04786e-05,4.1441e-05,-9.04975e-06,1.31423e-05
1197,-1.06117e-05,1.92597e-05,2.79056e-05,3.73625e-05,-1.94545e-06,1.23862e-05
1198,-2.73481e-05,1.29099e-05,2.32554e-05,4.02485e-05,3.38518e-07,7.65963e-06
1199,-2.54206e-05,8.11253e-06,2.68689e-05,4.5888e-05,-4.80915e-06,5.56142e-06
1200,-5.4808e-06,6.53254e-06,3.59857e-05,5.05212e-05,-7.07912e-06,7.56948e-06
1201,9.25688e-06,6.15396e-06,4.06763e-05,5.06251e-05,-3.71717e-06,6.34086e-06
1202,1.02313e-05,6.6186e-06,4.19353e-05,4.48738e-05,-1.73028e-06,3.49867e-06
1203,-1.68941e-06,6.17661e-06,3.95134e-05,3.90892e-05,-2.60176e-06,1.59766e-06
1204,-1.49874e-05,5.47191e-06,3.26608e-05,4.12231e-05,-3.70605e-06,-9.82639e-07
1205,-1.06644e-05,5.67784e-06,3.264e-05,5.02223e-05,-3.67352e-06,-7.3243e-07
1206,8.58173e-06,7.85257e-06,4.18765e-05,5.68442e-05,-4.46338e-06,5.92638e-06
1207,2.00394e-05,9.85255e-06,4.79616e-05,5.83472e-05,-7.13415e-06,1.237e-05
1208,1.60942e-05,1.00376e-05,4.51233e-05,5.61178e-05,-1.03539e-05,1.16494e-05
1209,9.45215e-07,8.99065e-06,3.67025e-05,5.24967e-05,-1.09593e-05,8.66221e-06
1210,-2.03587e-05,8.57364e-06,2.56127e-05,4.92362e-05,-9.14188e-06,7.89e-06
1211,-2.57896e-05,8.46421e-06,2.48812e-05,4.93777e-05,-6.60484e-06,1.29831e-05
1212,-5.35814e-06,1.00085e-05,3.82391e-05,5.15998e-05,-5.30713e-06,2.25597e-05
1213,1.643e-05,1.215e-05,4.89241e-05,5.18871e-05,-8.70998e-06,2.34217e-05
1214,2.09667e-05,1.34249e-05,4.87558e-05,4.59932e-05,-1.177e-05,1.22394e-05
1215,1.33676e-05,1.54183e-05,4.21172e-05,3.75841e-05,-1.08382e-05,4.98276e-06
1216,-1.22083e-05,1.23843e-05,3.20232e-05,3.36107e-05,-6.19653e-06,7.30708e-06
1217,-2.95767e-05,5.39969e-06,2.75728e-05,3.85049e-05,-1.6562e-06,1.48213e-05
1218,-1.06083e-05,4.22957e-06,3.89145e-05,4.66725e-05,-8.79983e-07,2.2406e-05
1219,5.40506e-06,5.03741e-06,4.68266e-05,4.80677e-05,-2.42957e-06,2.47994e-05
1220,3.20092e-06,3.68439e-06,4.30828e-05,4.96825e-05,-6.54462e-06,2.52498e-05
1221,6.72546e-08,4.48721e-06,4.20812e-05,5.53083e-05,-7.1472e-06,2.72363e-05
1222,-2.38386e-06,8.67153e-06,4.31652e-05,5.41227e-05,-5.49963e-06,2.50725e-05
1223,-1.64908e-06,1.17422e-05,4.14568e-05,4.66805e-05,-6.36245e-06,1.84267e-05
1224,-1.10816e-05,1.42195e-05,3.53267e-05,3.91349e-05,-1.07547e-05,1.12979e-05
1225,-2.86715e-05,1.52334e-05,3.05723e-05,3.97597e-05,-1.70046e-05,6.66066e-06
1226,-2.51615e-05,1.21944e-05,3.25566e-05,4.43322e-05,-1.94342e-05,2.24246e-06
1227,-2.17242e-08,8.82131e-06,3.78062e-05,4.51755e-05,-1.67099e-05,4.1005e-06
1228,1.72472e-05,7.72095e-06,3.81029e-05,4.43013e-05,-1.40407e-05,1.00796e-05
1229,1.73228e-05,9.08062e-06,3.69116e-05,4.36105e-05,-1.24133e-05,1.28823e-05
1230,-1.1826e-07,9.46364e-06,3.49209e-05,4.5233e-05,-8.90436e-06,1.07387e-05
1231,-2.27612e-05,6.03722e-06,2.84105e-05,4.90421e-05,-2.52198e-06,8.06145e-06
1232,-2.70989e-05,3.09959e-06,2.58109e-05,5.14852e-05,2.9707e-06,1.12208e-05
1233,-9.09627e-06,5.76281e-06,3.4361e-05,5.22934e-05,4.9611e-06,1.97303e-05
1234,7.859e-06,1.22589e-05,4.64734e-05,5.32429e-05,3.93504e-06,2.73084e-05
1235,8.37326e-06,1.57019e-05,5.08655e-05,5.16833e-05,5.07546e-07,2.75385e-05
1236,-4.61684e-06,1.18548e-05,4.34795e-05,4.85395e-05,-2.45652e-06,2.13993e-05
1237,-2.48435e-05,3.36031e-06,3.04197e-05,4.73239e-05,-4.00816e-06,1.21049e-05
1238,-3.12515e-05,-2.71117e-06,2.75176e-05,4.72283e-05,-5.75572e-06,8.71623e-06
1239,-1.11011e-05,-3.76826e-06,3.64533e-05,4.58247e-05,-6.87794e-06,1.40361e-05
1240,9.57166e-06,-3.71563e-06,4.3078e-05,4.71658e-05,-5.17186e-06,2.24663e-05
1241,9.60993e-06,-1.8919e-06,4.15893e-05,4.76376e-05,-2.75938e-06,2.54736e-05
1242,-3.60066e-06,2.78533e-06,3.58341e-05,4.45434e-05,-4.79094e-06,2.48119e-05
1243,-2.81358e-05,5.36567e-06,2.85838e-05,4.62382e-05,-8.884e-06,2.13882e-05
1244,-3.75071e-05,4.73319e-06,3.04202e-05,5.3153e-05,-6.71304e-06,1.73025e-05
1245,-1.19539e-05,6.09501e-06,4.09249e-05,5.74981e-05,-3.28583e-06,1.98397e-05
1246,4.91178e-06,8.77964e-06,4.21572e-05,5.73476e-05,-6.66714e-06,2.26166e-05
1247,4.13961e-06,8.9093e-06,3.74482e-05,5.92282e-05,-1.23052e-05,2.35976e-05
1248,8.25856e-06,5.07751e-06,3.71894e-05,6.40801e-05,-1.14579e-05,2.55131e-05
1249,1.27039e-05,4.44156e-06,3.74885e-05,6.31292e-05,-8.52877e-06,2.55952e-05
1250,1.70819e-05,1.27685e-05,3.92877e-05,5.55222e-05,-8.97619e-06,2.41511e-05
1251,5.04091e-06,1.97436e-05,3.627e-05,5.15827e-05,-1.08526e-05,2.00021e-05
1252,-1.63058e-05,1.74951e-05,3.24059e-05,5.43469e-05,-1.26502e-05,1.68993e-05
1253,-1.81568e-05,8.84808e-06,3.66641e-05,5.58965e-05,-1.47536e-05,1.70678e-05
1254,1.97935e-07,1.28679e-06,4.31731e-05,5.61043e-05,-1.50087e-05,1.84852e-05
1255,1.20117e-05,8.31055e-07,4.2962e-05,5.56516e-05,-1.12355e-05,1.67374e-05
1256,1.16035e-05,7.75913e-06,3.634e-05,5.44284e-05,-5.72984e-06,1.29506e-05
1257,-3.13434e-06,1.51622e-05,2.54846e-05,5.42638e-05,-9.79692e-06,8.81361e-06
1258,-2.3799e-05,1.69287e-05,1.44956e-05,5.94099e-05,-2.02921e-05,7.52043e-06
1259,-2.72903e-05,1.73239e-05,1.39989e-05,6.50933e-05,-2.37828e-05,1.09244e-05
1260,-1.06181e-05,1.98895e-05,2.52511e-05,6.62613e-05,-1.77057e-05,1.5536e-05
1261,5.89667e-06,2.43697e-05,3.65781e-05,6.49648e-05,-9.73021e-06,1.62961e-05
1262,7.99445e-06,2.9462e-05,3.98599e-05,6.22052e-05,-6.23383e-06,1.60152e-05
1263,-2.32836e-06,3.08791e-05,3.62183e-05,5.97171e-05,-7.6025e-06,1.85927e-05
1264,-2.01523e-05,2.46826e-05,2.49077e-05,6.15465e-05,-1.29211e-05,1.87121e-05
1265,-2.34928e-05,1.6661e-05,1.93649e-05,6.40876e-05,-1.6344e-05,1.45852e-05
1266,-4.95312e-06,9.94716e-06,2.88838e-05,6.12466e-05,-1.66292e-05,1.21412e-05
1267,1.42812e-05,5.3143e-06,3.82184e-05,5.53429e-05,-1.44241e-05,1.41064e-05
1268,1.94187e-05,6.98024e-06,3.70375e-05,4.91434e-05,-8.5536e-06,1.28775e-05
1269,9.42736e-06,1.41318e-05,2.89908e-05,4.64278e-05,-2.02357e-06,9.40744e-06
1270,-2.02201e-05,1.77299e-05,1.85611e-05,4.75294e-05,-2.38368e-06,4.32295e-06
1271,-3.57088e-05,1.65825e-05,1.66602e-05,5.17684e-05,-6.31105e-06,3.85469e-06
1272,-1.09432e-05,1.7238e-05,2.544e-05,5.41866e-05,-6.43734e-06,9.58639e-06
1273,1.00248e-05,1.64828e-05,3.1118e-05,4.93356e-05,-5.99068e-06,1.17745e-05
1274,7.23398e-06,1.48707e-05,3.60485e-05,4.51141e-05,-1.03524e-05,1.05859e-05
1275,5.64804e-06,1.35014e-05,4.36227e-05,4.99922e-05,-1.27972e-05,9.12112e-06
1276,9.61559e-06,1.39605e-05,4.32015e-05,5.57932e-05,-1.11517e-05,9.56357e-06
1277,1.45236e-05,1.68917e-05,3.73798e-05,5.31039e-05,-1.0674e-05,1.28264e-05
1278,2.74447e-06,2.14421e-05,2.72198e-05,4.31629e-05,-1.1722e-05,1.27235e-05
1279,-2.07568e-05,2.0391e-05,1.99611e-05,4.17382e-05,-1.03702e-05,6.69051e-06
1280,-2.45892e-05,1.57261e-05,2.65719e-05,4.87897e-05,-1.07215e-05,4.22893e-06
1281,-6.26813e-06,1.24962e-05,4.01915e-05,5.55253e-05,-1.20715e-05,1.02357e-05
1282,4.13972e-06,1.25305e-05,4.58297e-05,5.48722e-05,-9.14309e-06,1.62412e-05
1283,2.17515e-08,1.9327e-05,4.25354e-05,4.82489e-05,-3.3312e-06,1.90093e-05
1284,-1.7696e-05,2.45159e-05,3.4804e-05,4.12282e-05,-1.91085e-06,1.6752e-05
1285,-3.8109e-05,2.31739e-05,2.96562e-05,4.0846e-05,-7.24535e-06,1.0585e-05
1286,-3.98027e-05,1.88557e-05,3.63935e-05,4.98096e-05,-1.27998e-05,7.84845e-06
1287,-2.02488e-05,1.49387e-05,4.67771e-05,5.84186e-05,-1.64369e-05,1.27455e-05
1288,-3.70072e-07,1.15832e-05,4.80197e-05,5.90189e-05,-1.89213e-05,1.87413e-05
1289,3.56899e-06,1.20265e-05,4.21401e-05,5.21382e-05,-1.615e-05,1.88879e-05
1290,-6.64601e-06,1.56081e-05,3.80425e-05,4.58563e-05,-7.40186e-06,1.37447e-05
1291,-2.4695e-05,1.60512e-05,3.58279e-05,4.56509e-05,-2.41453e-06,7.14223e-06
1292,-2.85855e-05,1.13536e-05,3.93421e-05,5.24445e-05,-4.72605e-06,3.10511e-06
1293,-1.08228e-05,6.72878e-06,4.90861e-05,5.76767e-05,-9.4455e-06,4.60573e-06
1294,7.28457e-06,7.77279e-06,5.32816e-05,5.6946e-05,-9.96276e-06,8.13042e-06
1295,9.10637e-06,1.75431e-05,4.76126e-05,5.08111e-05,-1.0269e-05,9.83495e-06
1296,-4.3555e-07,2.92102e-05,3.84688e-05,4.54597e-05,-1.30698e-05,8.49248e-06
1297,-2.1682e-05,2.92618e-05,2.64009e-05,4.33493e-05,-1.50402e-05,4.39148e-06
1298,-2.62523e-05,1.93415e-05,2.09364e-05,4.32967e-05,-1.57454e-05,2.85378e-06
1299,2.3425e-06,1.39017e-05,2.9582e-05,4.55712e-05,-1.63662e-05,6.52565e-06
1300,1.87751e-05,1.75371e-05,3.50992e-05,4.57593e-05,-1.35116e-05,1.21143e-05
1301,1.23215e-05,2.03008e-05,3.74288e-05,4.62941e-05,-7.86911e-06,1.55672e-05
1302,1.03332e-05,1.61018e-05,4.50331e-05,5.32114e-05,-6.85812e-06,1.431e-05
1303,8.54653e-06,1.43979e-05,4.98341e-05,5.79231e-05,-1.34814e-05,1.22557e-05
1304,5.23815e-06,1.75897e-05,5.12407e-05,5.62347e-05,-1.86016e-05,1.29862e-05
1305,-7.63749e-06,1.9823e-05,4.49217e-05,5.06185e-05,-1.56123e-05,7.20564e-06
1306,-2.42313e-05,1.69574e-05,3.61316e-05,4.47646e-05,-1.12639e-05,7.22344e-07
1307,-2.28487e-05,1.27065e-05,3.43992e-05,4.19152e-05,-8.86129e-06,2.7462e-06
1308,-6.84841e-06,1.16788e-05,3.87517e-05,4.35851e-05,-9.17153e-06,1.11482e-05
1309,1.8818e-06,1.09898e-05,4.13622e-05,4.7163e-05,-8.69705e-06,1.66325e-05
1310,-1.22802e-06,1.00987e-05,3.96756e-05,4.76646e-05,-5.30655e-06,1.93837e-05
1311,-1.52288e-05,8.92342e-06,3.50648e-05,4.55279e-05,-3.7015e-06,1.59903e-05
1312,-3.11099e-05,7.51439e-06,3.05969e-05,4.78882e-05,-7.70475e-06,8.41641e-06
1313,-2.80314e-05,6.8375e-06,3.48842e-05,5.42477e-05,-1.26697e-05,7.19817e-06
1314,-7.54642e-06,6.31534e-06,4.67097e-05,5.73561e-05,-1.29864e-05,1.52415e-05
1315,8.45211e-06,4.96815e-06,5.75562e-05,5.6598e-05,-1.14851e-05,2.44102e-05
1316,9.91872e-06,5.53329e-06,5.96849e-05,5.4533e-05,-9.37522e-06,2.90947e-05
1317,-1.05625e-06,6.20146e-06,5.06293e-05,5.25252e-05,-6.54705e-06,3.03333e-05
1318,-2.23083e-05,3.53837e-06,3.44775e-05,5.1801e-05,-7.13919e-06,2.67321e-05
1319,-2.89582e-05,2.30693e-06,2.90173e-05,5.44709e-05,-1.12692e-05,2.37521e-05
1320,-8.38028e-06,5.16815e-06,4.01629e-05,5.86275e-05,-1.26958e-05,2.56561e-05
1321,1.34539e-05,6.82283e-06,5.21551e-05,5.97369e-05,-1.10037e-05,2.81028e-05
1322,1.30127e-05,8.3001e-06,5.2126e-05,5.43514e-05,-9.57381e-06,2.32104e-05
1323,-2.42846e-06,1.24305e-05,4.29692e-05,4.6708e-05,-1.01719e-05,1.80115e-05
1324,-2.87535e-05,1.20956e-05,3.12934e-05,4.54313e-05,-9.32296e-06,1.87402e-05
1325,-3.90066e-05,4.42277e-06,2.97899e-05,5.35206e-05,-4.87234e-06,2.06785e-05
1326,-1.42329e-05,-2.48888e-06,4.11229e-05,6.09471e-05,-3.43957e-06,1.91494e-05
1327,4.96917e-06,-3.81405e-07,4.67144e-05,6.17603e-05,-1.07417e-05,1.8589e-05
1328,6.04404e-06,6.89077e-06,4.22061e-05,6.24747e-05,-1.96543e-05,1.83936e-05
1329,6.59658e-06,9.85936e-06,3.91999e-05,6.47596e-05,-1.95372e-05,1.72556e-05
1330,1.10309e-05,1.12457e-05,3.87722e-05,6.26899e-05,-1.11629e-05,1.539e-05
1331,1.63097e-05,1.07176e-05,3.80564e-05,5.64674e-05,-2.9406e-06,2.11342e-05
1332,6.98356e-06,6.78938e-06,3.39903e-05,5.22655e-05,-2.30722e-07,2.79635e-05
1333,-1.19166e-05,-4.39976e-07,2.8153e-05,5.5451e-05,-1.94356e-06,2.39469e-05
1334,-1.33733e-05,-5.1777e-06,2.97842e-05,5.9113e-05,-2.32963e-06,1.93352e-05
1335,5.91475e-06,-3.83502e-06,3.50828e-05,6.08539e-05,-2.28398e-06,2.30986e-05
1336,1.75077e-05,1.57073e-06,3.68971e-05,6.09072e-05,-7.29755e-06,3.06128e-05
1337,1.41054e-05,1.10586e-05,3.48856e-05,5.6536e-05,-1.10724e-05,3.25173e-05
1338,-1.59541e-06,1.75022e-05,2.75564e-05,4.77789e-05,-9.49889e-06,2.45934e-05
1339,-1.94271e-05,1.67124e-05,1.75234e-05,4.32767e-05,-6.23624e-06,1.3636e-05
1340,-1.95909e-05,1.39058e-05,1.72468e-05,4.86298e-05,-4.86578e-06,1.09797e-05
1341,9.39497e-07,1.33939e-05,3.00098e-05,5.66055e-05,-7.03666e-06,1.52664e-05
1342,1.76056e-05,1.42757e-05,4.47965e-05,5.74116e-05,-1.11635e-05,1.89843e-05
1343,1.60781e-05,1.60602e-05,5.20298e-05,5.09023e-05,-1.21408e-05,1.87057e-05
1344,3.76975e-06,1.68672e-05,4.97492e-05,4.49833e-05,-9.36582e-06,1.63246e-05
1345,-1.37438e-05,1.51347e-05,4.10711e-05,4.43754e-05,-7.81397e-06,1.26036e-05
1346,-2.14376e-05,1.19942e-05,3.72428e-05,4.69527e-05,-1.06575e-05,9.264e-06
1347,-9.49557e-06,1.00358e-05,4.26409e-05,4.55049e-05,-1.48505e-05,1.02421e-05
1348,8.54716e-06,8.57357e-06,4.74551e-05,4.26388e-05,-1.50658e-05,1.45756e-05
1349,1.37493e-05,6.42529e-06,4.54205e-05,4.11863e-05,-1.40974e-05,1.77152e-05
1350,1.26413e-06,6.30119e-06,3.81617e-05,4.1081e-05,-1.60913e-05,1.75183e-05
1351,-2.92971e-05,8.61794e-06,2.86718e-05,4.39866e-05,-1.57714e-05,1.50396e-05
1352,-4.63437e-05,7.87746e-06,2.54433e-05,4.79423e-05,-1.11667e-05,1.73391e-05
1353,-2.62721e-05,4.47443e-06,3.30149e-05,4.85847e-05,-1.07215e-05,2.29687e-05
1354,-4.94725e-06,5.61344e-06,3.78458e-05,4.60127e-05,-1.41053e-05,2.36009e-05
1355,5.3405e-06,9.78878e-06,3.6234e-05,4.22754e-05,-1.19283e-05,1.91412e-05
1356,1.15243e-05,1.27808e-05,3.58253e-05,4.60097e-05,-8.3737e-06,1.22319e-05
1357,9.42031e-06,1.65394e-05,4.01054e-05,5.14326e-05,-6.95067e-06,9.37777e-06
1358,4.82756e-06,1.7095e-05,4.4551e-05,4.9808e-05,-6.16826e-06,1.33733e-05
1359,-9.14804e-06,1.27049e-05,4.17109e-05,4.55707e-05,-8.97866e-06,1.28927e-05
1360,-2.47754e-05,6.05176e-06,3.29726e-05,4.71996e-05,-1.16157e-05,5.82698e-06
1361,-2.07665e-05,3.02533e-06,2.91193e-05,5.18955e-05,-1.2055e-05,5.24098e-06
1362,1.7435e-06,4.98212e-06,3.41724e-05,5.32769e-05,-1.18847e-05,1.27219e-05
1363,1.44476e-05,8.95713e-06,3.86706e-05,4.96998e-05,-1.05276e-05,1.61535e-05
1364,1.35031e-05,1.30581e-05,3.93026e-05,4.04271e-05,-6.28949e-06,1.62036e-05
1365,-1.38627e-06,1.54903e-05,3.54177e-05,3.50198e-05,-3.72975e-06,1.39632e-05
1366,-2.12701e-05,1.17066e-05,3.07664e-05,4.09027e-05,-4.57892e-06,1.15763e-05
1367,-2.17924e-05,5.703e-06,3.115e-05,5.20785e-05,-6.48768e-06,1.07196e-05
1368,7.70202e-07,3.61995e-06,3.40305e-05,5.74983e-05,-9.59279e-06,9.50039e-06
1369,1.80602e-05,5.39677e-06,3.40616e-05,5.6398e-05,-1.32754e-05,6.10886e-06
1370,1.41673e-05,8.95249e-06,3.32231e-05,5.20558e-05,-1.28095e-05,3.86863e-06
1371,-2.77684e-06,1.04712e-05,3.3199e-05,4.98146e-05,-6.51278e-06,4.02728e-06
1372,-2.55953e-05,5.9649e-06,3.10606e-05,5.16515e-05,3.71441e-07,2.12227e-06
1373,-3.26224e-05,-2.79157e-06,3.03393e-05,5.5343e-05,3.83671e-06,6.40893e-07
1374,-1.66426e-05,-6.22295e-06,3.59261e-05,5.81175e-05,6.668e-07,5.79917e-06
1375,-1.18946e-06,-1.39908e-06,4.14505e-05,6.04343e-05,-6.13157e-06,1.65487e-05
1376,8.57245e-07,8.03675e-06,3.92515e-05,5.68416e-05,-1.06331e-05,1.86959e-05
1377,-4.24767e-06,1.41096e-05,3.14742e-05,4.79757e-05,-9.8752e-06,9.70797e-06
1378,-2.2311e-05,1.24728e-05,2.10968e-05,4.78219e-05,-7.71494e-06,-6.93693e-07
1379,-3.22721e-05,4.39246e-06,1.91574e-05,5.64708e-05,-7.74134e-06,-1.45499e-06
1380,-9.39671e-06,9.35076e-07,3.3386e-05,6.06296e-05,-8.27833e-06,9.56068e-06
1381,1.01851e-05,7.92288e-06,4.04486e-05,5.44897e-05,-9.56378e-06,1.49381e-05
1382,7.70138e-06,1.52144e-05,3.71972e-05,4.85815e-05,-6.93607e-06,9.12567e-06
1383,4.92365e-06,1.59601e-05,3.955e-05,4.67266e-05,-2.32555e-06,7.27392e-06
1384,3.17089e-06,1.49785e-05,4.33503e-05,4.64401e-05,-2.15581e-06,1.18687e-05
1385,5.0346e-06,1.56402e-05,4.49759e-05,4.47206e-05,-5.87397e-06,2.05149e-05
1386,-3.56488e-06,1.93695e-05,3.73307e-05,4.15602e-05,-1.18611e-05,2.4112e-05
1387,-1.87952e-05,1.96513e-05,2.84541e-05,4.33779e-05,-1.47164e-05,1.45478e-05
1388,-1.83655e-05,1.58406e-05,3.26408e-05,4.95251e-05,-1.06702e-05,-9.94978e-08
1389,-2.94533e-06,1.25411e-05,4.33508e-05,5.44188e-05,-2.76418e-06,-4.38288e-07
1390,7.19041e-06,1.42678e-05,4.61598e-05,5.58048e-05,-1.46366e-06,1.36072e-05
1391,9.39055e-06,2.09031e-05,4.3627e-05,5.51506e-05,-4.64402e-06,2.70926e-05
1392,4.30718e-07,2.48052e-05,3.88355e-05,5.40923e-05,-4.66467e-06,2.75579e-05
1393,-1.70291e-05,2.01249e-05,3.18736e-05,5.80228e-05,-2.88833e-06,1.96475e-05
1394,-2.11629e-05,1.19443e-05,3.05514e-05,6.38608e-05,-1.10744e-06,1.55515e-05
1395,-8.53013e-06,6.94571e-06,3.98402e-05,6.66342e-05,-3.17036e-06,1.66524e-05
1396,1.22835e-06,4.83212e-06,5.00882e-05,6.54613e-05,-1.01927e-05,1.75777e-05
1397,-1.54512e-06,8.82156e-06,4.99513e-05,6.3122e-05,-1.59342e-05,1.38341e-05
1398,-1.24594e-05,1.79473e-05,4.14761e-05,6.14742e-05,-1.64245e-05,7.76057e-06
1399,-3.16483e-05,2.11263e-05,3.22475e-05,5.92908e-05,-1.43295e-05,2.80471e-06
1400,-3.80816e-05,1.62805e-05,3.38871e-05,5.78029e-05,-1.01743e-05,4.43299e-06
1401,-2.07626e-05,1.45653e-05,4.51129e-05,5.84906e-05,-6.83456e-06,9.01745e-06
1402,-2.5535e-06,1.5577e-05,5.08331e-05,5.78196e-05,-7.12392e-06,1.07382e-05
1403,-5.70772e-07,1.84051e-05,4.40396e-05,5.30234e-05,-9.55287e-06,1.02813e-05
1404,-8.55563e-06,1.98358e-05,3.37647e-05,4.78677e-05,-1.03325e-05,1.18698e-05
1405,-2.978e-05,1.40155e-05,2.56889e-05,4.54862e-05,-8.27007e-06,1.1625e-05
1406,-3.922e-05,5.0104e-06,2.70083e-05,4.76742e-05,-4.51756e-06,7.55624e-06
1407,-1.61691e-05,3.93556e-06,3.64679e-05,5.16434e-05,8.73752e-09,7.80726e-06
1408,-2.63358e-06,1.4539e-05,3.78174e-05,5.17683e-05,-1.35138e-06,1.24145e-05
1409,-5.4308e-06,2.74208e-05,3.67869e-05,5.07872e-05,-7.70158e-06,1.41407e-05
1410,-1.52096e-06,3.13663e-05,4.11881e-05,5.10048e-05,-1.15288e-05,1.60411e-05
1411,5.21731e-06,3.04453e-05,4.51752e-05,4.9024e-05,-1.09292e-05,1.96846e-05
1412,9.3376e-06,2.99985e-05,4.72809e-05,4.52384e-05,-1.09201e-05,2.24433e-05
1413,-5.07244e-06,2.94013e-05,4.05738e-05,4.08717e-05,-1.25151e-05,1.92336e-05
1414,-2.89261e-05,2.62644e-05,3.07215e-05,4.33843e-05,-1.03426e-05,1.13214e-05
1415,-3.22166e-05,1.87114e-05,3.16736e-05,4.97119e-05,-5.98302e-06,8.05835e-06
1416,-1.17879e-05,1.32597e-05,3.9992e-05,5.299e-05,-3.3709e-06,1.2745e-05
1417,4.70935e-06,1.12727e-05,4.25287e-05,5.0489e-05,-2.37339e-06,1.72453e-05
1418,7.05809e-06,1.23438e-05,3.93962e-05,4.45734e-05,-1.10932e-06,1.524e-05
1419,-5.59559e-06,1.57845e-05,3.44658e-05,4.13505e-05,-8.77039e-07,7.51399e-06
1420,-2.13699e-05,1.45255e-05,2.9174e-05,4.30271e-05,-1.27198e-06,-7.83448e-08
1421,-1.80394e-05,1.0053e-05,2.9622e-05,4.54327e-05,-1.00199e-06,9.63079e-07
1422,3.77686e-06,7.99123e-06,3.59248e-05,4.60065e-05,-1.92718e-06,1.16465e-05
1423,2.11679e-05,9.06254e-06,4.03671e-05,4.7348e-05,-8.8662e-06,2.02403e-05
1424,2.17702e-05,1.25412e-05,4.03721e-05,4.75268e-05,-1.70334e-05,2.19338e-05
1425,8.61071e-06,1.72879e-05,3.4573e-05,4.48267e-05,-1.80585e-05,2.26688e-05
1426,-1.33459e-05,1.70776e-05,2.20548e-05,4.36979e-05,-1.5704e-05,2.04923e-05
1427,-2.07983e-05,1.26201e-05,1.69168e-05,4.76757e-05,-1.55376e-05,1.73221e-05
1428,-4.01537e-06,1.00378e-05,2.71818e-05,5.18035e-05,-1.80394e-05,1.64871e-05
1429,1.49043e-05,1.00495e-05,4.07226e-05,5.48298e-05,-2.22225e-05,1.68587e-05
1430,1.55209e-05,1.56712e-05,4.37584e-05,5.59379e-05,-2.12451e-05,1.90985e-05
1431,1.02467e-06,2.22079e-05,3.62602e-05,5.14894e-05,-1.37136e-05,2.08551e-05
1432,-2.54431e-05,2.31689e-05,2.52379e-05,4.83712e-05,-7.50779e-06,1.79835e-05
1433,-3.38286e-05,2.12979e-05,2.09667e-05,5.17304e-05,-6.74377e-06,1.09144e-05
1434,-8.81648e-06,1.70942e-05,2.81307e-05,5.62052e-05,-9.57231e-06,3.51488e-06
1435,5.8235e-06,1.48772e-05,3.65444e-05,5.92876e-05,-1.14708e-05,1.07449e-06
1436,4.49597e-06,1.69405e-05,3.90292e-05,6.14945e-05,-1.13564e-05,4.97718e-06
1437,7.55154e-06,1.50885e-05,4.15697e-05,6.26264e-05,-8.8924e-06,1.05304e-05
1438,8.74726e-06,1.01142e-05,4.49445e-05,5.9598e-05,-7.81695e-06,1.46208e-05
1439,8.50963e-06,9.63328e-06,4.27175e-05,5.3077e-05,-7.29605e-06,1.81187e-05
1440,-4.91899e-06,1.33757e-05,3.34581e-05,4.61044e-05,-6.53103e-06,1.52524e-05
1441,-2.46815e-05,1.35542e-05,2.38747e-05,4.61808e-05,-5.99279e-06,6.63566e-06
1442,-2.19965e-05,1.02564e-05,2.36995e-05,5.19052e-05,-2.26189e-06,2.0059e-06
1443,-3.28193e-07,6.76685e-06,3.33161e-05,5.66883e-05,2.0377e-06,7.50418e-06
1444,1.19762e-05,7.16805e-06,4.22343e-05,5.66535e-05,2.05288e-06,1.63396e-05
1445,9.5587e-06,1.14464e-05,4.44702e-05,5.14586e-05,-8.48701e-07,2.04447e-05
1446,-5.52811e-06,1.3159e-05,3.88937e-05,4.74005e-05,-4.72252e-06,2.00201e-05
1447,-2.40567e-05,9.40717e-06,3.02722e-05,5.02185e-05,-8.19378e-06,1.81109e-05
1448,-2.59565e-05,5.91066e-06,2.9231e-05,5.53903e-05,-8.87105e-06,1.86039e-05
1449,-8.20456e-06,5.30476e-06,3.69286e-05,5.56262e-05,-6.03745e-06,2.33975e-05
1450,8.91195e-06,6.81864e-06,4.24827e-05,5.21638e-05,-3.01507e-06,2.82051e-05
1451,1.07909e-05,9.7908e-06,4.01726e-05,4.7309e-05,-3.48858e-06,3.02406e-05
1452,-2.34555e-06,1.10895e-05,3.10232e-05,4.28141e-05,-4.30858e-06,2.97647e-05
1453,-2.47503e-05,9.68183e-06,1.99559e-05,4.25844e-05,-6.40071e-07,2.52747e-05
1454,-3.2874e-05,8.27976e-06,1.8729e-05,4.64343e-05,4.6372e-06,2.18784e-05
1455,-1.63359e-05,7.2826e-06,3.08351e-05,5.10548e-05,3.90269e-06,2.41559e-05
1456,5.601e-06,7.07317e-06,4.17987e-05,5.38097e-05,-5.09437e-06,2.6373e-05
1457,1.17259e-05,8.6631e-06,4.13906e-05,4.78561e-05,-1.39272e-05,2.20997e-05
1458,7.24656e-07,1.01359e-05,3.5121e-05,4.29977e-05,-1.15875e-05,1.53e-05
1459,-2.51081e-05,1.03815e-05,2.84909e-05,4.63893e-05,-4.017e-06,1.26133e-05
1460,-3.25496e-05,7.04813e-06,2.8659e-05,4.93023e-05,-4.13648e-06,1.84447e-05
1461,-1.48078e-06,3.93662e-06,4.09511e-05,4.68039e-05,-1.13747e-05,2.89907e-05
1462,1.49071e-05,5.43964e-06,4.65755e-05,4.35209e-05,-1.55692e-05,3.07486e-05
1463,6.8553e-06,1.11364e-05,4.24491e-05,4.69398e-05,-1.31451e-05,2.55506e-05
1464,3.57778e-06,1.31109e-05,4.27337e-05,5.37678e-05,-1.26068e-05,1.9695e-05
1465,-2.80899e-07,1.19755e-05,4.39712e-05,5.4534e-05,-1.48628e-05,1.54833e-05
1466,-2.63882e-06,1.10868e-05,4.34947e-05,4.73398e-05,-1.45321e-05,1.50533e-05
1467,-1.46871e-05,9.77147e-06,3.57277e-05,4.11621e-05,-1.53521e-05,1.50522e-05
1468,-3.5166e-05,8.15071e-06,2.49124e-05,4.46544e-05,-1.41583e-05,1.20473e-05
1469,-3.59062e-05,6.09443e-06,2.49683e-05,5.1191e-05,-1.07212e-05,6.5576e-06
1470,-1.54908e-05,5.20227e-06,3.77173e-05,5.25768e-05,-1.03789e-05,3.1311e-06
1471,5.16651e-07,6.44068e-06,4.75272e-05,4.91641e-05,-1.25243e-05,3.10245e-06
1472,-7.01495e-07,1.18004e-05,4.74845e-05,4.59316e-05,-1.41196e-05,8.43812e-06
1473,-1.68028e-05,1.858e-05,3.85062e-05,4.53937e-05,-1.3772e-05,9.6975e-06
1474,-3.35988e-05,2.0592e-05,2.76873e-05,4.87818e-05,-1.04924e-05,4.90816e-06
1475,-3.24212e-05,1.75469e-05,2.56598e-05,5.52029e-05,-5.48081e-06,1.44624e-06
1476,-1.34774e-05,1.54418e-05,3.37299e-05,5.65867e-05,-3.87036e-06,6.27439e-06
1477,2.00873e-06,1.64045e-05,4.22701e-05,5.28365e-05,-4.22211e-06,1.55652e-05
1478,4.56179e-06,1.81683e-05,4.49471e-05,4.86244e-05,-1.94795e-06,2.09094e-05
1479,-5.01206e-06,1.87934e-05,4.32952e-05,4.75113e-05,-3.98237e-07,1.95111e-05
1480,-2.336e-05,1.73112e-05,3.84872e-05,5.01241e-05,-4.18508e-06,1.39552e-05
1481,-2.91707e-05,1.43465e-05,3.68371e-05,5.40338e-05,-6.96231e-06,1.14748e-05
1482,-1.36927e-05,1.29509e-05,4.2757e-05,5.70854e-05,-7.09577e-06,1.47077e-05
1483,5.11853e-06,1.2201e-05,5.1357e-05,5.82219e-05,-9.62849e-06,1.80312e-05
1484,1.435e-05,1.03014e-05,5.29025e-05,5.64744e-05,-1.57517e-05,1.51777e-05
1485,9.57591e-06,8.4051e-06,4.49849e-05,5.14743e-05,-2.01938e-05,8.78903e-06
1486,-1.7738e-05,7.02796e-06,3.16652e-05,4.64346e-05,-1.86007e-05,1.37013e-07
1487,-3.27713e-05,5.55081e-06,2.9812e-05,4.44556e-05,-1.22327e-05,-9.03057e-07
1488,-7.27974e-06,5.80988e-06,4.07706e-05,4.53585e-05,-3.20771e-06,8.6015e-06
1489,1.0067e-05,8.1301e-06,4.38809e-05,4.34279e-05,-2.3087e-06,1.87026e-05
1490,2.54178e-06,1.00628e-05,3.90876e-05,4.21325e-05,-8.8186e-06,2.09869e-05
1491,-2.16367e-06,1.40273e-05,3.86093e-05,4.30433e-05,-1.31782e-05,1.83194e-05
1492,4.22197e-07,1.83143e-05,3.90971e-05,4.1105e-05,-1.43164e-05,1.41077e-05
1493,5.99726e-06,2.21562e-05,3.93104e-05,3.90073e-05,-1.55251e-05,9.91562e-06
1494,-4.48598e-06,2.28767e-05,3.77193e-05,3.78766e-05,-1.85103e-05,7.76277e-06
1495,-2.53346e-05,1.85074e-05,3.49179e-05,4.45697e-05,-1.98718e-05,6.94286e-06
1496,-2.43617e-05,1.57963e-05,3.66724e-05,5.34511e-05,-1.9806e-05,8.32871e-06
1497,-2.27671e-06,1.60116e-05,4.33064e-05,5.65576e-05,-1.91802e-05,8.509e-06
1498,1.2433e-05,1.526e-05,4.70616e-05,5.29836e-05,-1.83446e-05,7.11483e-06
1499,1.05652e-05,1.28165e-05,4.23996e-05,4.72504e-05,-1.4659e-05,7.07927e-06
1500,-4.41291e-06,1.13926e-05,3.02517e-05,4.55413e-05,-1.24905e-05,9.74332e-06
1501,-2.00689e-05,8.45746e-06,1.94403e-05,4.93142e-05,-1.34371e-05,1.471e-05
1502,-1.997e-05,4.92458e-06,2.23487e-05,5.44366e-05,-1.59465e-05,2.00468e-05
1503,-5.56688e-06,2.17697e-06,3.54108e-05,5.46898e-05,-1.66262e-05,2.23403e-05
1504,4.10966e-06,1.31542e-06,4.34637e-05,5.00406e-05,-1.30273e-05,1.91652e-05
1505,2.75204e-06,4.54704e-06,4.15773e-05,4.15059e-05,-9.92205e-06,1.33448e-05
1506,-6.19765e-06,1.01311e-05,3.43732e-05,3.63436e-05,-1.1997e-05,8.48413e-06
1507,-2.12049e-05,1.12254e-05,2.66333e-05,4.23533e-05,-1.73673e-05,8.37374e-06
1508,-2.30347e-05,6.80513e-06,2.72165e-05,5.41092e-05,-1.93583e-05,1.38674e-05
1509,-4.07387e-06,3.58551e-06,3.58912e-05,5.70043e-05,-1.65846e-05,1.99666e-05
1510,8.30367e-06,4.55309e-06,4.25786e-05,5.39672e-05,-1.23025e-05,1.81438e-05
1511,1.07481e-06,1.03773e-05,4.31529e-05,4.87486e-05,-1.04431e-05,1.22763e-05
1512,-1.0406e-05,1.68044e-05,3.96445e-05,4.29227e-05,-9.54507e-06,1.46151e-05
1513,-2.36336e-05,1.8093e-05,3.2638e-05,4.1832e-05,-7.99669e-06,1.72598e-05
1514,-2.5327e-05,1.16933e-05,3.19918e-05,4.60717e-05,-7.51311e-06,1.51367e-05
1515,-3.74985e-06,3.57178e-06,4.12168e-05,5.61146e-05,-9.30998e-06,1.39753e-05
1516,6.37985e-06,2.67557e-06,4.65875e-05,6.59254e-05,-1.18934e-05,1.06263e-05
1517,4.77537e-06,6.19476e-06,4.28346e-05,6.86189e-05,-1.16591e-05,6.91475e-06
1518,1.09977e-05,8.07125e-06,3.7378e-05,6.47807e-05,-8.70392e-06,6.26674e-06
1519,1.45209e-05,8.9315e-06,3.5795e-05,5.96377e-05,-6.05785e-06,8.87253e-06
1520,1.29339e-05,1.11296e-05,3.63173e-05,5.32422e-05,-6.1145e-06,1.19952e-05
1521,-3.58385e-06,1.22896e-05,3.19725e-05,4.84114e-05,-9.40633e-06,1.2781e-05
1522,-2.57413e-05,1.06499e-05,2.83523e-05,5.29006e-05,-1.0559e-05,1.04348e-05
1523,-2.63473e-05,7.14956e-06,3.57696e-05,5.67016e-05,-9.81937e-06,9.69995e-06
1524,-3.23722e-06,6.82508e-07,4.78751e-05,5.50667e-05,-6.8592e-06,1.00445e-05
1525,1.36825e-05,-2.51666e-06,5.14196e-05,4.8198e-05,-5.23183e-06,9.01752e-06
1526,1.24019e-05,3.19975e-06,4.56e-05,3.96734e-05,-4.34381e-06,1.17434e-05
1527,-5.39717e-06,1.4104e-05,3.48777e-05,3.82553e-05,-5.12105e-06,1.38276e-05
1528,-2.50668e-05,1.90731e-05,2.62059e-05,4.46081e-05,-7.27683e-06,1.17775e-05
1529,-2.34565e-05,1.51236e-05,2.97571e-05,5.11667e-05,-6.94384e-06,1.01775e-05
1530,-1.09026e-06,9.25785e-06,4.27446e-05,5.35626e-05,-3.32483e-06,1.52001e-05
1531,1.59254e-05,8.99366e-06,5.16938e-05,5.47315e-05,1.21862e-06,2.24514e-05
1532,1.54898e-05,1.3888e-05,5.17861e-05,5.30104e-05,2.65615e-06,2.46465e-05
1533,4.78224e-06,1.81047e-05,4.48081e-05,5.00696e-05,-5.69405e-07,2.00192e-05
1534,-1.06286e-05,1.79816e-05,3.33154e-05,5.16933e-05,-5.50174e-06,1.31752e-05
1535,-1.30091e-05,1.57001e-05,3.13695e-05,5.65055e-05,-4.54747e-06,1.06024e-05
1536,2.08532e-06,1.16953e-05,3.89194e-05,5.85631e-05,-8.80788e-07,1.35307e-05
1537,1.17765e-05,7.43461e-06,4.3305e-05,5.82443e-05,-2.43253e-06,1.60543e-05
1538,6.82726e-06,7.65108e-06,4.12626e-05,5.45484e-05,-6.04554e-06,1.69731e-05
1539,-3.10302e-06,1.10552e-05,3.46793e-05,5.12888e-05,-3.79298e-06,1.53894e-05
1540,-2.49367e-05,1.07428e-05,2.55242e-05,5.39816e-05,-2.53475e-06,1.03739e-05
1541,-3.3916e-05,6.466e-06,2.25924e-05,5.80371e-05,-8.65013e-06,5.29963e-06
1542,-9.97115e-06,5.51555e-06,3.49302e-05,5.66461e-05,-1.44763e-05,3.7195e-06
1543,7.27303e-06,7.71877e-06,3.94049e-05,5.15937e-05,-1.07943e-05,2.9414e-06
1544,4.96438e-06,1.13985e-05,3.75514e-05,4.78944e-05,-6.55471e-06,1.42488e-06
1545,3.23256e-06,1.15021e-05,4.39162e-05,5.00012e-05,-7.23834e-06,8.20973e-06
1546,7.05403e-06,8.48155e-06,4.52789e-05,5.66679e-05,-7.43225e-06,1.85126e-05
1547,1.38436e-05,8.51279e-06,4.38985e-05,5.64092e-05,-6.61413e-06,2.38321e-05
1548,1.36936e-06,1.17114e-05,4.08033e-05,4.94898e-05,-7.95026e-06,1.97808e-05
1549,-2.53727e-05,1.39887e-05,3.55117e-05,4.80012e-05,-7.75792e-06,1.35904e-05
1550,-2.93969e-05,1.60751e-05,3.30789e-05,4.93568e-05,-4.94391e-06,1.55619e-05
1551,-7.53104e-06,1.61725e-05,3.65778e-05,5.15703e-05,-4.60149e-06,2.13395e-05
1552,9.5175e-06,1.66808e-05,4.07459e-05,5.23583e-05,-6.53943e-06,2.11327e-05
1553,1.02008e-05,1.98051e-05,4.14415e-05,5.05035e-05,-5.6353e-06,1.57357e-05
