Time_Index,DELTOID_Affected,DELTOID_NonAffected,BICEPS_Affected,BICEPS_NonAffected,FOREARM_Affected,FOREARM_NonAffected
1,3.87793e-06,1.93928e-06,4.5958e-05,5.41978e-05,-1.21336e-05,3.00963e-05
2,2.39265e-06,8.61789e-06,4.4107e-05,4.79264e-05,-1.0552e-05,2.9792e-05
3,-1.14697e-05,1.39894e-05,3.91496e-05,4.43546e-05,-9.33971e-06,2.70218e-05
4,-2.7168e-05,1.20461e-05,3.092e-05,4.71091e-05,-1.21491e-05,2.58297e-05
5,-2.96436e-05,7.41032e-06,2.81143e-05,5.47765e-05,-1.57607e-05,2.71881e-05
6,-1.73198e-05,8.99612e-06,3.43377e-05,6.05393e-05,-1.4585e-05,2.77252e-05
7,-7.3385e-06,1.60835e-05,3.99165e-05,6.17053e-05,-9.76916e-06,1.89102e-05
8,-6.29967e-06,1.93775e-05,3.83689e-05,5.76806e-05,-6.31262e-06,7.54515e-07
9,-9.38701e-06,1.48212e-05,3.45983e-05,5.13588e-05,-6.05643e-06,-1.43724e-05
10,-1.75066e-05,6.75339e-06,2.92544e-05,5.08798e-05,-7.35834e-06,-1.79103e-05
11,-2.00475e-05,3.32081e-06,2.73809e-05,5.85281e-05,-7.29808e-06,-1.00832e-05
12,-6.94213e-06,5.68402e-06,3.44793e-05,6.50754e-05,-4.19847e-06,1.85817e-06
13,8.03754e-06,8.68262e-06,4.38868e-05,6.33232e-05,-2.5573e-06,8.66218e-06
14,1.14247e-05,1.092e-05,4.79087e-05,5.4542e-05,-4.04416e-06,9.06975e-06
15,4.11358e-06,1.19732e-05,4.61426e-05,4.74669e-05,-6.16825e-06,7.84896e-06
16,-1.60455e-05,8.77704e-06,3.66319e-05,4.82626e-05,-1.01678e-05,6.38164e-06
17,-2.75473e-05,3.37666e-06,2.87705e-05,5.33523e-05,-1.27305e-05,8.85337e-06
18,-9.16342e-06,6.12268e-06,3.37455e-05,5.78024e-05,-1.35588e-05,1.63794e-05
19,1.002e-05,1.3684e-05,3.45769e-05,5.84093e-05,-1.19918e-05,1.83646e-05
20,9.71371e-06,1.72303e-05,3.04382e-05,5.77134e-05,-9.08438e-06,1.61185e-05
21,9.29175e-06,1.71012e-05,3.44555e-05,6.0173e-05,-9.31538e-06,1.74577e-05
22,9.1405e-06,1.47368e-05,4.14698e-05,5.98661e-05,-1.2393e-05,1.78724e-05
23,7.74355e-06,1.47473e-05,4.60538e-05,5.39045e-05,-1.55179e-05,1.66159e-05
24,-7.54547e-07,1.66532e-05,4.1971e-05,5.12087e-05,-1.63145e-05,1.57807e-05
25,-1.53594e-05,1.48177e-05,3.36327e-05,5.6424e-05,-1.47222e-05,1.6539e-05
26,-1.74866e-05,1.12499e-05,3.22767e-05,6.4831e-05,-9.43419e-06,2.07453e-05
27,-2.1132e-06,9.2305e-06,3.82756e-05,7.06373e-05,-2.56011e-06,2.88694e-05
28,1.21032e-05,9.71451e-06,4.31628e-05,7.17363e-05,2.61861e-06,3.16981e-05
29,1.54124e-05,1.17067e-05,4.5811e-05,6.86786e-05,5.0254e-06,2.28818e-05
30,4.73627e-06,1.37867e-05,4.38559e-05,6.42996e-05,5.82205e-06,9.069e-06
31,-1.45809e-05,1.38682e-05,3.61746e-05,6.17835e-05,3.99414e-06,1.12549e-06
32,-2.11523e-05,1.26534e-05,3.33958e-05,6.27008e-05,9.0737e-07,4.0227e-06
33,-5.63513e-06,1.04437e-05,4.09235e-05,6.61831e-05,-6.03284e-07,1.50651e-05
34,1.30871e-05,8.45303e-06,4.84483e-05,6.83943e-05,-1.45505e-06,2.67064e-05
35,1.57861e-05,9.8908e-06,4.56881e-05,6.43486e-05,-3.41624e-06,3.05372e-05
36,2.38577e-06,1.34914e-05,3.61838e-05,5.54434e-05,-5.8488e-06,2.42247e-05
37,-1.80282e-05,1.51246e-05,2.60094e-05,4.86785e-05,-6.00807e-06,1.45035e-05
38,-2.46486e-05,1.29786e-05,2.31392e-05,4.82853e-05,-4.5645e-06,1.24235e-05
39,-9.30067e-06,9.07992e-06,3.12927e-05,5.31256e-05,-4.63129e-06,1.86785e-05
40,8.56542e-06,9.79605e-06,3.88348e-05,5.69208e-05,-8.04076e-06,2.23915e-05
41,1.07819e-05,1.70502e-05,3.91137e-05,5.4213e-05,-9.36059e-06,1.74483e-05
42,2.23772e-06,2.12749e-05,3.69402e-05,4.67494e-05,-5.95181e-06,1.01297e-05
43,-1.55825e-05,1.69832e-05,2.89432e-05,4.22028e-05,-2.48239e-06,4.36555e-06
44,-2.3134e-05,8.68125e-06,2.45027e-05,4.3211e-05,-1.55718e-06,3.31482e-06
45,-5.54056e-06,5.50965e-06,3.36331e-05,4.70299e-05,-6.29942e-06,1.27164e-05
46,6.09941e-06,1.00671e-05,3.92247e-05,4.88796e-05,-1.4665e-05,2.1939e-05
47,2.2534e-06,1.55048e-05,3.75226e-05,4.62402e-05,-2.08682e-05,2.02256e-05
48,1.48778e-06,1.43718e-05,3.75023e-05,4.21589e-05,-2.2734e-05,1.50725e-05
49,4.25533e-06,1.13449e-05,3.7503e-05,3.75059e-05,-2.23375e-05,1.46801e-05
50,7.35469e-06,1.2851e-05,3.88505e-05,3.36925e-05,-1.98803e-05,1.946e-05
51,-8.74224e-07,1.49927e-05,3.36134e-05,3.0967e-05,-1.38032e-05,1.96193e-05
52,-1.75638e-05,1.33748e-05,2.2232e-05,3.12115e-05,-8.15396e-06,1.08557e-05
53,-2.09066e-05,9.70323e-06,1.96956e-05,3.16726e-05,-5.22815e-06,4.46129e-06
54,-5.63253e-06,8.69092e-06,2.71311e-05,3.13632e-05,-5.08536e-06,1.02873e-05
55,7.35998e-06,1.05744e-05,3.27903e-05,3.03944e-05,-7.73868e-06,1.96455e-05
56,8.93789e-06,1.29683e-05,3.41597e-05,2.75763e-05,-1.20841e-05,2.0289e-05
57,5.48787e-07,1.43602e-05,3.11826e-05,2.58184e-05,-1.4856e-05,1.06085e-05
58,-1.28419e-05,1.19915e-05,2.48568e-05,2.82073e-05,-1.28203e-05,1.58091e-06
59,-1.85102e-05,7.53559e-06,2.28464e-05,3.44646e-05,-6.46348e-06,3.32734e-06
60,-1.12939e-05,4.4514e-06,2.91728e-05,4.14066e-05,-9.92769e-07,1.09504e-05
61,-7.57354e-07,5.21525e-06,3.77785e-05,4.70699e-05,-4.26101e-07,1.3565e-05
62,2.22611e-06,8.00125e-06,4.17733e-05,4.73175e-05,-3.01531e-06,1.08722e-05
63,-7.00573e-06,9.21126e-06,3.96927e-05,4.30663e-05,-3.57313e-06,8.1623e-06
64,-2.56633e-05,7.39694e-06,3.2009e-05,4.15473e-05,-8.8992e-07,5.03669e-06
65,-3.17503e-05,6.34312e-06,2.81513e-05,4.63e-05,2.40068e-06,1.50764e-06
66,-1.56463e-05,8.92345e-06,3.37852e-05,5.13849e-05,3.09205e-06,1.18627e-06
67,3.1975e-06,1.30045e-05,4.21328e-05,5.37289e-05,-6.19081e-07,6.12782e-06
68,8.19707e-06,1.83524e-05,4.59664e-05,5.39818e-05,-8.6748e-06,1.17553e-05
69,1.0109e-07,2.18957e-05,4.5665e-05,5.38473e-05,-1.58468e-05,1.29309e-05
70,-1.92658e-05,2.05249e-05,4.0692e-05,5.64702e-05,-1.66107e-05,9.28481e-06
71,-2.92393e-05,1.47162e-05,3.98333e-05,5.91584e-05,-1.25258e-05,6.77167e-06
72,-1.28727e-05,1.28247e-05,4.83916e-05,5.64732e-05,-7.65744e-06,7.78897e-06
73,2.69724e-06,1.60644e-05,5.19564e-05,5.07979e-05,-5.0465e-06,7.64399e-06
74,3.69026e-06,1.76321e-05,4.71538e-05,4.8155e-05,-3.08948e-07,4.84374e-06
75,3.33173e-06,1.85828e-05,4.50886e-05,5.13252e-05,3.37258e-06,4.28133e-06
76,1.20489e-06,2.04393e-05,4.75004e-05,5.49409e-05,-1.00935e-06,7.62764e-06
77,1.07037e-06,2.14808e-05,5.15552e-05,5.3249e-05,-8.17387e-06,1.37008e-05
78,-5.96106e-06,2.0158e-05,4.867e-05,5.07816e-05,-9.76835e-06,1.39013e-05
79,-1.98938e-05,1.56197e-05,4.09034e-05,5.35138e-05,-6.19889e-06,7.25232e-06
80,-2.25316e-05,1.11459e-05,4.14246e-05,5.55309e-05,-2.90489e-06,4.42716e-06
81,-1.08279e-05,1.03647e-05,4.942e-05,5.27811e-05,-2.74468e-06,9.46228e-06
82,-1.46348e-06,1.32743e-05,5.43322e-05,4.99186e-05,-3.45709e-06,1.69166e-05
83,-6.74377e-07,1.88447e-05,4.94208e-05,4.93539e-05,-2.06579e-06,2.3466e-05
84,-9.86992e-06,2.46874e-05,3.75001e-05,5.0712e-05,-2.05172e-06,2.67192e-05
85,-2.29732e-05,2.51908e-05,2.54645e-05,5.49422e-05,-7.26889e-06,2.26953e-05
86,-2.48002e-05,1.99711e-05,2.29764e-05,6.11733e-05,-1.31361e-05,1.5422e-05
87,-1.17544e-05,1.28725e-05,3.18256e-05,6.4317e-05,-1.36255e-05,1.27047e-05
88,2.8365e-06,8.1958e-06,4.24953e-05,6.27916e-05,-1.2216e-05,1.5111e-05
89,5.87198e-06,9.98044e-06,4.54096e-05,5.78483e-05,-1.33246e-05,1.26648e-05
90,-5.72377e-06,1.71169e-05,3.77367e-05,5.27537e-05,-1.52056e-05,4.88544e-06
91,-2.5228e-05,2.17242e-05,2.48603e-05,5.37769e-05,-1.4684e-05,2.47303e-06
92,-2.89429e-05,2.07885e-05,2.02774e-05,6.13431e-05,-1.12637e-05,6.94648e-06
93,-9.69351e-06,1.55548e-05,2.87173e-05,6.6819e-05,-4.39797e-06,1.08195e-05
94,1.17057e-05,7.82585e-06,3.62088e-05,6.55534e-05,6.37433e-07,1.13671e-05
95,1.561e-05,4.17218e-06,3.42442e-05,5.6749e-05,-2.87332e-06,1.10469e-05
96,3.2734e-06,8.51084e-06,2.7643e-05,4.4463e-05,-9.79053e-06,9.92684e-06
97,-2.13628e-05,1.25406e-05,2.14598e-05,3.73379e-05,-1.35326e-05,6.50046e-06
98,-3.48211e-05,9.44017e-06,2.30837e-05,3.77697e-05,-1.43841e-05,5.11344e-06
99,-2.03327e-05,4.67737e-06,3.06718e-05,4.26559e-05,-1.25246e-05,1.00713e-05
100,-6.01189e-06,2.87529e-06,3.18747e-05,4.76518e-05,-1.01797e-05,1.41793e-05
101,-4.27522e-06,6.28596e-06,3.2044e-05,4.82091e-05,-9.33344e-06,1.39587e-05
102,8.65756e-07,7.80646e-06,3.61749e-05,4.85934e-05,-8.16901e-06,1.61702e-05
103,7.4376e-06,4.3449e-06,3.72777e-05,5.05175e-05,-7.72163e-06,1.83184e-05
104,1.02626e-05,4.29161e-06,3.51304e-05,4.93773e-05,-7.74828e-06,2.02809e-05
105,-3.25849e-06,7.33354e-06,2.80151e-05,4.59344e-05,-7.51142e-06,1.96652e-05
106,-2.75366e-05,7.45444e-06,1.89237e-05,4.71015e-05,-7.23393e-06,1.47104e-05
107,-3.22577e-05,4.14995e-06,1.95266e-05,5.22801e-05,-5.7095e-06,1.12111e-05
108,-1.36584e-05,-7.13147e-07,3.10138e-05,5.53449e-05,-5.10463e-06,1.31769e-05
109,3.92828e-06,-6.03141e-07,3.92337e-05,5.48404e-05,-7.03271e-06,1.86869e-05
110,8.27465e-06,5.30673e-06,3.92481e-05,5.26709e-05,-1.00385e-05,2.29839e-05
111,-2.58186e-06,1.09956e-05,3.54792e-05,5.13029e-05,-1.30783e-05,2.36373e-05
112,-2.13876e-05,1.02603e-05,3.09814e-05,5.21902e-05,-1.44142e-05,1.92654e-05
113,-2.84958e-05,5.64088e-06,3.1238e-05,5.52607e-05,-1.28833e-05,1.53529e-05
114,-1.67751e-05,3.44795e-06,3.81517e-05,5.75009e-05,-1.10046e-05,1.87351e-05
115,-2.47689e-06,5.0222e-06,4.48066e-05,5.9387e-05,-1.39704e-05,2.65867e-05
116,1.17924e-06,7.94294e-06,4.41869e-05,6.05086e-05,-2.03602e-05,2.96416e-05
117,-4.69743e-06,9.36897e-06,3.77108e-05,5.948e-05,-2.38828e-05,2.29455e-05
118,-1.49203e-05,8.33653e-06,3.09945e-05,5.89044e-05,-2.04784e-05,9.94579e-06
119,-1.58608e-05,5.31217e-06,3.2477e-05,6.13557e-05,-1.50305e-05,6.48829e-06
120,-3.38832e-06,2.93839e-06,4.21895e-05,6.38276e-05,-1.44371e-05,2.14831e-05
121,7.04117e-06,3.2832e-06,4.91842e-05,6.41155e-05,-1.4969e-05,4.41295e-05
122,4.1308e-06,9.5511e-06,4.71256e-05,5.92096e-05,-1.15926e-05,5.44473e-05
123,-5.00758e-06,1.65388e-05,4.19411e-05,5.14866e-05,-6.59093e-06,3.80072e-05
124,-1.9706e-05,1.52357e-05,3.76581e-05,5.18449e-05,-1.77944e-06,6.9272e-06
125,-2.53481e-05,8.35488e-06,3.58829e-05,5.94095e-05,1.80176e-06,-3.7835e-07
126,-4.56381e-06,5.8373e-06,4.08008e-05,6.36107e-05,1.14962e-06,2.21237e-05
127,1.60971e-05,8.51209e-06,4.30364e-05,6.24848e-05,-1.96137e-06,2.99692e-05
128,2.03485e-05,1.38893e-05,4.00968e-05,5.72577e-05,-5.1284e-06,1.71382e-05
129,1.84307e-05,1.92584e-05,3.81292e-05,5.18821e-05,-6.69351e-06,1.37198e-05
130,1.30485e-05,2.19794e-05,3.87571e-05,5.02575e-05,-1.00616e-05,2.13352e-05
131,1.05271e-05,2.37577e-05,4.18803e-05,4.84651e-05,-1.58676e-05,2.82482e-05
132,9.94935e-07,2.23109e-05,4.14818e-05,4.69584e-05,-1.86638e-05,2.21796e-05
133,-1.77972e-05,1.46086e-05,3.66482e-05,4.79846e-05,-1.53807e-05,8.20963e-06
134,-2.43279e-05,8.17355e-06,3.57617e-05,5.10872e-05,-7.90814e-06,1.84331e-06
135,-1.05354e-05,5.14726e-06,4.3635e-05,5.49454e-05,-2.71157e-06,6.04217e-06
136,5.87439e-06,6.19837e-06,4.81589e-05,5.60748e-05,-3.26181e-06,1.67588e-05
137,1.23181e-05,1.19967e-05,4.50013e-05,5.26748e-05,-6.68333e-06,3.1322e-05
138,7.51662e-07,1.58731e-05,3.80512e-05,4.78841e-05,-8.05646e-06,3.76541e-05
139,-2.10014e-05,1.4328e-05,3.05606e-05,4.63732e-05,-7.83021e-06,2.65244e-05
140,-2.78092e-05,1.17103e-05,2.79042e-05,4.82634e-05,-1.03346e-05,9.48451e-06
141,-1.08542e-05,1.06101e-05,3.23702e-05,5.11572e-05,-1.65642e-05,5.50694e-06
142,8.13207e-06,9.686e-06,3.84053e-05,5.13128e-05,-2.10592e-05,1.50332e-05
143,1.0301e-05,1.05714e-05,4.17405e-05,4.55753e-05,-2.06234e-05,2.27636e-05
144,-1.91084e-06,1.3354e-05,4.07194e-05,3.90288e-05,-1.6407e-05,2.04152e-05
145,-2.08857e-05,1.54759e-05,3.43738e-05,4.03444e-05,-1.20113e-05,1.16797e-05
146,-2.82518e-05,1.33814e-05,3.13993e-05,4.74163e-05,-1.19049e-05,4.95852e-06
147,-1.52203e-05,8.36106e-06,3.81825e-05,4.96667e-05,-1.55134e-05,4.7654e-06
148,1.61914e-06,4.84967e-06,4.49888e-05,4.47235e-05,-1.74002e-05,6.87312e-06
149,6.00977e-06,4.88062e-06,4.37818e-05,3.94731e-05,-1.53932e-05,5.31409e-06
150,-2.44931e-06,9.91873e-06,4.04664e-05,3.64494e-05,-1.43082e-05,4.2217e-06
151,-2.32449e-05,1.43924e-05,3.45559e-05,3.64542e-05,-1.82161e-05,3.53592e-06
152,-3.35904e-05,1.20144e-05,3.18414e-05,3.7381e-05,-2.14905e-05,4.35211e-06
153,-1.37018e-05,7.84055e-06,3.84943e-05,3.71129e-05,-1.72198e-05,5.96728e-06
154,7.74851e-06,8.11539e-06,4.33035e-05,3.5785e-05,-1.11559e-05,5.97818e-06
155,1.05573e-05,1.31019e-05,4.33715e-05,3.31348e-05,-9.49841e-06,5.62051e-06
156,8.80019e-06,1.64709e-05,4.40547e-05,3.64505e-05,-1.07013e-05,9.15129e-06
157,7.38417e-06,1.68504e-05,4.42305e-05,4.34218e-05,-1.12525e-05,1.78749e-05
158,7.7245e-06,1.81254e-05,4.34181e-05,4.64162e-05,-8.1038e-06,2.73887e-05
159,-4.89983e-07,1.91908e-05,3.47984e-05,4.54579e-05,-7.36497e-06,2.54682e-05
160,-1.88421e-05,1.47831e-05,2.17414e-05,4.73566e-05,-1.09711e-05,1.09179e-05
161,-2.36361e-05,1.0865e-05,2.03723e-05,5.14409e-05,-1.14745e-05,1.54485e-07
162,-8.35353e-06,1.14743e-05,3.28296e-05,5.3087e-05,-8.47073e-06,3.31954e-06
163,6.24575e-06,1.37671e-05,4.31149e-05,5.28404e-05,-5.98777e-06,1.35707e-05
164,1.07141e-05,1.61151e-05,4.43589e-05,4.99517e-05,-5.87607e-06,1.78782e-05
165,3.20008e-06,1.78103e-05,3.83871e-05,4.8232e-05,-6.40942e-06,1.23566e-05
166,-1.21272e-05,1.79444e-05,2.98259e-05,5.3109e-05,-7.92524e-06,-9.15702e-07
167,-1.82665e-05,1.72172e-05,2.77787e-05,6.25515e-05,-1.06328e-05,-1.30982e-05
168,-7.04079e-06,1.69508e-05,3.50355e-05,6.92349e-05,-1.16192e-05,-1.37203e-05
169,5.57228e-06,1.65882e-05,4.2795e-05,6.89885e-05,-9.36837e-06,-2.30017e-06
170,5.68515e-06,1.79154e-05,4.50461e-05,6.07189e-05,-6.68203e-06,8.08898e-06
171,-3.39104e-06,2.01144e-05,4.23437e-05,5.17871e-05,-7.05052e-06,7.90102e-06
172,-1.57175e-05,1.88427e-05,3.4243e-05,5.17395e-05,-1.12878e-05,3.25741e-06
173,-1.82062e-05,1.38865e-05,2.92471e-05,5.85571e-05,-1.59234e-05,3.22863e-06
174,-3.79969e-06,1.13493e-05,3.26118e-05,6.07247e-05,-1.76354e-05,3.26269e-06
175,1.35303e-05,1.31674e-05,3.82909e-05,5.74463e-05,-1.70505e-05,1.09505e-06
176,1.81419e-05,1.77044e-05,4.20459e-05,5.46256e-05,-1.64074e-05,2.85521e-06
177,9.02199e-06,2.01556e-05,4.08987e-05,5.41467e-05,-1.58784e-05,5.9803e-06
178,-1.70757e-05,1.62941e-05,3.02036e-05,5.83493e-05,-1.2189e-05,7.55687e-06
179,-3.57626e-05,9.2891e-06,2.31563e-05,6.41454e-05,-6.25943e-06,1.05226e-05
180,-1.95725e-05,4.25407e-06,2.71797e-05,6.70305e-05,-4.45426e-06,1.46601e-05
181,-1.17756e-06,2.33814e-06,3.03448e-05,6.52213e-05,-9.24177e-06,1.96196e-05
182,1.15694e-06,5.12587e-06,3.41004e-05,6.21314e-05,-1.30599e-05,2.61534e-05
183,2.02241e-06,8.78313e-06,4.32012e-05,6.32008e-05,-9.44836e-06,2.7865e-05
184,-1.38673e-08,7.4423e-06,4.7617e-05,6.41803e-05,-2.02365e-06,2.36794e-05
185,-1.85169e-06,4.78462e-06,4.30042e-05,5.95709e-05,3.60302e-06,1.61699e-05
186,-1.23223e-05,4.94784e-06,2.98765e-05,5.47736e-05,3.59666e-06,5.24981e-06
187,-2.88736e-05,3.50292e-06,1.85076e-05,5.43082e-05,-1.19771e-06,-3.08707e-06
188,-2.91155e-05,1.63707e-06,2.22582e-05,5.46199e-05,-4.56224e-06,-2.1401e-06
189,-1.12122e-05,-2.89112e-08,3.49548e-05,5.52098e-05,-6.57537e-06,8.91262e-06
190,4.64346e-06,-9.32405e-07,4.20327e-05,5.40292e-05,-1.02981e-05,1.79437e-05
191,9.19186e-06,1.63817e-07,3.95919e-05,4.97152e-05,-1.44871e-05,1.85897e-05
192,-9.59274e-07,2.73977e-06,2.91951e-05,4.58486e-05,-1.44962e-05,1.39644e-05
193,-2.04459e-05,5.14669e-06,1.7834e-05,4.67784e-05,-1.06377e-05,8.49084e-06
194,-2.76606e-05,5.43133e-06,1.68478e-05,5.26831e-05,-6.88688e-06,7.02467e-06
195,-1.38715e-05,3.75561e-06,2.73015e-05,5.80424e-05,-5.0299e-06,1.32305e-05
196,3.32174e-06,1.99466e-06,3.69287e-05,5.78183e-05,-5.23632e-06,1.91986e-05
197,8.38271e-06,3.97778e-06,3.8304e-05,4.99532e-05,-7.69132e-06,1.47087e-05
198,-3.33868e-07,7.47255e-06,3.3985e-05,3.93279e-05,-9.97006e-06,4.81026e-06
199,-1.91512e-05,9.91833e-06,2.6584e-05,3.62871e-05,-7.5426e-06,-2.45322e-07
200,-2.78191e-05,1.13411e-05,2.44126e-05,4.31218e-05,-1.97662e-06,4.75854e-06
201,-1.42874e-05,1.12752e-05,3.07844e-05,4.81493e-05,-3.82519e-08,1.86772e-05
202,4.76459e-06,9.18725e-06,3.78052e-05,4.65881e-05,-3.83997e-06,3.14239e-05
203,1.1511e-05,1.12706e-05,4.01306e-05,4.26812e-05,-7.75201e-06,3.30884e-05
204,3.15752e-06,1.6811e-05,3.85141e-05,4.03127e-05,-9.09177e-06,2.98784e-05
205,-1.97486e-05,1.85548e-05,3.28992e-05,4.27528e-05,-7.82921e-06,2.78351e-05
206,-3.00536e-05,1.52487e-05,2.9898e-05,4.89448e-05,-3.19362e-06,3.06122e-05
207,-6.67338e-06,8.85912e-06,3.81937e-05,5.29011e-05,-4.01105e-07,3.93915e-05
208,1.52709e-05,5.30579e-06,4.61724e-05,5.14901e-05,-8.33716e-06,4.6156e-05
209,1.63598e-05,6.98012e-06,4.48874e-05,5.01078e-05,-1.78858e-05,4.41513e-05
210,1.54615e-05,7.72966e-06,4.22603e-05,5.39479e-05,-1.91493e-05,3.17931e-05
211,1.46284e-05,8.49182e-06,4.28757e-05,5.98802e-05,-1.4686e-05,1.85226e-05
212,1.05799e-05,1.32319e-05,4.60746e-05,5.9285e-05,-9.83941e-06,1.40141e-05
213,-3.33543e-06,1.88788e-05,4.23453e-05,5.48647e-05,-9.71276e-06,1.49241e-05
214,-2.25791e-05,1.84661e-05,3.19172e-05,5.54229e-05,-1.07022e-05,1.96827e-05
215,-2.55249e-05,1.48245e-05,2.93746e-05,5.89682e-05,-7.66943e-06,2.56122e-05
216,-9.65788e-06,1.39859e-05,4.01213e-05,6.13822e-05,-1.07149e-06,3.02163e-05
217,3.66524e-06,1.6128e-05,5.18171e-05,5.99211e-05,2.11042e-06,2.80709e-05
218,6.12883e-06,2.10942e-05,5.48019e-05,5.25754e-05,-1.92219e-06,2.0622e-05
219,-3.76197e-06,2.38293e-05,4.85558e-05,4.43716e-05,-9.33694e-06,1.3835e-05
220,-2.2406e-05,1.95066e-05,3.88833e-05,4.35315e-05,-1.23914e-05,1.05823e-05
221,-3.11428e-05,1.11114e-05,3.68606e-05,4.78113e-05,-8.38077e-06,1.22695e-05
222,-2.0366e-05,5.23705e-06,4.53906e-05,5.02445e-05,-3.743e-06,1.59751e-05
223,-5.01815e-06,4.19561e-06,5.37415e-05,5.06922e-05,-5.97841e-06,1.82316e-05
224,-5.87468e-07,7.96781e-06,5.37983e-05,4.92627e-05,-1.13048e-05,1.82269e-05
225,-9.61018e-06,1.43294e-05,4.72875e-05,4.3538e-05,-1.15502e-05,1.69958e-05
226,-2.73852e-05,1.92247e-05,3.76499e-05,3.88695e-05,-8.70823e-06,1.42165e-05
227,-3.43847e-05,1.91879e-05,3.40913e-05,4.14863e-05,-8.33776e-06,1.41506e-05
228,-1.93476e-05,1.30342e-05,4.19325e-05,4.77887e-05,-1.31111e-05,1.81882e-05
229,-6.71229e-07,6.69808e-06,5.0024e-05,5.1026e-05,-1.92722e-05,2.24037e-05
230,3.45267e-06,9.24055e-06,4.79393e-05,4.84366e-05,-2.06917e-05,2.27737e-05
231,-5.72219e-06,1.49841e-05,3.95509e-05,4.51065e-05,-1.72552e-05,1.93039e-05
232,-2.84711e-05,1.39838e-05,2.85422e-05,4.76879e-05,-1.20593e-05,1.15134e-05
233,-4.02879e-05,9.19065e-06,2.36036e-05,5.25065e-05,-7.13518e-06,4.61214e-06
234,-1.82185e-05,8.3959e-06,3.14183e-05,5.24387e-05,-4.93389e-06,4.46405e-06
235,3.30172e-06,1.16631e-05,3.87767e-05,4.63811e-05,-8.17605e-06,8.92882e-06
236,6.8993e-06,1.5751e-05,3.89059e-05,4.33439e-05,-1.31439e-05,9.69087e-06
237,7.6372e-06,1.78592e-05,4.05469e-05,4.7626e-05,-1.37472e-05,4.99459e-06
238,2.46221e-06,1.59905e-05,4.41776e-05,5.06895e-05,-9.70619e-06,3.42013e-06
239,-4.00701e-06,1.33913e-05,4.50219e-05,4.83959e-05,-3.79999e-06,6.7516e-06
240,-1.22108e-05,1.36078e-05,3.63963e-05,4.17862e-05,-1.30341e-06,1.47869e-05
241,-2.26421e-05,1.55026e-05,2.36353e-05,3.95908e-05,-3.19807e-06,2.53523e-05
242,-2.00445e-05,1.53294e-05,2.27922e-05,4.40161e-05,-3.91174e-06,2.60306e-05
243,-2.40489e-06,1.40236e-05,3.26241e-05,4.86206e-05,-1.73666e-06,1.40715e-05
244,9.63634e-06,1.42672e-05,3.841e-05,4.7884e-05,-1.75715e-06,5.69449e-06
245,1.10072e-05,1.71177e-05,3.6027e-05,4.46535e-05,-4.82226e-06,1.16384e-05
246,1.87414e-06,1.95128e-05,3.00359e-05,4.28983e-05,-7.63669e-06,2.08679e-05
247,-1.18402e-05,1.71417e-05,2.35819e-05,4.40866e-05,-8.57145e-06,1.86873e-05
248,-1.21159e-05,1.20158e-05,2.49732e-05,4.74611e-05,-9.91976e-06,7.97589e-06
249,3.79587e-06,8.8963e-06,3.4415e-05,5.0885e-05,-1.2947e-05,2.59089e-06
250,1.62655e-05,9.99806e-06,4.05772e-05,5.39046e-05,-1.7719e-05,6.76306e-06
251,1.33626e-05,1.29785e-05,3.94089e-05,5.33981e-05,-2.15671e-05,1.47882e-05
252,8.41441e-07,1.4204e-05,3.54409e-05,4.92987e-05,-2.00307e-05,1.94268e-05
253,-1.64315e-05,1.21076e-05,3.01198e-05,4.6798e-05,-1.57394e-05,1.66193e-05
254,-2.11483e-05,1.06955e-05,2.82429e-05,5.08249e-05,-1.37647e-05,9.05912e-06
255,-6.49334e-06,1.14493e-05,3.61194e-05,5.80422e-05,-1.29599e-05,5.88568e-06
256,7.40782e-06,1.23706e-05,4.74525e-05,6.31704e-05,-1.14137e-05,8.8702e-06
257,5.95687e-06,1.40265e-05,5.21288e-05,6.29554e-05,-1.13408e-05,1.23895e-05
258,-3.62383e-06,1.7514e-05,4.9116e-05,5.83924e-05,-1.3415e-05,1.57286e-05
259,-1.839e-05,1.99961e-05,3.91585e-05,5.59064e-05,-1.65762e-05,1.63968e-05
260,-2.32851e-05,2.02845e-05,3.3095e-05,5.81365e-05,-1.91896e-05,1.4389e-05
261,-7.26368e-06,1.89124e-05,3.96914e-05,5.80879e-05,-1.56177e-05,1.29297e-05
262,4.78944e-06,1.62508e-05,4.07741e-05,5.36991e-05,-1.09002e-05,1.11666e-05
263,5.13631e-06,1.56227e-05,3.44582e-05,4.84645e-05,-1.37574e-05,1.22309e-05
264,6.91779e-06,1.39069e-05,3.22251e-05,4.91069e-05,-1.53702e-05,1.81899e-05
265,7.68249e-06,1.30414e-05,3.2695e-05,5.40169e-05,-1.59565e-05,2.41141e-05
266,6.72958e-06,1.76627e-05,3.48415e-05,5.42066e-05,-1.53862e-05,2.71308e-05
267,-5.47298e-06,2.24731e-05,3.62445e-05,5.16627e-05,-1.0954e-05,2.3474e-05
268,-2.82653e-05,1.83003e-05,3.40672e-05,5.22652e-05,-7.18068e-06,1.59929e-05
269,-3.1787e-05,1.09826e-05,3.40067e-05,5.27851e-05,-7.64906e-06,1.45919e-05
270,-1.11461e-05,1.05299e-05,3.98896e-05,5.05998e-05,-1.21907e-05,2.35688e-05
271,6.65187e-06,1.56251e-05,4.28547e-05,4.60543e-05,-1.58053e-05,2.91925e-05
272,7.80065e-06,2.13512e-05,3.98669e-05,4.02625e-05,-1.78684e-05,2.19287e-05
273,-6.17945e-06,2.30372e-05,3.24735e-05,3.70838e-05,-1.87053e-05,1.01726e-05
274,-2.46621e-05,2.02243e-05,2.43359e-05,3.95278e-05,-1.58018e-05,5.32779e-06
275,-2.74053e-05,1.73688e-05,2.32564e-05,4.59551e-05,-1.08825e-05,1.26623e-05
276,-9.28591e-06,1.86857e-05,3.00871e-05,4.93723e-05,-9.94716e-06,2.44359e-05
277,9.62719e-06,2.16091e-05,3.68119e-05,4.72365e-05,-1.33656e-05,2.58792e-05
278,1.42429e-05,2.25285e-05,3.79684e-05,4.23364e-05,-1.68178e-05,1.42781e-05
279,2.77482e-06,2.14693e-05,3.23765e-05,4.05257e-05,-1.63057e-05,1.09153e-06
280,-1.75577e-05,1.67892e-05,2.14121e-05,4.49997e-05,-1.25876e-05,-5.48334e-06
281,-2.38444e-05,7.82099e-06,1.71032e-05,5.13239e-05,-1.03798e-05,-6.71402e-07
282,-6.57466e-06,2.5574e-06,2.66041e-05,5.27485e-05,-1.22555e-05,1.41543e-05
283,1.1464e-05,5.36547e-06,3.7761e-05,5.00532e-05,-1.4322e-05,2.86017e-05
284,1.43432e-05,1.29766e-05,4.03557e-05,4.59236e-05,-1.24656e-05,3.18933e-05
285,4.04594e-06,1.86858e-05,3.53484e-05,4.32873e-05,-7.99871e-06,2.38137e-05
286,-2.07406e-05,1.46531e-05,2.69968e-05,4.68364e-05,-5.27179e-06,1.59031e-05
287,-3.64788e-05,7.08751e-06,2.57733e-05,5.5721e-05,-3.81967e-06,1.01704e-05
288,-1.77087e-05,6.15047e-06,3.50062e-05,6.08515e-05,8.31183e-07,3.8724e-06
289,4.15664e-06,8.7633e-06,4.14943e-05,5.74559e-05,1.76352e-06,-1.50985e-06
290,7.90604e-06,1.20797e-05,4.12122e-05,5.1666e-05,-3.11379e-06,-1.18606e-05
291,7.54189e-06,1.05886e-05,4.03901e-05,5.21401e-05,-6.37348e-06,-1.82203e-05
292,7.29577e-06,8.02014e-06,4.06864e-05,5.56059e-05,-6.81781e-06,-1.15098e-05
293,5.77115e-06,1.18505e-05,4.25633e-05,5.21096e-05,-6.4709e-06,2.74104e-08
294,-9.37271e-06,1.65549e-05,3.91274e-05,4.63863e-05,-5.89146e-06,6.65189e-06
295,-3.05333e-05,1.6389e-05,2.95967e-05,4.68855e-05,-2.65534e-06,7.14131e-06
296,-3.35081e-05,1.32839e-05,2.59718e-05,5.15678e-05,8.10539e-07,7.46403e-06
297,-1.57059e-05,1.11867e-05,3.23035e-05,5.71525e-05,1.59317e-06,8.50249e-06
298,1.07392e-06,9.95004e-06,3.98332e-05,5.93535e-05,-1.22829e-06,6.40982e-06
299,5.40555e-06,1.1659e-05,4.28299e-05,5.52616e-05,-3.24251e-06,3.0253e-06
300,-5.61032e-06,1.26758e-05,3.83164e-05,4.90355e-05,-2.69781e-06,1.42468e-06
301,-2.27831e-05,9.05447e-06,3.10303e-05,4.77311e-05,-2.10051e-06,2.4927e-06
302,-2.4159e-05,4.37292e-06,3.13907e-05,5.12018e-05,-2.13435e-06,9.14494e-06
303,-6.07166e-06,4.24758e-06,3.9183e-05,5.2214e-05,-1.98782e-06,1.93921e-05
304,1.03896e-05,7.63187e-06,4.5253e-05,4.90474e-05,-7.00812e-07,2.57895e-05
305,1.19858e-05,8.99195e-06,4.481e-05,4.57957e-05,2.13515e-06,2.61305e-05
306,2.34298e-06,6.9793e-06,3.91411e-05,4.6865e-05,4.67717e-06,2.3422e-05
307,-1.41431e-05,3.83756e-06,3.00533e-05,5.14465e-05,3.24999e-06,1.70248e-05
308,-2.13211e-05,2.80553e-06,2.66111e-05,5.55888e-05,-1.15807e-06,1.01899e-05
309,-9.25295e-06,4.12306e-06,3.32195e-05,5.70939e-05,-4.47671e-06,9.03255e-06
310,6.07685e-06,4.89856e-06,4.01641e-05,5.68788e-05,-5.44262e-06,1.1799e-05
311,1.01762e-05,4.79788e-06,4.11199e-05,5.67331e-05,-5.80141e-06,1.51455e-05
312,4.64685e-06,5.00472e-06,3.73306e-05,5.70716e-05,-5.89124e-06,1.75836e-05
313,-1.45787e-05,5.40127e-06,2.78534e-05,5.76927e-05,-8.54347e-06,1.62624e-05
314,-2.84046e-05,3.50504e-06,2.33999e-05,5.95166e-05,-1.26813e-05,1.46648e-05
315,-1.24036e-05,1.26729e-06,3.19454e-05,6.18813e-05,-1.44258e-05,1.73123e-05
316,8.30921e-06,2.44575e-06,3.94163e-05,6.13692e-05,-1.34151e-05,2.05952e-05
317,1.3539e-05,6.63075e-06,4.18004e-05,5.88254e-05,-1.13222e-05,2.10765e-05
318,1.39537e-05,1.15499e-05,4.28185e-05,5.85154e-05,-9.86501e-06,2.11872e-05
319,1.20284e-05,1.12114e-05,4.12389e-05,5.87952e-05,-1.14614e-05,2.23422e-05
320,6.86331e-06,8.5976e-06,4.11042e-05,5.79146e-05,-1.31938e-05,2.16689e-05
321,-7.68539e-06,8.42622e-06,3.71937e-05,5.76266e-05,-1.2037e-05,1.75807e-05
322,-2.38152e-05,7.61199e-06,2.93349e-05,6.00424e-05,-9.53424e-06,1.22782e-05
323,-2.06474e-05,5.41828e-06,2.89496e-05,6.30164e-05,-6.83697e-06,7.20296e-06
324,-1.6575e-06,4.00215e-06,3.74218e-05,6.26733e-05,-1.4946e-06,7.20434e-06
325,9.24996e-06,1.9279e-06,4.40166e-05,5.91997e-05,4.97793e-06,1.15752e-05
326,7.07093e-06,3.13431e-08,4.36402e-05,5.27126e-05,8.13827e-06,1.46752e-05
327,-6.08937e-06,1.8863e-06,3.86122e-05,4.70977e-05,6.44308e-06,1.37843e-05
328,-2.43656e-05,5.85506e-06,3.27341e-05,4.80395e-05,2.16668e-06,1.2271e-05
329,-3.03157e-05,8.08391e-06,3.31871e-05,5.53734e-05,-1.97716e-07,1.35308e-05
330,-1.66784e-05,6.40486e-06,3.96339e-05,6.31501e-05,-2.67834e-07,1.47296e-05
331,6.58375e-07,5.02054e-06,4.43391e-05,6.49985e-05,-2.56713e-06,1.19499e-05
332,5.45803e-06,7.93061e-06,4.5044e-05,5.88947e-05,-9.43738e-06,7.14509e-06
333,-5.02724e-06,1.21949e-05,4.13417e-05,5.07365e-05,-1.50714e-05,6.86652e-06
334,-2.40175e-05,1.20513e-05,3.15093e-05,4.72234e-05,-1.52335e-05,1.04901e-05
335,-3.01888e-05,8.24524e-06,2.58175e-05,4.70466e-05,-1.35088e-05,1.40163e-05
336,-1.42837e-05,5.55699e-06,3.55117e-05,4.59477e-05,-1.28709e-05,1.48517e-05
337,5.35098e-06,3.86194e-06,5.00326e-05,4.32676e-05,-8.23199e-06,1.36017e-05
338,1.11528e-05,5.02066e-06,5.3637e-05,4.18078e-05,1.30827e-06,1.44621e-05
339,2.33626e-06,9.32282e-06,4.69252e-05,4.09365e-05,8.01283e-06,1.66252e-05
340,-2.35561e-05,1.01447e-05,3.34841e-05,4.21604e-05,6.32395e-06,1.30148e-05
341,-3.99355e-05,7.95496e-06,2.43437e-05,4.66126e-05,1.01431e-06,6.59226e-06
342,-2.00626e-05,7.08808e-06,2.94517e-05,4.70704e-05,-5.29797e-06,5.29346e-06
343,3.26801e-06,8.90359e-06,3.75257e-05,4.30426e-05,-1.22124e-05,5.48212e-06
344,8.09691e-06,1.14354e-05,4.36575e-05,4.21261e-05,-1.42528e-05,8.1073e-06
345,6.34965e-06,1.16271e-05,4.82016e-05,4.58077e-05,-1.11758e-05,1.41117e-05
346,4.41616e-06,1.24056e-05,4.61508e-05,4.63063e-05,-8.09882e-06,1.49523e-05
347,5.38758e-06,1.47103e-05,3.96304e-05,4.18482e-05,-9.99439e-06,1.38394e-05
348,-2.81821e-06,1.4596e-05,3.20522e-05,3.90005e-05,-1.69772e-05,1.32711e-05
349,-1.83636e-05,1.30417e-05,2.75597e-05,4.33052e-05,-2.21403e-05,1.29382e-05
350,-2.02889e-05,1.45461e-05,3.03026e-05,5.07922e-05,-2.26622e-05,1.20765e-05
351,-5.63302e-06,1.81847e-05,3.75049e-05,5.61912e-05,-1.87249e-05,1.27565e-05
352,6.12576e-06,2.29336e-05,4.01735e-05,5.79634e-05,-1.49942e-05,1.42764e-05
353,7.79431e-06,2.92405e-05,3.90828e-05,5.45898e-05,-1.63697e-05,1.55335e-05
354,-2.90976e-06,3.17273e-05,3.38011e-05,5.09964e-05,-1.98879e-05,1.50773e-05
355,-2.03117e-05,2.52818e-05,2.53166e-05,5.30163e-05,-2.15493e-05,1.17135e-05
356,-2.67391e-05,1.48302e-05,2.34451e-05,5.91233e-05,-2.05342e-05,1.073e-05
357,-1.64779e-05,9.07986e-06,3.20073e-05,6.24215e-05,-1.91739e-05,1.58889e-05
358,-3.07279e-06,9.73874e-06,4.18554e-05,6.13444e-05,-1.83191e-05,2.31725e-05
359,1.17927e-06,1.24938e-05,4.58491e-05,5.76721e-05,-1.72914e-05,2.36593e-05
360,-7.94489e-06,1.41052e-05,4.37945e-05,5.3981e-05,-1.52197e-05,1.7404e-05
361,-2.93187e-05,1.27153e-05,3.59009e-05,5.43279e-05,-1.33155e-05,1.04443e-05
362,-3.96937e-05,1.14567e-05,3.05665e-05,5.84951e-05,-1.23154e-05,1.03189e-05
363,-2.38981e-05,1.3981e-05,3.39669e-05,6.1334e-05,-1.13586e-05,1.5825e-05
364,-2.31916e-07,1.57785e-05,3.8643e-05,6.05626e-05,-9.77271e-06,2.03974e-05
365,8.03485e-06,1.38578e-05,3.8766e-05,5.69689e-05,-8.06437e-06,2.09517e-05
366,-1.59862e-06,1.16319e-05,3.55388e-05,5.2456e-05,-7.16434e-06,1.89934e-05
367,-2.6964e-05,9.99138e-06,2.79288e-05,5.10198e-05,-7.25116e-06,1.28543e-05
368,-4.02074e-05,7.41389e-06,2.57659e-05,5.5747e-05,-6.40261e-06,5.5956e-06
369,-1.90005e-05,7.54705e-06,3.48091e-05,6.20392e-05,-4.51985e-06,4.09724e-06
370,3.21981e-06,1.05491e-05,4.17896e-05,6.40667e-05,-4.64311e-06,9.80063e-06
371,6.45058e-06,1.01359e-05,4.21665e-05,6.38089e-05,-5.15775e-06,2.58623e-05
372,3.0606e-06,6.49279e-06,4.39323e-05,6.48886e-05,-2.39296e-06,5.12038e-05
373,1.58694e-06,6.65924e-06,4.58308e-05,6.46796e-05,-2.16352e-06,6.23124e-05
374,6.54187e-06,1.17337e-05,4.55172e-05,5.89902e-05,-7.06905e-06,4.52497e-05
375,3.28384e-06,1.46817e-05,3.99532e-05,5.3951e-05,-1.10753e-05,1.60836e-05
376,-1.45446e-05,1.05914e-05,3.16535e-05,5.5945e-05,-1.05544e-05,-3.79199e-06
377,-2.26553e-05,4.26504e-06,2.99017e-05,5.93772e-05,-7.77507e-06,-2.843e-06
378,-9.02703e-06,2.95708e-06,3.67272e-05,5.94919e-05,-7.20421e-06,8.21587e-06
379,5.684e-06,6.13137e-06,4.42088e-05,5.68966e-05,-9.12984e-06,1.43239e-05
380,1.0127e-05,1.04192e-05,4.74562e-05,5.27e-05,-1.14388e-05,1.50858e-05
381,-3.49052e-07,1.2239e-05,4.41282e-05,4.97812e-05,-1.38696e-05,1.82916e-05
382,-1.91781e-05,1.03801e-05,3.59305e-05,4.88527e-05,-1.80906e-05,2.46693e-05
383,-2.63226e-05,6.76415e-06,3.16801e-05,4.62029e-05,-2.1602e-05,2.905e-05
384,-1.42657e-05,2.75422e-06,3.56336e-05,4.13475e-05,-2.19e-05,3.02083e-05
385,8.96127e-07,3.61034e-07,4.08111e-05,3.72012e-05,-1.9598e-05,2.9954e-05
386,5.1466e-06,2.47581e-06,4.10409e-05,3.46658e-05,-1.6465e-05,2.93466e-05
387,-2.90747e-06,7.392e-06,3.79285e-05,3.40868e-05,-1.25775e-05,2.34245e-05
388,-2.10978e-05,9.7656e-06,3.09776e-05,3.78116e-05,-8.33703e-06,6.5668e-06
389,-3.01654e-05,9.18682e-06,2.6902e-05,4.416e-05,-5.97987e-06,-9.95925e-06
390,-1.55581e-05,9.00349e-06,3.01369e-05,4.51459e-05,-8.44165e-06,-9.09711e-06
391,3.79023e-06,1.172e-05,3.4035e-05,4.09158e-05,-1.33741e-05,6.50617e-06
392,5.31828e-06,1.59726e-05,3.488e-05,3.38049e-05,-1.71311e-05,2.18224e-05
393,-7.32255e-06,1.78872e-05,3.28069e-05,2.82161e-05,-1.909e-05,2.5449e-05
394,-3.02475e-05,1.52107e-05,2.39226e-05,3.30542e-05,-1.76524e-05,1.83719e-05
395,-3.89906e-05,1.12486e-05,1.90661e-05,4.25017e-05,-1.03118e-05,1.18481e-05
396,-1.4858e-05,1.12778e-05,2.80479e-05,4.9147e-05,-9.48641e-07,1.40277e-05
397,6.77954e-06,1.39764e-05,3.45863e-05,5.00482e-05,-1.11268e-06,1.69788e-05
398,1.08748e-05,1.5916e-05,3.47506e-05,4.81566e-05,-7.31984e-06,1.42572e-05
399,1.09983e-05,1.54179e-05,3.76377e-05,4.82054e-05,-1.32207e-05,1.39161e-05
400,8.53246e-06,1.18407e-05,4.19586e-05,4.62429e-05,-1.4739e-05,1.90008e-05
401,9.66161e-06,8.34273e-06,4.518e-05,4.28598e-05,-1.01933e-05,2.39807e-05
402,3.63318e-06,7.87382e-06,4.2155e-05,4.11371e-05,-6.78898e-06,2.18242e-05
403,-1.35434e-05,8.40632e-06,3.35669e-05,4.47576e-05,-2.61063e-06,1.2172e-05
404,-1.93243e-05,9.33457e-06,3.07668e-05,5.14468e-05,3.87544e-06,6.32189e-06
405,-5.97381e-06,1.3551e-05,3.69964e-05,5.64659e-05,4.78985e-06,1.27285e-05
406,7.08464e-06,1.79207e-05,4.07109e-05,5.74337e-05,-2.81204e-06,2.22719e-05
407,1.05629e-05,2.07165e-05,3.87381e-05,5.53168e-05,-1.02909e-05,2.18663e-05
408,1.73928e-06,2.11197e-05,3.41801e-05,5.1856e-05,-1.20029e-05,9.6367e-06
409,-1.28765e-05,1.69972e-05,2.94265e-05,5.20446e-05,-9.79772e-06,-1.36291e-06
410,-1.61003e-05,1.20691e-05,3.04134e-05,5.67688e-05,-6.07409e-06,6.93491e-07
411,-2.63319e-06,9.52959e-06,3.97429e-05,5.9167e-05,-3.90654e-06,1.20407e-05
412,1.24733e-05,9.8498e-06,4.81224e-05,5.50456e-05,-6.1859e-06,1.8645e-05
413,1.60418e-05,1.35847e-05,4.83798e-05,4.82949e-05,-1.1072e-05,1.66407e-05
414,6.48396e-06,1.73749e-05,4.1985e-05,4.67764e-05,-1.3489e-05,1.45343e-05
415,-1.22196e-05,1.71049e-05,3.23265e-05,5.1651e-05,-1.28986e-05,1.52996e-05
416,-2.30165e-05,1.62605e-05,2.88781e-05,5.61775e-05,-9.57075e-06,1.59829e-05
417,-1.29977e-05,1.71917e-05,3.74887e-05,5.46004e-05,-5.80401e-06,1.57627e-05
418,3.35492e-06,1.80397e-05,4.8537e-05,4.99119e-05,-6.4346e-06,1.58369e-05
419,8.58686e-06,1.98142e-05,5.12205e-05,4.54461e-05,-9.62466e-06,1.79677e-05
420,2.31075e-06,2.31683e-05,4.35254e-05,4.29017e-05,-1.20868e-05,2.2915e-05
421,-1.88752e-05,2.10119e-05,2.94863e-05,4.47977e-05,-1.39644e-05,2.05639e-05
422,-3.01766e-05,1.43252e-05,2.32398e-05,5.20401e-05,-1.40029e-05,8.44507e-06
423,-1.19452e-05,1.04686e-05,3.17826e-05,5.57807e-05,-1.12979e-05,7.01397e-07
424,4.86572e-06,9.63806e-06,4.06057e-05,5.07013e-05,-9.31762e-06,-2.83246e-07
425,4.08198e-06,9.37513e-06,4.25956e-05,4.72949e-05,-9.78642e-06,1.59238e-06
426,1.50941e-07,8.96881e-06,4.3947e-05,5.14473e-05,-1.00757e-05,3.08487e-06
427,-3.86264e-06,1.15705e-05,4.34042e-05,5.37416e-05,-1.02549e-05,-5.96309e-07
428,-5.27779e-06,1.91001e-05,4.2248e-05,4.8176e-05,-9.46411e-06,-2.85257e-06
429,-1.23697e-05,2.54794e-05,3.60598e-05,4.17464e-05,-6.1062e-06,7.42469e-06
430,-2.55886e-05,2.44282e-05,2.81944e-05,4.41575e-05,-2.91639e-06,2.64513e-05
431,-2.57075e-05,2.01901e-05,2.65535e-05,5.20665e-05,-3.13973e-06,3.33104e-05
432,-8.47483e-06,1.86238e-05,3.24855e-05,5.82144e-05,-6.16797e-06,2.14855e-05
433,8.14246e-06,2.07788e-05,3.93395e-05,5.76112e-05,-8.73982e-06,8.02404e-06
434,1.19793e-05,2.3076e-05,4.02079e-05,5.17424e-05,-7.94779e-06,9.37664e-06
435,1.92871e-06,2.45006e-05,3.4564e-05,4.65033e-05,-3.50727e-06,1.80583e-05
436,-1.43295e-05,2.46759e-05,2.60351e-05,4.75605e-05,4.4881e-07,1.97902e-05
437,-1.96625e-05,2.40821e-05,2.46066e-05,5.34268e-05,3.31699e-07,1.54635e-05
438,-7.55342e-06,2.13301e-05,3.44723e-05,5.87633e-05,-3.48811e-06,1.25995e-05
439,7.46076e-06,1.55514e-05,4.69244e-05,6.03962e-05,-9.13434e-06,1.38465e-05
440,1.07974e-05,1.08717e-05,5.03854e-05,5.69777e-05,-1.44589e-05,1.69784e-05
441,1.31468e-06,1.14631e-05,4.4617e-05,5.08534e-05,-1.70188e-05,1.56588e-05
442,-1.49305e-05,1.45507e-05,3.43164e-05,4.79176e-05,-1.57175e-05,4.91983e-06
443,-2.00543e-05,1.34541e-05,3.048e-05,5.3023e-05,-1.23133e-05,-1.02793e-05
444,-6.30862e-06,1.09506e-05,3.74634e-05,6.10807e-05,-1.0085e-05,-2.12082e-05
445,1.06841e-05,1.26131e-05,4.46885e-05,6.55334e-05,-7.01578e-06,-2.19531e-05
446,1.47179e-05,1.49563e-05,4.5616e-05,6.27634e-05,-5.55071e-07,-1.19489e-05
447,4.16732e-06,1.383e-05,4.40427e-05,5.57911e-05,3.81172e-06,3.33771e-06
448,-1.65366e-05,1.10871e-05,3.89176e-05,5.22846e-05,2.68346e-06,1.28156e-05
449,-2.43416e-05,8.25781e-06,3.5642e-05,5.31766e-05,-1.48498e-06,1.63498e-05
450,-3.49507e-06,8.17075e-06,4.05355e-05,5.6171e-05,-6.21007e-06,2.01266e-05
451,1.17255e-05,9.37564e-06,4.49084e-05,5.6151e-05,-1.03005e-05,1.9267e-05
452,6.87571e-06,1.12927e-05,4.53635e-05,5.08995e-05,-1.34858e-05,1.51651e-05
453,2.11211e-06,1.38545e-05,4.66057e-05,4.85964e-05,-1.74175e-05,1.56756e-05
454,-6.26989e-07,1.55675e-05,4.8597e-05,4.81687e-05,-2.24543e-05,1.93206e-05
455,-3.92089e-06,1.72562e-05,4.8342e-05,4.51132e-05,-2.52219e-05,1.96157e-05
456,-1.81088e-05,2.05125e-05,4.21168e-05,4.07149e-05,-2.3926e-05,1.48221e-05
457,-3.67671e-05,2.24071e-05,3.12557e-05,4.19838e-05,-1.83321e-05,9.52193e-06
458,-3.57995e-05,1.97301e-05,2.76918e-05,4.63146e-05,-1.28543e-05,1.02027e-05
459,-1.33925e-05,1.59649e-05,3.47129e-05,4.87465e-05,-1.08583e-05,1.74003e-05
460,8.13669e-06,1.3997e-05,4.30348e-05,4.82518e-05,-9.93599e-06,2.25605e-05
461,1.55507e-05,1.51627e-05,4.54927e-05,4.49054e-05,-1.06207e-05,2.38228e-05
462,5.59269e-06,1.64933e-05,3.946e-05,3.99506e-05,-1.29177e-05,2.07319e-05
463,-1.2743e-05,1.18545e-05,2.83535e-05,3.89572e-05,-1.26849e-05,1.3573e-05
464,-1.74077e-05,4.03451e-06,2.16831e-05,4.37292e-05,-8.09038e-06,7.90819e-06
465,-1.60832e-06,8.49481e-07,2.54128e-05,4.84931e-05,-3.97276e-06,1.05611e-05
466,1.35694e-05,3.30141e-06,3.23259e-05,4.97567e-05,-2.9353e-06,1.78987e-05
467,1.18935e-05,7.47316e-06,3.51572e-05,4.69181e-05,-2.93085e-06,2.21385e-05
468,-3.33946e-06,1.06452e-05,3.31403e-05,4.35033e-05,-4.09622e-06,2.2148e-05
469,-2.31893e-05,1.14158e-05,2.82014e-05,4.43669e-05,-6.72956e-06,2.10161e-05
470,-2.86804e-05,9.94518e-06,2.77799e-05,5.18196e-05,-8.77872e-06,2.05745e-05
471,-1.26673e-05,6.85651e-06,3.73401e-05,5.91392e-05,-1.13648e-05,2.07994e-05
472,5.68467e-06,3.7583e-06,4.81773e-05,6.0273e-05,-1.45076e-05,2.09267e-05
473,1.05396e-05,3.80724e-06,5.11594e-05,5.5931e-05,-1.53398e-05,2.03385e-05
474,4.71285e-06,5.79868e-06,4.71988e-05,5.18167e-05,-1.46229e-05,2.1183e-05
475,-1.42825e-05,3.94734e-06,3.9227e-05,5.16976e-05,-1.15574e-05,1.84152e-05
476,-2.66258e-05,-2.09642e-06,3.49705e-05,5.4716e-05,-4.72867e-06,1.16359e-05
477,-1.1929e-05,-8.40049e-06,3.89291e-05,5.82591e-05,-2.54593e-06,8.94992e-06
478,2.48152e-06,-9.68553e-06,4.3273e-05,6.01474e-05,-8.82496e-06,1.10987e-05
479,3.43712e-06,-3.72105e-06,4.299e-05,5.99074e-05,-1.34807e-05,1.34873e-05
480,2.49768e-06,1.9183e-06,4.264e-05,6.14912e-05,-1.352e-05,1.56052e-05
481,4.75274e-07,3.46578e-06,4.42582e-05,6.04547e-05,-1.28672e-05,1.62412e-05
482,5.41235e-07,4.82137e-06,4.49753e-05,5.49169e-05,-1.24072e-05,1.68653e-05
483,-5.46926e-06,7.77999e-06,3.82927e-05,4.81108e-05,-9.30522e-06,1.72804e-05
484,-1.90497e-05,9.24551e-06,2.67693e-05,4.57175e-05,-3.62123e-06,1.5345e-05
485,-2.15084e-05,9.57002e-06,2.45216e-05,4.73955e-05,8.85075e-07,1.35155e-05
486,-7.54029e-06,9.70547e-06,3.32193e-05,4.90952e-05,2.19857e-06,1.62049e-05
487,6.50703e-06,1.00527e-05,3.91065e-05,4.97057e-05,9.91105e-07,2.13154e-05
488,1.15837e-05,1.22992e-05,3.88099e-05,4.79156e-05,-7.23714e-07,2.47199e-05
489,3.5896e-06,1.7396e-05,3.3811e-05,4.50107e-05,-1.7042e-06,2.32117e-05
490,-1.31193e-05,1.90809e-05,2.60069e-05,4.4478e-05,-1.85255e-06,1.83579e-05
491,-1.94197e-05,1.38965e-05,2.37686e-05,4.85341e-05,-1.83649e-06,1.54658e-05
492,-6.61274e-06,8.75774e-06,2.99933e-05,5.29459e-05,-4.16875e-06,1.55755e-05
493,9.463e-06,9.5251e-06,3.69137e-05,5.50266e-05,-9.6947e-06,1.71852e-05
494,1.2871e-05,1.39062e-05,3.78451e-05,5.37596e-05,-1.40907e-05,2.11369e-05
495,9.96807e-07,1.7139e-05,3.21756e-05,5.18431e-05,-1.57543e-05,2.38854e-05
496,-1.97638e-05,1.64433e-05,2.18047e-05,5.19162e-05,-1.63373e-05,1.98593e-05
497,-2.72923e-05,1.49067e-05,1.68096e-05,5.41916e-05,-1.69569e-05,1.46264e-05
498,-1.06531e-05,1.6594e-05,2.45512e-05,5.57753e-05,-1.9107e-05,1.54019e-05
499,9.28445e-06,1.72587e-05,3.64671e-05,5.59982e-05,-2.12818e-05,2.07631e-05
500,1.39207e-05,1.76693e-05,4.07915e-05,5.51035e-05,-1.89795e-05,2.31087e-05
501,5.04782e-06,1.83132e-05,3.59969e-05,5.22631e-05,-1.86572e-05,2.02024e-05
502,-1.75852e-05,1.79137e-05,2.48464e-05,5.0973e-05,-2.46264e-05,1.42103e-05
503,-3.47769e-05,1.72705e-05,1.88028e-05,5.52369e-05,-2.53097e-05,1.05455e-05
504,-2.43937e-05,1.47441e-05,2.65064e-05,5.93825e-05,-1.56532e-05,1.26982e-05
505,-1.01385e-05,8.29563e-06,3.2666e-05,5.69135e-05,-9.53952e-06,1.62916e-05
506,-7.43334e-06,3.80472e-06,3.31524e-05,5.24782e-05,-1.22072e-05,1.71102e-05
507,-3.91932e-06,3.99356e-06,3.69586e-05,5.16487e-05,-1.52984e-05,1.87868e-05
508,-2.58511e-06,6.75186e-06,4.01812e-05,5.45179e-05,-1.5094e-05,2.49328e-05
509,-3.11718e-06,1.19263e-05,3.99221e-05,5.66648e-05,-1.12667e-05,2.91917e-05
510,-1.32451e-05,1.5412e-05,3.4844e-05,5.39896e-05,-7.70313e-06,2.41382e-05
511,-2.93681e-05,1.35426e-05,2.8933e-05,5.11445e-05,-5.93953e-06,1.63497e-05
512,-2.67453e-05,9.21689e-06,3.0266e-05,5.21138e-05,-3.77969e-06,1.41164e-05
513,-6.8565e-06,9.20809e-06,3.83694e-05,5.56309e-05,-1.47823e-06,1.59706e-05
514,6.02511e-06,1.32431e-05,4.56853e-05,5.49602e-05,-2.62432e-06,1.45982e-05
515,5.13393e-06,1.70318e-05,4.53401e-05,4.97217e-05,-4.79587e-06,9.69092e-06
516,-5.3005e-06,1.70341e-05,3.52328e-05,4.78053e-05,-4.98958e-06,8.1521e-06
517,-2.04593e-05,1.32911e-05,2.41939e-05,5.18482e-05,-2.68984e-06,1.35602e-05
518,-2.5458e-05,1.05021e-05,2.40288e-05,5.58088e-05,3.5423e-07,2.31635e-05
519,-1.53325e-05,1.13451e-05,3.54772e-05,5.65444e-05,2.31275e-06,2.54745e-05
520,-3.64703e-06,1.38352e-05,4.49044e-05,5.78185e-05,2.06502e-06,1.31929e-05
521,5.25714e-08,1.60016e-05,4.51119e-05,5.79024e-05,-7.74501e-08,-2.069e-06
522,-3.16661e-06,1.72123e-05,4.01698e-05,5.51177e-05,-2.30125e-06,-4.71946e-06
523,-1.40793e-05,1.40685e-05,3.42495e-05,5.38061e-05,-4.73205e-06,3.0148e-06
524,-2.13621e-05,7.736e-06,3.38376e-05,5.64996e-05,-8.27841e-06,1.295e-05
525,-1.29306e-05,4.31406e-06,4.0842e-05,6.02723e-05,-1.24246e-05,1.97095e-05
526,-4.08328e-07,6.10303e-06,4.64455e-05,6.10145e-05,-1.58885e-05,2.24504e-05
527,3.10913e-06,1.20694e-05,4.61204e-05,5.44563e-05,-1.84819e-05,2.43365e-05
528,-3.19988e-06,1.87251e-05,4.1324e-05,4.38055e-05,-1.87498e-05,2.18706e-05
529,-2.27411e-05,1.91792e-05,3.29971e-05,3.86062e-05,-1.64116e-05,8.45709e-06
530,-3.41138e-05,1.4843e-05,3.34368e-05,4.15266e-05,-1.16106e-05,-7.33537e-06
531,-1.53597e-05,1.29633e-05,4.46407e-05,4.58731e-05,-8.14044e-06,-1.05814e-05
532,2.75127e-06,1.57138e-05,4.99051e-05,4.7854e-05,-8.41903e-06,-3.84978e-06
533,5.28653e-06,1.8253e-05,4.90323e-05,4.7052e-05,-8.81074e-06,5.2512e-06
534,4.70575e-06,1.40935e-05,4.75513e-05,4.56037e-05,-4.21995e-06,1.57045e-05
535,1.81394e-06,8.83932e-06,4.30608e-05,4.47606e-05,1.45336e-06,2.63289e-05
536,-7.1327e-07,9.67339e-06,4.02957e-05,4.39159e-05,4.0114e-06,2.94996e-05
537,-1.38212e-05,1.4568e-05,3.46891e-05,4.18173e-05,4.65043e-06,2.13176e-05
538,-3.32977e-05,1.63844e-05,2.50715e-05,4.1042e-05,6.11349e-06,4.78429e-06
539,-3.18779e-05,1.52559e-05,2.17756e-05,4.16603e-05,5.30601e-06,-7.00282e-06
540,-7.89613e-06,1.55119e-05,2.87952e-05,4.09252e-05,-7.76745e-07,-4.18786e-06
541,1.13565e-05,1.69139e-05,3.68691e-05,3.89118e-05,-7.67811e-06,3.22686e-06
542,1.20184e-05,1.90993e-05,3.85183e-05,3.53204e-05,-1.11167e-05,1.03637e-05
543,-3.88043e-06,1.81237e-05,3.24681e-05,3.33223e-05,-1.18578e-05,1.55183e-05
544,-2.36169e-05,1.16805e-05,2.23015e-05,3.6914e-05,-1.13105e-05,1.47354e-05
545,-2.80768e-05,7.04697e-06,1.85413e-05,4.48034e-05,-1.09751e-05,1.02023e-05
546,-1.24282e-05,7.90914e-06,2.62456e-05,5.18893e-05,-1.28743e-05,9.51297e-06
547,4.82826e-06,1.0858e-05,3.65971e-05,5.45966e-05,-1.54174e-05,1.15783e-05
548,6.86907e-06,1.43207e-05,4.0812e-05,5.27449e-05,-1.57325e-05,1.15858e-05
549,-4.37397e-06,1.64318e-05,3.76835e-05,5.06385e-05,-1.3188e-05,9.5162e-06
550,-2.07545e-05,1.17503e-05,2.9898e-05,5.22593e-05,-9.17292e-06,7.25367e-06
551,-2.45635e-05,3.75839e-06,2.70429e-05,5.69304e-05,-4.28045e-06,8.75259e-06
552,-7.33896e-06,3.29784e-06,3.44175e-05,5.97716e-05,-2.39499e-06,1.48088e-05
553,1.13306e-05,7.88041e-06,4.41278e-05,5.93123e-05,-5.23778e-06,2.12968e-05
554,1.57033e-05,8.77118e-06,4.34795e-05,5.69306e-05,-8.96872e-06,2.48627e-05
555,8.46921e-06,5.90387e-06,3.34271e-05,5.43268e-05,-1.09053e-05,2.5297e-05
556,-1.00576e-05,5.12055e-06,2.29815e-05,5.5391e-05,-1.09023e-05,2.27015e-05
557,-2.14396e-05,8.07677e-06,2.16655e-05,5.82821e-05,-5.82703e-06,2.16621e-05
558,-6.59019e-06,1.3728e-05,3.18306e-05,5.91753e-05,1.76982e-06,2.40739e-05
559,9.25879e-06,1.66794e-05,4.18188e-05,5.69997e-05,6.01111e-06,2.29199e-05
560,9.12566e-06,1.2878e-05,4.54904e-05,5.25914e-05,3.82913e-06,2.1524e-05
561,8.0913e-06,9.48047e-06,4.57658e-05,5.18341e-05,-3.09396e-06,2.25109e-05
562,8.86162e-06,9.2365e-06,4.5601e-05,5.24801e-05,-1.0533e-05,1.82643e-05
563,9.44572e-06,1.07135e-05,4.61212e-05,4.95796e-05,-1.52873e-05,1.19477e-05
564,1.22797e-06,1.14102e-05,4.16445e-05,4.62274e-05,-1.75874e-05,9.54903e-06
565,-1.46233e-05,8.35809e-06,3.38724e-05,4.7599e-05,-1.98414e-05,1.14178e-05
566,-2.07255e-05,5.09193e-06,3.30618e-05,5.11954e-05,-1.98804e-05,1.4743e-05
567,-9.83571e-06,4.45307e-06,4.06592e-05,5.47398e-05,-1.58591e-05,1.96475e-05
568,4.97891e-06,5.87349e-06,4.63639e-05,5.55095e-05,-1.01296e-05,2.17151e-05
569,1.04723e-05,9.1317e-06,4.77385e-05,5.06994e-05,-6.10532e-06,1.85656e-05
570,7.20154e-07,1.1487e-05,4.44231e-05,4.26808e-05,-6.42969e-06,1.33411e-05
571,-1.74634e-05,7.73624e-06,3.67117e-05,3.83404e-05,-9.58211e-06,1.26298e-05
572,-2.42492e-05,1.20323e-06,3.3463e-05,4.24459e-05,-1.1051e-05,1.91854e-05
573,-1.30287e-05,-1.25057e-07,3.95312e-05,4.98142e-05,-9.38084e-06,2.43903e-05
574,7.45204e-07,5.16939e-06,4.78298e-05,5.48995e-05,-7.3146e-06,2.24495e-05
575,4.00364e-06,1.11984e-05,5.00864e-05,5.71585e-05,-7.62941e-06,1.88686e-05
576,-3.56502e-06,1.38851e-05,4.4419e-05,5.88374e-05,-1.0243e-05,1.82631e-05
577,-2.14566e-05,1.22447e-05,3.50249e-05,6.21959e-05,-1.20964e-05,1.66442e-05
578,-3.24841e-05,9.3126e-06,3.40829e-05,6.67973e-05,-1.03697e-05,1.26195e-05
579,-2.01826e-05,8.40997e-06,4.38455e-05,6.65473e-05,-7.94219e-06,1.03184e-05
580,1.35417e-06,1.05632e-05,5.1959e-05,6.31922e-05,-7.61296e-06,8.50887e-06
581,9.77615e-06,1.54501e-05,4.95675e-05,6.02691e-05,-7.34937e-06,1.47295e-06
582,-2.78674e-07,1.77663e-05,4.01667e-05,5.55712e-05,-4.36147e-06,-4.11087e-06
583,-2.60206e-05,1.47683e-05,2.99066e-05,5.23501e-05,-1.09799e-06,-4.36335e-06
584,-3.84609e-05,1.10462e-05,2.64672e-05,5.52048e-05,-1.51319e-06,-2.12713e-06
585,-1.80469e-05,1.37143e-05,3.52184e-05,5.75865e-05,-3.11019e-06,4.25349e-06
586,-1.63564e-06,1.72727e-05,4.13863e-05,5.33167e-05,-1.96538e-06,7.72372e-06
587,-2.02173e-06,1.56984e-05,3.87908e-05,4.66947e-05,5.03086e-07,7.65579e-06
588,-9.91133e-07,1.32471e-05,3.80967e-05,4.46202e-05,-7.22038e-07,1.12326e-05
589,1.37915e-06,1.36366e-05,3.98639e-05,4.33546e-05,-6.20728e-06,1.4122e-05
590,1.45315e-06,1.56623e-05,4.14127e-05,3.6197e-05,-1.07646e-05,1.62407e-05
591,-1.28918e-05,1.85521e-05,3.65287e-05,2.76083e-05,-1.01305e-05,1.54448e-05
592,-3.47607e-05,2.08081e-05,3.01269e-05,2.588e-05,-5.23652e-06,8.6544e-06
593,-3.81554e-05,1.78464e-05,3.14726e-05,2.88433e-05,-4.30248e-06,5.81519e-07
594,-1.80871e-05,1.24114e-05,3.90452e-05,3.05986e-05,-9.70818e-06,-4.41542e-07
595,1.59714e-06,1.09038e-05,4.51722e-05,2.97487e-05,-1.52375e-05,1.50039e-05
596,6.36341e-06,1.74082e-05,4.71577e-05,2.6768e-05,-1.56714e-05,4.44111e-05
597,-5.53508e-06,2.44864e-05,4.25705e-05,2.68548e-05,-1.11728e-05,5.7991e-05
598,-2.51006e-05,2.19229e-05,3.5298e-05,3.29264e-05,-5.60267e-06,3.57775e-05
599,-3.05583e-05,1.30099e-05,3.56827e-05,4.21764e-05,-3.32786e-06,5.62901e-06
600,-1.54122e-05,7.04281e-06,4.30633e-05,4.79565e-05,-6.44959e-06,1.39257e-06
601,1.4496e-06,7.81589e-06,4.81865e-05,4.81502e-05,-1.36289e-05,1.89644e-05
602,4.89189e-06,1.24986e-05,4.76228e-05,4.44859e-05,-1.95868e-05,3.5192e-05
603,-4.12382e-06,1.43446e-05,4.1412e-05,4.15314e-05,-2.00747e-05,3.76689e-05
604,-2.09782e-05,1.0369e-05,2.93689e-05,4.46059e-05,-1.68862e-05,2.38903e-05
605,-2.66196e-05,5.14051e-06,2.56555e-05,5.18323e-05,-1.3978e-05,-1.56748e-07
606,-1.09797e-05,4.52794e-06,3.74091e-05,5.5489e-05,-1.23668e-05,-1.63724e-05
607,7.42501e-06,1.06708e-05,4.93941e-05,5.29043e-05,-1.05746e-05,-1.1527e-05
608,1.23404e-05,1.80884e-05,4.89301e-05,4.83416e-05,-9.34369e-06,2.69071e-06
609,2.33628e-06,1.9421e-05,4.03286e-05,4.58695e-05,-1.07966e-05,9.55974e-06
610,-2.07701e-05,1.10352e-05,3.16258e-05,5.09365e-05,-1.22952e-05,8.71683e-06
611,-3.02146e-05,-1.25456e-06,2.87326e-05,6.14528e-05,-1.15902e-05,7.39161e-06
612,-9.36565e-06,-6.91457e-06,3.37698e-05,6.61055e-05,-1.0485e-05,1.07556e-05
613,1.00423e-05,-3.8479e-06,3.62012e-05,6.34033e-05,-9.96142e-06,1.3097e-05
614,1.28584e-05,6.83812e-07,3.4704e-05,6.23773e-05,-1.25596e-05,1.04453e-05
615,1.24284e-05,3.06454e-06,3.58747e-05,6.548e-05,-1.30289e-05,8.40365e-06
616,1.25766e-05,6.30084e-06,3.48928e-05,6.63748e-05,-7.02019e-06,4.23898e-06
617,1.38138e-05,1.04097e-05,3.31666e-05,6.2793e-05,5.1868e-07,1.05147e-06
618,4.04637e-06,1.08574e-05,2.77937e-05,5.99325e-05,-1.06216e-06,2.80299e-07
619,-1.42381e-05,8.13972e-06,2.29448e-05,6.16519e-05,-1.24055e-05,1.35864e-06
620,-1.82748e-05,5.7231e-06,2.834e-05,6.4284e-05,-2.07845e-05,3.98655e-06
621,-3.3143e-06,3.83657e-06,4.00238e-05,6.45444e-05,-2.12046e-05,6.28222e-06
622,1.21824e-05,2.66228e-06,4.39286e-05,6.15058e-05,-1.83162e-05,6.13141e-06
623,1.60394e-05,5.03278e-06,3.9906e-05,5.44356e-05,-1.68639e-05,4.11661e-06
624,5.4682e-06,9.28156e-06,3.38829e-05,4.717e-05,-1.64476e-05,3.7653e-06
625,-1.1418e-05,1.1124e-05,2.83015e-05,4.51494e-05,-1.64717e-05,4.41032e-06
626,-1.53836e-05,1.19017e-05,2.8622e-05,4.75974e-05,-1.52996e-05,7.30442e-06
627,8.75028e-07,1.32999e-05,3.69626e-05,5.11726e-05,-1.35009e-05,1.21414e-05
628,2.00487e-05,1.46401e-05,4.62029e-05,5.28298e-05,-1.39218e-05,1.3254e-05
629,2.44288e-05,1.4534e-05,4.62601e-05,4.93318e-05,-1.60459e-05,7.76233e-06
630,1.1298e-05,1.50494e-05,3.72499e-05,4.4564e-05,-1.66508e-05,2.71319e-06
631,-1.21311e-05,1.6735e-05,2.57013e-05,4.53542e-05,-1.37699e-05,1.58968e-06
632,-2.22428e-05,1.71546e-05,2.40657e-05,5.11561e-05,-7.50853e-06,3.75185e-06
633,-6.87883e-06,1.62296e-05,3.44785e-05,5.49246e-05,-1.52731e-06,7.51e-06
634,1.28557e-05,1.70174e-05,4.46036e-05,5.3162e-05,-2.22216e-06,1.10177e-05
635,1.70062e-05,1.98761e-05,4.48476e-05,4.79273e-05,-6.01213e-06,1.13927e-05
636,7.44114e-06,2.12923e-05,3.81173e-05,4.45929e-05,-5.28855e-06,8.41334e-06
637,-1.61405e-05,1.63124e-05,2.71953e-05,4.91658e-05,-2.59853e-06,5.37223e-06
638,-2.99849e-05,9.44332e-06,2.06161e-05,5.704e-05,-4.28929e-06,5.64469e-06
639,-1.10412e-05,9.16453e-06,2.83607e-05,5.83972e-05,-9.67147e-06,1.25115e-05
640,7.06782e-06,1.35428e-05,3.72487e-05,5.36178e-05,-1.28401e-05,2.06609e-05
641,7.66051e-06,1.83248e-05,3.57056e-05,4.99211e-05,-1.51578e-05,2.22456e-05
642,7.85507e-06,1.73393e-05,3.33232e-05,5.15779e-05,-1.77015e-05,2.18986e-05
643,8.15525e-06,1.3145e-05,3.49631e-05,5.25341e-05,-1.87974e-05,2.38658e-05
644,7.14296e-06,1.38589e-05,3.97653e-05,4.82413e-05,-1.801e-05,2.48207e-05
645,-3.58158e-06,1.6534e-05,3.8147e-05,4.30074e-05,-1.5241e-05,1.72677e-05
646,-1.89153e-05,1.73364e-05,2.98502e-05,4.20343e-05,-1.14638e-05,3.79089e-06
647,-2.03222e-05,1.62958e-05,2.75027e-05,4.45861e-05,-6.20762e-06,-1.35271e-06
648,-7.29819e-06,1.44312e-05,3.37888e-05,4.64589e-05,-2.8841e-06,1.09403e-05
649,3.0882e-06,1.30818e-05,3.895e-05,4.60361e-05,-2.54806e-06,3.28234e-05
650,4.56366e-06,1.39124e-05,3.77301e-05,4.51472e-05,-5.58781e-06,4.42884e-05
651,-5.91182e-06,1.45708e-05,3.06771e-05,4.64051e-05,-1.21694e-05,3.58934e-05
652,-2.48481e-05,1.18312e-05,2.04866e-05,5.09181e-05,-1.75856e-05,1.75263e-05
653,-3.13818e-05,7.65899e-06,1.78792e-05,5.5177e-05,-1.71653e-05,5.77039e-06
654,-1.68171e-05,5.04661e-06,2.64875e-05,5.6579e-05,-1.15421e-05,9.0302e-06
655,1.46217e-06,5.60813e-06,3.63617e-05,5.64581e-05,-6.07589e-06,2.14227e-05
656,8.0236e-06,1.09106e-05,3.81947e-05,5.48996e-05,-4.53508e-06,3.0574e-05
657,1.55833e-06,1.8097e-05,3.34302e-05,5.22384e-05,-5.44527e-06,3.375e-05
658,-1.4601e-05,2.00997e-05,2.70851e-05,5.17385e-05,-4.8359e-06,3.24361e-05
659,-2.16789e-05,1.75795e-05,2.75018e-05,5.61774e-05,-3.58096e-06,2.68095e-05
660,-7.92374e-06,1.54391e-05,3.71969e-05,6.17226e-05,-4.44368e-06,2.09877e-05
661,8.67195e-06,1.28679e-05,4.73973e-05,6.39651e-05,-6.74784e-06,1.78242e-05
662,1.29981e-05,1.02003e-05,4.90913e-05,6.03108e-05,-1.00915e-05,1.52724e-05
663,4.2013e-06,7.74776e-06,4.24572e-05,5.45142e-05,-1.42802e-05,1.09017e-05
664,-1.87675e-05,1.95589e-06,3.23864e-05,5.42294e-05,-1.67766e-05,3.06367e-06
665,-3.19664e-05,-1.93201e-06,2.90532e-05,5.92247e-05,-1.45482e-05,-7.91307e-07
666,-1.55247e-05,-6.12763e-07,3.57915e-05,6.56997e-05,-9.62511e-06,8.07521e-06
667,3.58699e-06,2.58625e-06,3.94167e-05,6.82267e-05,-5.53651e-06,2.00316e-05
668,4.92717e-06,5.13799e-06,3.76415e-05,6.40193e-05,-3.37142e-06,2.17269e-05
669,2.35319e-06,4.82402e-06,3.91035e-05,5.99071e-05,-1.20641e-06,2.10008e-05
670,2.48848e-06,5.93327e-06,4.27306e-05,6.02119e-05,1.53231e-06,2.61059e-05
671,3.31399e-06,1.13658e-05,4.54542e-05,6.01952e-05,2.03714e-06,3.07526e-05
672,-8.31122e-06,1.57736e-05,4.25612e-05,5.85744e-05,-3.29286e-07,2.87621e-05
673,-2.68458e-05,1.62603e-05,3.48432e-05,5.75371e-05,-5.45179e-06,2.43819e-05
674,-2.62215e-05,1.36898e-05,3.12547e-05,5.53693e-05,-1.00982e-05,2.22077e-05
675,-5.552e-06,1.00204e-05,3.57038e-05,5.28252e-05,-1.26886e-05,2.24708e-05
676,9.21012e-06,1.02331e-05,4.1031e-05,4.98416e-05,-1.23065e-05,2.53196e-05
677,8.57692e-06,1.51902e-05,4.29474e-05,4.68546e-05,-1.02596e-05,2.82556e-05
678,-4.21083e-06,1.78785e-05,4.08888e-05,4.58312e-05,-8.81379e-06,2.68874e-05
679,-2.31969e-05,1.40684e-05,3.73822e-05,4.87362e-05,-7.43079e-06,2.2688e-05
680,-3.14204e-05,1.00859e-05,3.83927e-05,5.19135e-05,-4.54512e-06,1.96482e-05
681,-2.01859e-05,1.13976e-05,4.4358e-05,5.35055e-05,-2.56193e-06,1.92368e-05
682,-3.81488e-06,1.57606e-05,4.77532e-05,5.67603e-05,-5.29108e-06,2.19118e-05
683,2.91569e-06,1.8469e-05,4.58349e-05,5.96903e-05,-1.03982e-05,2.46011e-05
684,-3.1117e-06,1.8279e-05,4.18919e-05,5.70004e-05,-1.31389e-05,2.29704e-05
685,-2.12557e-05,1.60731e-05,3.5142e-05,5.15329e-05,-1.18053e-05,1.43797e-05
686,-3.19421e-05,1.13558e-05,3.23877e-05,5.00944e-05,-9.2838e-06,4.05629e-06
687,-2.00911e-05,6.93644e-06,3.88465e-05,5.21155e-05,-7.71442e-06,2.63205e-07
688,-2.58179e-06,5.99734e-06,4.46362e-05,5.39436e-05,-7.55342e-06,2.5804e-06
689,2.04662e-06,1.00711e-05,4.25708e-05,5.20044e-05,-7.04975e-06,4.47154e-06
690,-5.15032e-06,1.74318e-05,3.62553e-05,4.88259e-05,-5.31853e-06,3.30807e-06
691,-2.39061e-05,1.84313e-05,2.83001e-05,4.83792e-05,-1.14576e-06,-1.6649e-06
692,-3.30346e-05,1.36825e-05,2.7141e-05,4.83057e-05,2.95417e-06,-5.73603e-06
693,-1.86498e-05,1.04283e-05,3.47642e-05,4.90349e-05,5.58379e-06,-3.07638e-06
694,-6.1417e-06,1.00844e-05,3.85885e-05,5.06064e-05,3.39643e-06,4.98666e-06
695,-4.30633e-06,1.05337e-05,3.78958e-05,5.22865e-05,-7.22844e-06,1.51763e-05
696,-2.15952e-06,1.05054e-05,3.85392e-05,5.50686e-05,-1.60149e-05,2.13047e-05
697,-8.46408e-07,1.16426e-05,3.82838e-05,5.45792e-05,-1.63258e-05,2.06896e-05
698,6.89945e-07,1.39354e-05,3.93009e-05,5.00671e-05,-1.44529e-05,1.65978e-05
699,-9.33662e-06,1.49211e-05,3.6624e-05,4.42529e-05,-1.49736e-05,1.28363e-05
700,-2.69533e-05,1.15357e-05,2.8019e-05,4.39746e-05,-1.72631e-05,1.29847e-05
701,-2.79898e-05,6.51161e-06,2.62879e-05,4.70424e-05,-1.93933e-05,1.43177e-05
702,-1.20239e-05,2.36083e-06,3.46958e-05,4.87843e-05,-1.74899e-05,1.28536e-05
703,3.3524e-06,1.62597e-06,4.14842e-05,4.72472e-05,-1.36324e-05,9.45472e-06
704,7.65628e-06,6.81956e-06,4.30439e-05,4.31389e-05,-1.23526e-05,8.25021e-06
705,-4.20009e-06,1.38372e-05,3.95907e-05,4.02912e-05,-1.35074e-05,7.7964e-06
706,-2.54146e-05,1.41173e-05,3.33669e-05,4.21568e-05,-1.19602e-05,6.93367e-06
707,-3.14821e-05,1.02014e-05,3.32005e-05,4.72004e-05,-8.20536e-06,8.26806e-06
708,-1.46479e-05,8.54093e-06,4.04065e-05,4.9676e-05,-8.61417e-06,1.31666e-05
709,4.58583e-06,9.44828e-06,4.52417e-05,4.83997e-05,-1.34637e-05,1.87819e-05
710,8.97377e-06,1.12578e-05,4.3008e-05,4.36764e-05,-1.49624e-05,2.17388e-05
711,3.23939e-07,1.37833e-05,3.78863e-05,4.01344e-05,-9.41497e-06,2.1215e-05
712,-1.49219e-05,1.52585e-05,3.24058e-05,4.35457e-05,-2.19964e-06,1.68874e-05
713,-2.06843e-05,1.44879e-05,3.10853e-05,5.25831e-05,2.25991e-06,9.61729e-06
714,-8.32576e-06,1.19714e-05,3.6799e-05,5.82839e-05,3.34385e-06,6.01085e-06
715,6.76388e-06,9.89388e-06,4.38093e-05,5.71746e-05,1.36968e-06,9.91066e-06
716,9.69868e-06,1.50545e-05,4.59282e-05,5.19119e-05,-2.77798e-06,1.42865e-05
717,3.12255e-06,2.27687e-05,4.47114e-05,4.80073e-05,-6.16228e-06,1.56927e-05
718,-1.49236e-05,2.08067e-05,3.89935e-05,4.90754e-05,-8.71524e-06,1.09029e-05
719,-2.65129e-05,1.38246e-05,3.751e-05,5.54061e-05,-1.13086e-05,4.86579e-06
720,-7.66484e-06,9.12984e-06,4.68867e-05,6.14975e-05,-1.20005e-05,5.99746e-06
721,1.12649e-05,6.48381e-06,5.00908e-05,6.26561e-05,-1.36323e-05,1.04923e-05
722,1.1811e-05,9.61147e-06,4.53926e-05,6.21146e-05,-1.76758e-05,1.28766e-05
723,9.95484e-06,1.40636e-05,4.14301e-05,6.40547e-05,-1.87174e-05,1.32291e-05
724,9.74382e-06,1.53982e-05,3.72187e-05,6.3369e-05,-1.46124e-05,1.38506e-05
725,1.01794e-05,1.72856e-05,3.53348e-05,5.45053e-05,-9.71836e-06,1.58347e-05
726,1.01123e-06,2.16204e-05,3.10666e-05,4.49766e-05,-1.0115e-05,1.61616e-05
727,-1.54665e-05,2.23708e-05,2.29538e-05,4.46201e-05,-1.37339e-05,1.62914e-05
728,-1.80634e-05,1.99087e-05,2.116e-05,4.93317e-05,-1.61355e-05,2.15925e-05
729,-1.3371e-06,1.65762e-05,2.93686e-05,5.10662e-05,-1.61736e-05,3.03001e-05
730,1.45798e-05,1.58506e-05,3.71307e-05,5.01905e-05,-1.53312e-05,3.39355e-05
731,1.68447e-05,1.84927e-05,3.94533e-05,4.81879e-05,-1.20823e-05,3.05794e-05
732,5.06011e-06,1.99529e-05,3.48424e-05,4.72346e-05,-8.36848e-06,2.46372e-05
733,-1.24974e-05,1.69366e-05,2.77853e-05,5.14953e-05,-4.35569e-06,1.69651e-05
734,-1.86085e-05,1.06108e-05,2.93259e-05,5.81222e-05,-7.03075e-07,9.17905e-06
735,-6.8448e-06,5.54669e-06,3.92635e-05,5.93919e-05,-1.07568e-07,5.25541e-06
736,5.88416e-06,5.39494e-06,4.48969e-05,5.48811e-05,-4.65907e-06,5.75814e-06
737,5.91053e-06,1.02777e-05,4.26404e-05,4.97513e-05,-1.25956e-05,9.21996e-06
738,-2.96272e-06,1.3828e-05,3.6422e-05,4.8386e-05,-1.76294e-05,1.20309e-05
739,-1.46712e-05,1.1904e-05,2.72032e-05,5.09286e-05,-1.80014e-05,8.3518e-06
740,-1.70168e-05,9.15988e-06,2.29495e-05,5.38051e-05,-1.47872e-05,1.21636e-06
741,-5.32535e-06,9.93222e-06,2.87736e-05,5.32852e-05,-1.14705e-05,4.19865e-07
742,6.46073e-06,9.91778e-06,3.80229e-05,5.1228e-05,-9.04772e-06,5.88914e-06
743,7.49708e-06,1.18953e-05,4.1315e-05,5.10125e-05,-7.05251e-06,1.11041e-05
744,-1.31808e-06,1.72029e-05,3.60561e-05,5.19403e-05,-6.71469e-06,1.20702e-05
745,-2.21081e-05,1.89717e-05,2.48603e-05,5.30358e-05,-8.94329e-06,9.26516e-06
746,-3.39598e-05,1.73624e-05,2.09083e-05,5.34471e-05,-7.58801e-06,9.54038e-06
747,-1.76443e-05,1.29805e-05,2.98911e-05,5.09743e-05,-2.03863e-06,1.6796e-05
748,-2.12925e-06,3.36106e-06,3.83729e-05,4.89213e-05,-3.66269e-06,2.00156e-05
749,-3.10641e-06,-2.70755e-06,4.02501e-05,5.00613e-05,-1.10326e-05,1.90187e-05
750,-5.56162e-06,-1.04336e-06,4.07139e-05,5.19708e-05,-1.29295e-05,2.37932e-05
751,-4.62457e-06,4.79925e-06,3.95373e-05,5.13168e-05,-9.13282e-06,2.61549e-05
752,-2.27825e-06,1.09275e-05,3.68794e-05,4.49258e-05,-6.24472e-06,2.11233e-05
753,-9.13633e-06,1.14805e-05,3.05196e-05,3.90513e-05,-1.17563e-05,1.64026e-05
754,-2.33843e-05,4.97464e-06,2.11722e-05,4.29092e-05,-1.92789e-05,2.09341e-05
755,-2.50311e-05,-4.99615e-08,1.93559e-05,5.19524e-05,-2.00529e-05,2.54332e-05
756,-1.13858e-05,8.29665e-07,2.87443e-05,5.83739e-05,-1.4952e-05,1.88537e-05
757,2.4268e-08,5.71947e-06,3.79712e-05,5.90891e-05,-1.08794e-05,5.44444e-06
758,2.45093e-06,1.25637e-05,4.04377e-05,5.28554e-05,-7.10727e-06,-1.97055e-06
759,-4.51809e-06,1.75116e-05,3.58488e-05,4.58308e-05,-3.30873e-06,-4.93176e-06
760,-1.6081e-05,1.67317e-05,2.87028e-05,4.54173e-05,-2.38238e-06,-8.2447e-06
761,-1.84546e-05,1.26756e-05,2.79612e-05,5.08743e-05,-4.93938e-06,-5.65142e-06
762,-6.78972e-06,8.8175e-06,3.57087e-05,5.56899e-05,-7.19158e-06,6.86619e-06
763,5.85931e-06,7.63034e-06,4.38423e-05,5.59155e-05,-7.23851e-06,2.36705e-05
764,7.43975e-06,1.1174e-05,4.55187e-05,5.20172e-05,-6.30401e-06,2.91784e-05
765,-7.57296e-06,1.51532e-05,3.96077e-05,4.82816e-05,-5.07293e-06,1.75008e-05
766,-3.23761e-05,1.35559e-05,2.89458e-05,4.86676e-05,-6.0815e-06,2.57931e-06
767,-3.93435e-05,1.008e-05,2.47312e-05,5.19286e-05,-1.10759e-05,3.36623e-06
768,-1.85938e-05,1.1869e-05,3.22885e-05,5.47871e-05,-1.83834e-05,1.71097e-05
769,3.45937e-06,1.68639e-05,4.24535e-05,5.46208e-05,-2.12566e-05,2.87557e-05
770,6.89534e-06,1.84247e-05,4.78355e-05,4.93465e-05,-1.97596e-05,2.63327e-05
771,-3.44336e-06,1.54922e-05,4.66395e-05,4.0444e-05,-1.78423e-05,1.35713e-05
772,-2.4283e-05,1.35498e-05,3.77962e-05,3.63079e-05,-1.70671e-05,1.71889e-06
773,-3.51511e-05,1.45351e-05,3.31417e-05,4.08239e-05,-1.54169e-05,-3.15567e-07
774,-1.72705e-05,1.76199e-05,4.12779e-05,4.5781e-05,-1.4193e-05,9.78153e-06
775,2.84862e-06,1.40195e-05,4.76008e-05,4.5543e-05,-1.25205e-05,1.83978e-05
776,8.15623e-06,7.21361e-06,4.41524e-05,4.50953e-05,-1.29485e-05,2.00392e-05
777,1.06559e-05,5.45234e-06,4.26849e-05,4.79281e-05,-1.41293e-05,1.66761e-05
778,1.39398e-05,7.8067e-06,4.42667e-05,4.9376e-05,-1.3982e-05,6.00197e-06
779,1.41397e-05,1.03625e-05,4.62769e-05,4.35227e-05,-1.43522e-05,1.16982e-06
780,2.2006e-06,1.08056e-05,4.38445e-05,3.56942e-05,-1.31371e-05,8.14895e-06
781,-1.66722e-05,9.01446e-06,3.90825e-05,3.63875e-05,-1.00164e-05,2.48634e-05
782,-1.96938e-05,7.65715e-06,4.03629e-05,4.33653e-05,-7.10878e-06,4.23984e-05
783,-2.53795e-06,7.45068e-06,4.64294e-05,4.89151e-05,-5.955e-06,4.30069e-05
784,1.31642e-05,8.22243e-06,4.99317e-05,5.09617e-05,-6.97075e-06,2.70311e-05
785,1.68123e-05,1.11161e-05,4.69487e-05,5.05002e-05,-6.74709e-06,1.09831e-05
786,6.59651e-06,1.34711e-05,3.86183e-05,4.87347e-05,-4.84712e-06,4.92235e-06
787,-9.49435e-06,1.32586e-05,2.82753e-05,4.82575e-05,-2.79845e-06,6.17962e-06
788,-1.51136e-05,1.15114e-05,2.51326e-05,5.10442e-05,-1.80908e-06,1.07268e-05
789,-5.74879e-06,1.05007e-05,3.31074e-05,5.61296e-05,-1.90561e-06,1.53081e-05
790,5.30957e-06,1.09285e-05,4.39105e-05,6.02207e-05,-2.23138e-06,1.56921e-05
791,7.25501e-06,1.38906e-05,4.81402e-05,6.01556e-05,-1.69941e-06,1.28881e-05
792,-2.10226e-06,1.61821e-05,4.18756e-05,5.71749e-05,6.42625e-07,1.19125e-05
793,-2.12593e-05,1.29836e-05,2.58258e-05,5.53939e-05,3.38841e-06,1.24408e-05
794,-3.03994e-05,5.61472e-06,1.48351e-05,5.44075e-05,5.06318e-06,1.39705e-05
795,-1.60349e-05,1.04617e-06,1.95334e-05,5.28375e-05,2.77241e-06,1.46433e-05
796,3.82859e-06,2.49377e-06,2.99411e-05,5.37258e-05,-9.4353e-07,1.2879e-05
797,1.13905e-05,7.7052e-06,3.56035e-05,5.48265e-05,1.41961e-06,1.3443e-05
798,5.46278e-06,1.03761e-05,3.58953e-05,5.2697e-05,7.33063e-06,1.4531e-05
799,-1.68614e-05,6.38749e-06,2.89288e-05,5.30203e-05,9.90973e-06,1.14486e-05
800,-3.18186e-05,3.08139e-06,2.38072e-05,5.70114e-05,1.04998e-05,1.15238e-05
801,-1.57349e-05,6.98736e-06,2.95871e-05,5.95813e-05,7.52392e-06,1.95194e-05
802,1.69405e-06,1.08488e-05,3.49995e-05,5.83474e-05,2.55213e-06,2.46602e-05
803,3.85451e-06,1.37124e-05,3.81887e-05,5.56875e-05,-3.66056e-06,2.40548e-05
804,7.36608e-06,1.59146e-05,4.17131e-05,5.49256e-05,-1.12e-05,2.42028e-05
805,1.08371e-05,1.55693e-05,4.38763e-05,5.50781e-05,-1.35098e-05,2.48402e-05
806,8.04568e-06,1.77901e-05,4.41329e-05,5.20086e-05,-8.71857e-06,2.67915e-05
807,-8.10413e-06,2.32859e-05,3.62538e-05,4.56491e-05,-2.59638e-06,2.1922e-05
808,-3.13913e-05,2.42088e-05,2.30778e-05,4.55524e-05,3.22885e-07,1.38303e-05
809,-3.46072e-05,1.84135e-05,1.83812e-05,5.23213e-05,-2.44615e-07,1.36299e-05
810,-1.28524e-05,1.36393e-05,2.74493e-05,6.09215e-05,-3.37488e-06,2.13273e-05
811,7.20384e-06,1.41755e-05,3.72029e-05,6.57451e-05,-9.92391e-06,2.85774e-05
812,1.05979e-05,1.70861e-05,3.90579e-05,6.27562e-05,-1.56805e-05,2.96877e-05
813,-3.51051e-06,1.69165e-05,3.32682e-05,5.54119e-05,-1.72005e-05,2.46778e-05
814,-2.28373e-05,1.01071e-05,2.54583e-05,5.10369e-05,-1.68656e-05,1.79679e-05
815,-2.63642e-05,1.1113e-06,2.43766e-05,5.35732e-05,-1.7593e-05,1.55263e-05
816,-1.03193e-05,-2.00709e-06,3.16428e-05,5.73119e-05,-1.87201e-05,1.8185e-05
817,6.40696e-06,1.04252e-06,3.97856e-05,5.59191e-05,-2.05987e-05,2.12937e-05
818,1.09776e-05,6.31668e-06,4.27053e-05,5.00258e-05,-2.37168e-05,1.89237e-05
819,3.98073e-06,1.20669e-05,3.93002e-05,4.56977e-05,-2.33358e-05,1.1507e-05
820,-1.12786e-05,1.54157e-05,3.13823e-05,4.76624e-05,-1.93449e-05,3.84114e-06
821,-1.91683e-05,1.44103e-05,2.8737e-05,5.60727e-05,-1.64382e-05,1.78456e-06
822,-9.48881e-06,1.1383e-05,3.68927e-05,6.41134e-05,-1.68662e-05,5.25789e-06
823,4.73765e-06,1.08277e-05,4.56781e-05,6.49416e-05,-1.91873e-05,9.80779e-06
824,7.5643e-06,1.47812e-05,4.64303e-05,6.08339e-05,-1.87308e-05,1.14779e-05
825,-1.63889e-06,1.98464e-05,4.12739e-05,5.68183e-05,-1.46264e-05,1.2108e-05
826,-2.12935e-05,2.21328e-05,3.16558e-05,5.54319e-05,-1.188e-05,1.02065e-05
827,-3.01522e-05,1.89753e-05,2.87005e-05,5.77213e-05,-1.39285e-05,9.98512e-06
828,-9.59416e-06,1.54896e-05,3.89092e-05,5.87187e-05,-1.93812e-05,1.47918e-05
829,8.80315e-06,1.49509e-05,4.5774e-05,5.51066e-05,-1.82733e-05,2.03289e-05
830,1.04106e-05,1.51587e-05,4.3389e-05,5.09453e-05,-1.20946e-05,2.55717e-05
831,8.57831e-06,1.4236e-05,4.11323e-05,4.97085e-05,-1.01065e-05,2.74696e-05
832,7.16134e-06,1.29555e-05,3.96215e-05,4.96936e-05,-9.93623e-06,2.16151e-05
833,9.55235e-06,1.39641e-05,3.89678e-05,4.74136e-05,-7.3925e-06,1.53002e-05
834,3.07043e-06,1.54881e-05,3.45872e-05,4.38021e-05,-5.39457e-06,1.4037e-05
835,-1.22801e-05,1.4288e-05,2.7017e-05,4.44191e-05,-6.51874e-06,1.57845e-05
836,-1.47641e-05,1.19006e-05,2.66984e-05,4.76464e-05,-9.4046e-06,1.86741e-05
837,5.98041e-07,1.00794e-05,3.4925e-05,4.96519e-05,-1.24862e-05,1.93526e-05
838,1.23217e-05,1.10898e-05,4.16879e-05,4.77487e-05,-1.21391e-05,1.51767e-05
839,1.1934e-05,1.45106e-05,4.18043e-05,4.45308e-05,-7.43761e-06,9.91769e-06
840,-1.18029e-06,1.62184e-05,3.54069e-05,4.16024e-05,-4.03131e-06,4.99899e-06
841,-1.98058e-05,1.60547e-05,2.79226e-05,4.06484e-05,-6.35623e-06,-1.08487e-06
842,-2.53374e-05,1.54863e-05,2.7408e-05,4.31417e-05,-1.07921e-05,-4.02842e-06
843,-1.10769e-05,1.38451e-05,3.42566e-05,4.57153e-05,-1.23077e-05,-1.48798e-06
844,7.40779e-06,1.24501e-05,4.35449e-05,4.58483e-05,-1.02187e-05,5.83722e-06
845,1.42583e-05,1.40233e-05,4.77909e-05,4.05285e-05,-5.73417e-06,1.35326e-05
846,6.0935e-06,1.72896e-05,4.14661e-05,3.25436e-05,-1.59016e-06,1.4204e-05
847,-1.21329e-05,1.89291e-05,2.98736e-05,2.90516e-05,-7.37922e-07,5.18091e-06
848,-2.04618e-05,1.67126e-05,2.76719e-05,3.33408e-05,-2.7667e-06,-3.44586e-06
849,-8.60239e-06,1.22824e-05,3.76611e-05,3.91124e-05,-4.99908e-06,-1.38993e-06
850,7.77403e-06,7.98485e-06,4.81584e-05,4.20056e-05,-8.0495e-06,6.67025e-06
851,1.2529e-05,7.55753e-06,4.94638e-05,4.11878e-05,-1.14787e-05,1.16382e-05
852,7.07584e-06,1.34689e-05,4.34197e-05,3.84148e-05,-1.29631e-05,1.02762e-05
853,-9.52927e-06,1.9257e-05,3.3322e-05,3.94751e-05,-1.38312e-05,2.93765e-06
854,-2.0694e-05,2.08333e-05,2.83952e-05,4.58198e-05,-1.39041e-05,-1.70957e-06
855,-1.03249e-05,2.03074e-05,3.40286e-05,5.14075e-05,-1.20698e-05,4.68475e-06
856,1.53017e-07,1.69425e-05,3.9114e-05,5.37604e-05,-1.08473e-05,1.37979e-05
857,3.05649e-06,1.4601e-05,4.06984e-05,5.35659e-05,-8.85801e-06,1.7837e-05
858,6.58962e-06,1.3518e-05,4.26625e-05,5.31663e-05,-2.77893e-06,2.1164e-05
859,8.93018e-06,1.26489e-05,4.50297e-05,5.12603e-05,1.23939e-06,2.10853e-05
860,9.82829e-06,1.43732e-05,5.0372e-05,4.6356e-05,-3.47206e-06,1.89192e-05
861,-9.51303e-07,1.7568e-05,5.25411e-05,4.2672e-05,-1.13082e-05,1.64283e-05
862,-2.02006e-05,1.96958e-05,4.42998e-05,4.50424e-05,-1.14864e-05,1.27257e-05
863,-2.50054e-05,2.00809e-05,3.683e-05,5.10972e-05,-4.27658e-06,1.04563e-05
864,-7.45723e-06,1.8744e-05,3.99173e-05,5.52319e-05,-9.54208e-07,1.18255e-05
865,1.07921e-05,1.65651e-05,4.45808e-05,5.55879e-05,-4.86193e-06,1.28254e-05
866,1.40923e-05,1.66823e-05,4.29634e-05,5.24405e-05,-7.19906e-06,8.67845e-06
867,4.44224e-08,1.92165e-05,3.57836e-05,5.08518e-05,-5.67277e-06,2.7822e-06
868,-2.01265e-05,1.8587e-05,2.9192e-05,5.34484e-05,-3.53967e-06,1.77207e-06
869,-2.594e-05,1.27752e-05,3.22061e-05,5.6347e-05,-1.77759e-06,8.71415e-06
870,-1.18351e-05,8.31815e-06,4.47623e-05,5.66089e-05,-1.1521e-06,1.84679e-05
871,3.00151e-06,1.00057e-05,5.41796e-05,5.55413e-05,-1.99745e-06,2.24887e-05
872,2.94142e-06,1.52036e-05,5.50102e-05,5.41254e-05,-3.73657e-06,1.7761e-05
873,-9.18814e-06,1.94283e-05,5.11876e-05,5.41526e-05,-6.01885e-06,1.13332e-05
874,-2.60101e-05,1.87316e-05,4.17833e-05,5.82386e-05,-8.44578e-06,7.53269e-06
875,-3.10783e-05,1.22358e-05,3.22565e-05,6.40282e-05,-9.33592e-06,8.35936e-06
876,-1.7993e-05,4.9864e-06,3.33734e-05,6.68832e-05,-9.39927e-06,1.50809e-05
877,-3.82411e-06,1.96809e-06,3.97966e-05,6.70853e-05,-1.19086e-05,1.89329e-05
878,-2.32225e-06,3.72362e-06,4.18645e-05,6.23133e-05,-1.23433e-05,1.64212e-05
879,-9.98871e-06,7.60251e-06,3.85721e-05,5.62744e-05,-8.29444e-06,1.88522e-05
880,-2.94206e-05,9.51398e-06,2.7734e-05,5.93452e-05,-4.2642e-06,2.70836e-05
881,-4.24209e-05,7.18888e-06,2.05152e-05,6.93337e-05,-3.52492e-06,3.34396e-05
882,-2.62441e-05,3.70746e-06,2.65321e-05,7.67403e-05,-7.76465e-06,3.01938e-05
883,-9.62291e-06,1.84366e-06,3.19548e-05,7.96834e-05,-1.46097e-05,1.94058e-05
884,-8.42914e-06,-1.82398e-07,3.31913e-05,7.91689e-05,-2.04565e-05,1.3972e-05
885,-8.10308e-06,-5.45944e-06,3.47563e-05,7.59712e-05,-1.92319e-05,1.98623e-05
886,-7.81647e-06,-9.3089e-06,3.65206e-05,7.2329e-05,-1.53042e-05,2.84071e-05
887,-7.99503e-06,-5.56684e-06,3.905e-05,6.99219e-05,-1.4264e-05,2.92589e-05
888,-2.06565e-05,3.05297e-06,3.52381e-05,6.72285e-05,-1.66077e-05,2.38333e-05
889,-4.12956e-05,6.47701e-06,2.7093e-05,6.39582e-05,-1.85734e-05,1.76245e-05
890,-4.49064e-05,4.36911e-06,2.53566e-05,6.04994e-05,-1.75215e-05,1.46945e-05
891,-2.67708e-05,2.91702e-06,3.20837e-05,5.51384e-05,-1.66448e-05,1.58977e-05
892,-8.93778e-06,4.44672e-06,3.5972e-05,5.00655e-05,-1.6408e-05,1.65117e-05
893,-2.69719e-06,1.00119e-05,3.32467e-05,4.75018e-05,-1.37314e-05,1.39455e-05
894,-1.02186e-05,1.56012e-05,2.53991e-05,4.73008e-05,-8.82774e-06,1.17631e-05
895,-2.63579e-05,1.40268e-05,1.70804e-05,4.77169e-05,-6.59739e-06,1.17958e-05
896,-3.24335e-05,6.58738e-06,1.69319e-05,4.78582e-05,-6.3926e-06,9.48559e-06
897,-2.08099e-05,2.47568e-06,2.63437e-05,4.6886e-05,-7.44863e-06,2.61847e-06
898,-5.12242e-06,5.97611e-06,3.72134e-05,4.38309e-05,-9.64535e-06,-2.24993e-06
899,1.545e-06,1.12293e-05,4.15626e-05,3.9372e-05,-1.12834e-05,6.37295e-07
900,-4.01236e-06,1.24646e-05,3.70243e-05,3.67976e-05,-9.41584e-06,6.79206e-06
901,-2.00907e-05,9.74442e-06,2.63104e-05,3.97596e-05,-6.91264e-06,1.00038e-05
902,-2.74811e-05,4.57833e-06,2.32649e-05,4.71073e-05,-7.13266e-06,1.38926e-05
903,-1.42492e-05,7.58376e-07,3.20196e-05,5.17666e-05,-1.03188e-05,1.87357e-05
904,2.46941e-06,1.5537e-06,4.05052e-05,5.00727e-05,-1.27224e-05,1.84097e-05
905,8.11571e-06,7.58255e-06,4.21565e-05,4.61455e-05,-1.02072e-05,1.87453e-05
906,3.86241e-06,1.42202e-05,3.93318e-05,4.43228e-05,-5.97403e-06,3.33184e-05
907,-1.35483e-05,1.44134e-05,3.14187e-05,4.79126e-05,-4.24483e-06,5.59203e-05
908,-2.48215e-05,1.07837e-05,2.81966e-05,5.6694e-05,-1.50091e-06,5.81454e-05
909,-9.4513e-06,1.17346e-05,3.81751e-05,6.38103e-05,1.57979e-06,2.77762e-05
910,5.18345e-06,1.59228e-05,4.66798e-05,6.13611e-05,-1.41898e-06,-8.44767e-06
911,5.38327e-06,1.9346e-05,4.64826e-05,5.28068e-05,-6.69526e-06,-2.6516e-05
912,3.85326e-06,1.98824e-05,4.812e-05,4.50579e-05,-9.22832e-06,-2.23985e-05
913,1.61711e-06,2.05899e-05,5.10101e-05,3.93081e-05,-1.08804e-05,-4.72116e-06
914,4.75078e-07,2.34639e-05,5.08016e-05,3.31832e-05,-1.17903e-05,1.00744e-05
915,-1.00904e-05,2.43828e-05,4.29698e-05,2.84846e-05,-1.1298e-05,1.48947e-05
916,-2.69919e-05,2.24008e-05,3.1815e-05,2.91536e-05,-1.1505e-05,1.13962e-05
917,-2.93728e-05,2.13146e-05,3.10738e-05,3.1356e-05,-1.07103e-05,8.82539e-06
918,-1.3602e-05,2.20785e-05,3.88783e-05,3.35456e-05,-9.36572e-06,1.25407e-05
919,-9.30007e-07,2.26058e-05,4.42397e-05,3.57881e-05,-7.79106e-06,1.82782e-05
920,1.22104e-06,2.12442e-05,4.39947e-05,3.56983e-05,-5.97646e-06,2.29376e-05
921,-6.73147e-06,1.76912e-05,3.89563e-05,3.34073e-05,-6.0882e-06,2.42686e-05
922,-1.95795e-05,1.46018e-05,3.0793e-05,3.30678e-05,-8.21979e-06,2.09832e-05
923,-2.1677e-05,1.59164e-05,2.81385e-05,3.5393e-05,-1.12073e-05,1.69717e-05
924,-6.96968e-06,1.80542e-05,3.46152e-05,3.81432e-05,-1.44769e-05,1.80054e-05
925,8.19005e-06,1.74145e-05,4.09574e-05,3.96932e-05,-1.63111e-05,2.27192e-05
926,9.66696e-06,1.69271e-05,4.05083e-05,3.92599e-05,-1.44554e-05,2.52029e-05
927,-4.754e-07,1.64734e-05,3.55484e-05,3.89549e-05,-1.12243e-05,2.36855e-05
928,-1.51686e-05,1.24758e-05,2.85634e-05,4.31068e-05,-9.52682e-06,1.87723e-05
929,-1.65277e-05,6.84959e-06,2.80964e-05,4.91502e-05,-1.00638e-05,1.22651e-05
930,5.61493e-07,5.86656e-06,3.92845e-05,5.18274e-05,-1.30362e-05,5.59998e-06
931,1.83941e-05,8.77119e-06,4.97762e-05,5.24969e-05,-1.82661e-05,1.10409e-06
932,1.96361e-05,8.87313e-06,5.02745e-05,5.05644e-05,-2.02161e-05,4.81835e-06
933,6.78181e-06,7.63137e-06,4.34862e-05,4.72298e-05,-1.93439e-05,1.63772e-05
934,-1.56496e-05,9.65171e-06,3.20899e-05,4.89548e-05,-2.06738e-05,2.44937e-05
935,-2.63819e-05,9.00192e-06,2.33747e-05,5.50657e-05,-2.04499e-05,2.20792e-05
936,-8.9632e-06,3.81275e-06,2.73676e-05,5.97032e-05,-1.42428e-05,1.57009e-05
937,1.02595e-05,1.92099e-06,3.45089e-05,6.0448e-05,-5.41257e-06,1.14875e-05
938,1.61763e-05,6.07437e-06,3.74818e-05,5.88653e-05,-7.96209e-07,1.26862e-05
939,1.91132e-05,1.01997e-05,4.10809e-05,5.82581e-05,-3.3676e-06,1.86957e-05
940,1.98301e-05,1.17857e-05,4.35901e-05,5.6466e-05,-8.30799e-06,2.66309e-05
941,1.83691e-05,1.12651e-05,4.41099e-05,5.02622e-05,-5.70807e-06,3.17286e-05
942,6.72003e-06,1.07945e-05,4.04861e-05,4.76735e-05,-1.10185e-06,2.45035e-05
943,-1.13652e-05,1.03842e-05,3.50043e-05,5.50785e-05,-1.62872e-06,6.60403e-06
944,-1.43702e-05,9.13377e-06,3.4448e-05,6.083e-05,-6.62657e-06,-8.35093e-06
945,-2.19134e-07,7.65949e-06,4.17224e-05,5.97759e-05,-1.19298e-05,-6.88197e-06
946,9.06987e-06,9.06945e-06,5.01664e-05,5.74392e-05,-1.27775e-05,7.18098e-06
947,8.83071e-06,1.38236e-05,5.36228e-05,5.59624e-05,-1.07032e-05,1.95222e-05
948,-2.99357e-07,1.71715e-05,4.78127e-05,5.46383e-05,-9.24673e-06,2.02944e-05
949,-1.42612e-05,1.34503e-05,3.55804e-05,5.47093e-05,-9.09827e-06,1.35364e-05
950,-1.82604e-05,7.34101e-06,3.01738e-05,5.49957e-05,-7.57348e-06,9.70834e-06
951,-6.40987e-06,6.32601e-06,3.63695e-05,5.36218e-05,-6.11036e-06,1.25755e-05
952,6.97074e-06,9.28363e-06,4.47177e-05,5.14709e-05,-9.30214e-06,1.68303e-05
953,8.32132e-06,1.30014e-05,4.64399e-05,4.79725e-05,-1.49378e-05,1.78646e-05
954,-1.79927e-06,1.69398e-05,4.08415e-05,4.47132e-05,-1.52509e-05,1.71914e-05
955,-1.88032e-05,1.91282e-05,3.21629e-05,4.66851e-05,-1.03734e-05,1.52261e-05
956,-2.5437e-05,1.71141e-05,3.0967e-05,5.32587e-05,-7.50242e-06,1.2404e-05
957,-1.217e-05,1.51027e-05,3.96266e-05,5.60874e-05,-1.06437e-05,1.15056e-05
958,5.25817e-06,1.6573e-05,4.75127e-05,5.36645e-05,-1.74479e-05,1.3335e-05
959,8.80642e-06,1.98579e-05,4.95552e-05,4.98555e-05,-2.2935e-05,1.37615e-05
960,-1.36487e-07,2.05768e-05,4.83614e-05,4.69421e-05,-2.10793e-05,9.93167e-06
961,-2.19613e-05,1.69787e-05,4.13759e-05,4.56578e-05,-1.53757e-05,4.13168e-06
962,-3.72921e-05,1.18214e-05,3.49815e-05,4.77651e-05,-8.50759e-06,3.04752e-06
963,-2.23054e-05,9.78061e-06,3.8116e-05,5.07165e-05,-1.57434e-06,7.91364e-06
964,-2.38743e-06,1.00047e-05,4.34882e-05,4.96125e-05,-3.19053e-07,1.2085e-05
965,9.20494e-07,8.36541e-06,4.19956e-05,4.89176e-05,-4.4749e-06,1.47997e-05
966,-1.06691e-07,2.26805e-06,3.7165e-05,5.24435e-05,-7.53073e-06,1.85961e-05
967,1.02211e-06,-7.08654e-07,3.60674e-05,5.40073e-05,-5.15596e-06,1.96966e-05
968,4.6001e-06,4.0462e-06,3.85899e-05,5.18976e-05,-3.92682e-06,1.79213e-05
969,-3.76766e-06,1.05216e-05,3.58558e-05,5.20369e-05,-9.19057e-06,1.3195e-05
970,-2.1246e-05,1.24617e-05,2.76468e-05,5.85745e-05,-1.40424e-05,8.18521e-06
971,-2.36898e-05,1.21179e-05,2.72601e-05,6.46595e-05,-1.21228e-05,8.71524e-06
972,-6.15306e-06,1.24197e-05,3.60147e-05,6.52875e-05,-7.37797e-06,1.56955e-05
973,1.15659e-05,1.32942e-05,4.22262e-05,6.25628e-05,-6.04222e-06,2.13597e-05
974,1.68067e-05,1.39959e-05,4.20285e-05,5.65111e-05,-9.23276e-06,2.10382e-05
975,6.42976e-06,1.2035e-05,3.65312e-05,4.9462e-05,-1.31525e-05,1.60528e-05
976,-1.1615e-05,6.35691e-06,2.83952e-05,4.65749e-05,-1.39058e-05,1.04613e-05
977,-1.66198e-05,1.24655e-06,2.78392e-05,4.8456e-05,-1.19394e-05,9.95107e-06
978,-2.60495e-06,1.09447e-06,3.73923e-05,5.08545e-05,-1.0459e-05,1.59103e-05
979,1.20786e-05,5.14507e-06,4.42692e-05,4.9509e-05,-9.02372e-06,2.41326e-05
980,1.1579e-05,9.69954e-06,4.22499e-05,4.44378e-05,-6.27238e-06,2.87865e-05
981,-1.71166e-06,1.13529e-05,3.40888e-05,4.14247e-05,-5.97778e-06,2.61272e-05
982,-1.99145e-05,9.87883e-06,2.19056e-05,4.41699e-05,-8.33221e-06,1.67303e-05
983,-2.62247e-05,8.2169e-06,1.70153e-05,4.95536e-05,-7.5827e-06,1.05922e-05
984,-1.16663e-05,9.66551e-06,2.87636e-05,5.1254e-05,-2.17433e-06,1.53196e-05
985,6.86424e-06,1.37443e-05,4.42287e-05,4.92896e-05,2.92685e-06,2.38102e-05
986,1.12786e-05,1.79098e-05,4.81308e-05,4.58898e-05,1.71788e-06,2.47683e-05
987,2.56987e-06,1.93229e-05,4.10884e-05,4.31758e-05,-5.34947e-06,1.95097e-05
988,-1.9109e-05,1.64047e-05,2.87013e-05,4.71454e-05,-1.12302e-05,1.32284e-05
989,-3.21856e-05,1.28089e-05,2.46815e-05,5.34537e-05,-1.12455e-05,1.06038e-05
990,-1.74598e-05,1.46466e-05,3.34846e-05,5.44985e-05,-6.6637e-06,1.72053e-05
991,-1.82502e-06,1.62196e-05,4.10827e-05,5.27834e-05,-7.20046e-06,2.59192e-05
992,2.50902e-07,1.42613e-05,4.17235e-05,5.15003e-05,-1.41244e-05,2.58398e-05
993,1.31898e-06,9.67952e-06,3.83464e-05,5.16396e-05,-1.55584e-05,1.95686e-05
994,1.59929e-06,7.50034e-06,3.2566e-05,5.1858e-05,-1.38199e-05,1.31882e-05
995,3.86674e-07,1.03556e-05,2.95568e-05,5.09238e-05,-1.22368e-05,1.08689e-05
996,-1.06191e-05,1.37597e-05,2.77185e-05,4.87285e-05,-1.26493e-05,8.97927e-06
997,-2.94567e-05,1.3272e-05,2.20099e-05,4.86465e-05,-1.51954e-05,5.52225e-06
998,-3.26811e-05,8.71622e-06,2.11237e-05,5.02872e-05,-1.27973e-05,5.03657e-06
999,-1.55363e-05,3.89026e-06,2.87646e-05,5.12248e-05,-7.43027e-06,9.68358e-06
1000,1.86156e-06,2.03838e-06,3.63213e-05,4.99095e-05,-6.63587e-06,1.53238e-05
1001,6.37829e-06,4.79725e-06,3.85793e-05,4.58882e-05,-9.66947e-06,1.77962e-05
1002,-3.01869e-06,9.5107e-06,3.45793e-05,4.17973e-05,-1.04076e-05,1.39927e-05
1003,-1.75742e-05,1.2461e-05,2.56889e-05,4.07039e-05,-7.19229e-06,4.11895e-06
1004,-2.15793e-05,1.20285e-05,2.04014e-05,4.306e-05,-2.55531e-06,-3.01503e-06
1005,-1.02261e-05,1.02681e-05,2.59499e-05,4.63987e-05,-1.32611e-06,-3.95071e-08
1006,4.74099e-06,1.02957e-05,3.60008e-05,4.94869e-05,-4.8949e-06,9.20032e-06
1007,1.15202e-05,1.3538e-05,4.13701e-05,5.05329e-05,-9.51029e-06,1.65938e-05
1008,5.90766e-06,1.7081e-05,3.87571e-05,4.80467e-05,-1.02306e-05,1.92263e-05
1009,-9.03824e-06,1.61832e-05,3.01193e-05,4.62824e-05,-8.10968e-06,1.61507e-05
1010,-1.49239e-05,1.3247e-05,2.5865e-05,4.94336e-05,-8.85913e-06,1.33347e-05
1011,-3.30033e-06,1.5095e-05,3.2397e-05,5.3791e-05,-1.19822e-05,1.76055e-05
1012,1.03865e-05,1.77794e-05,3.97368e-05,5.596e-05,-1.12086e-05,2.15527e-05
1013,1.53858e-05,1.74293e-05,4.04864e-05,5.44982e-05,-7.24827e-06,1.49383e-05
1014,7.60922e-06,1.69631e-05,3.73939e-05,5.25831e-05,-4.64106e-06,1.14512e-06
1015,-1.96852e-05,1.59938e-05,3.10129e-05,5.38201e-05,-3.33021e-06,-1.47266e-05
1016,-4.22784e-05,1.30074e-05,2.87335e-05,5.52309e-05,-2.2221e-06,-1.87778e-05
1017,-2.87402e-05,1.07955e-05,3.76522e-05,5.55801e-05,-3.17098e-06,-3.7571e-06
1018,-6.29239e-06,1.15139e-05,4.39697e-05,5.57841e-05,-5.8255e-06,9.48735e-06
1019,3.30055e-06,1.36891e-05,4.45989e-05,5.58933e-05,-8.06595e-06,1.08542e-05
1020,7.62935e-06,1.52637e-05,4.6017e-05,5.52894e-05,-9.1538e-06,1.03927e-05
1021,4.14877e-06,1.45931e-05,4.55949e-05,5.14772e-05,-9.17879e-06,1.2418e-05
1022,-4.49236e-07,1.55968e-05,4.5389e-05,4.67204e-05,-8.68956e-06,1.54781e-05
1023,-1.16885e-05,1.97437e-05,4.16896e-05,4.71291e-05,-7.85545e-06,1.7764e-05
1024,-2.80034e-05,1.98447e-05,3.45943e-05,5.39744e-05,-7.76536e-06,1.70314e-05
1025,-2.85703e-05,1.46567e-05,3.42279e-05,5.9779e-05,-7.39483e-06,1.56614e-05
1026,-9.79106e-06,8.81772e-06,4.16554e-05,6.22979e-05,-4.27711e-06,1.61835e-05
1027,5.60008e-06,6.52516e-06,4.60184e-05,6.23698e-05,5.01696e-07,1.3986e-05
1028,7.52235e-06,1.06114e-05,4.46849e-05,5.80429e-05,2.463e-06,8.49112e-06
1029,-4.02198e-06,1.83414e-05,3.99982e-05,5.24322e-05,-1.37882e-06,2.79153e-06
1030,-2.12726e-05,2.0448e-05,3.31315e-05,4.96626e-05,-9.11492e-06,2.00276e-07
1031,-2.62672e-05,1.54393e-05,3.08048e-05,5.1305e-05,-1.49804e-05,2.19274e-06
1032,-1.40468e-05,9.67343e-06,3.53391e-05,5.58133e-05,-1.47505e-05,7.40037e-06
1033,1.9726e-06,8.27057e-06,3.9821e-05,5.97743e-05,-1.02974e-05,1.17732e-05
1034,7.98473e-06,1.09404e-05,3.97579e-05,5.98774e-05,-5.89281e-06,1.39881e-05
1035,-1.65861e-06,1.33226e-05,3.5441e-05,5.88816e-05,-3.61678e-06,1.42961e-05
1036,-2.16843e-05,1.2176e-05,2.79928e-05,6.25551e-05,-3.21962e-06,1.11654e-05
1037,-2.83156e-05,9.60145e-06,2.60464e-05,7.00423e-05,-3.97003e-06,6.61669e-06
1038,-1.35184e-05,9.06639e-06,3.43821e-05,7.47148e-05,-6.45316e-06,6.87879e-06
1039,2.89144e-06,8.88496e-06,4.36843e-05,7.37106e-05,-1.08651e-05,1.12375e-05
1040,4.49898e-06,8.1223e-06,4.63369e-05,6.77276e-05,-1.41884e-05,1.04316e-05
1041,-4.13089e-06,8.19736e-06,4.19298e-05,5.95287e-05,-1.5929e-05,5.62e-06
1042,-2.42478e-05,8.91747e-06,3.23197e-05,5.65017e-05,-1.67243e-05,3.8295e-06
1043,-3.65328e-05,8.04978e-06,2.84201e-05,6.15366e-05,-1.52487e-05,1.17685e-05
1044,-1.67926e-05,7.68173e-06,3.29756e-05,6.79263e-05,-1.21726e-05,3.2456e-05
1045,2.11352e-06,9.09116e-06,3.61145e-05,6.67539e-05,-9.97193e-06,4.08669e-05
1046,2.95818e-06,1.06801e-05,3.69645e-05,5.81e-05,-1.112e-05,1.84485e-05
1047,2.35191e-06,8.99018e-06,3.93818e-05,4.94749e-05,-1.4238e-05,-3.79904e-06
1048,1.84977e-06,7.63118e-06,4.08511e-05,4.19858e-05,-1.68269e-05,-1.35233e-07
1049,4.44007e-06,1.23941e-05,4.01065e-05,3.41034e-05,-1.52756e-05,1.47378e-05
1050,-1.48716e-06,1.83586e-05,3.73396e-05,2.80292e-05,-1.12752e-05,1.33326e-05
1051,-1.79964e-05,1.91889e-05,3.1358e-05,2.71063e-05,-9.75474e-06,-2.40652e-06
1052,-2.13435e-05,1.55953e-05,2.86947e-05,2.91098e-05,-1.15506e-05,-4.24873e-06
1053,-4.25124e-06,1.24367e-05,3.29246e-05,3.00675e-05,-1.22956e-05,1.8377e-05
1054,1.12803e-05,1.22695e-05,3.75752e-05,2.94785e-05,-1.0631e-05,3.72933e-05
1055,1.24025e-05,1.47374e-05,3.81374e-05,2.86696e-05,-8.75737e-06,2.8392e-05
1056,-1.83787e-06,1.66969e-05,3.30178e-05,2.96858e-05,-8.58446e-06,4.09097e-06
1057,-2.28919e-05,1.36475e-05,2.47359e-05,3.53511e-05,-1.05301e-05,-7.91121e-06
1058,-3.1675e-05,7.97987e-06,2.35008e-05,4.34414e-05,-1.25264e-05,2.23809e-06
1059,-2.21607e-05,6.58824e-06,3.23976e-05,4.85439e-05,-1.46667e-05,2.00296e-05
1060,-8.55561e-06,1.04858e-05,4.15052e-05,5.08213e-05,-1.7558e-05,2.87715e-05
1061,-2.99606e-06,1.52114e-05,4.21836e-05,5.16432e-05,-1.90875e-05,2.49524e-05
1062,-9.52225e-06,1.87455e-05,3.34329e-05,5.18973e-05,-1.74048e-05,1.89324e-05
1063,-2.7868e-05,1.84203e-05,2.02645e-05,5.32321e-05,-1.69137e-05,1.96521e-05
1064,-3.54066e-05,1.56595e-05,1.50046e-05,5.61844e-05,-1.74761e-05,2.58388e-05
1065,-1.7336e-05,1.6654e-05,2.47704e-05,6.0527e-05,-1.65681e-05,3.11014e-05
1066,5.66043e-06,1.86867e-05,3.83824e-05,6.53122e-05,-1.4597e-05,3.30564e-05
1067,1.16671e-05,1.72503e-05,4.2411e-05,6.70367e-05,-1.34642e-05,2.88036e-05
1068,1.07795e-06,1.3462e-05,3.72075e-05,6.44685e-05,-1.3272e-05,1.33158e-05
1069,-1.93788e-05,9.90016e-06,2.73451e-05,6.24006e-05,-1.35153e-05,-6.05323e-06
1070,-2.69196e-05,8.47415e-06,2.46264e-05,6.46319e-05,-1.36007e-05,-8.40468e-06
1071,-9.76445e-06,1.00624e-05,3.94303e-05,6.83455e-05,-1.17266e-05,1.17459e-05
1072,3.50801e-06,1.28681e-05,5.15041e-05,6.6782e-05,-9.19697e-06,3.46563e-05
1073,1.92458e-06,1.36185e-05,5.0691e-05,5.98058e-05,-6.82971e-06,4.24804e-05
1074,-1.03365e-06,1.27174e-05,4.74814e-05,5.70207e-05,-3.3416e-06,3.63516e-05
1075,-1.723e-06,1.12941e-05,4.66824e-05,5.9175e-05,-8.29247e-07,2.29705e-05
1076,1.29819e-06,1.26159e-05,4.67514e-05,6.0755e-05,-1.96434e-06,1.62076e-05
1077,-3.85129e-06,1.56098e-05,4.09632e-05,5.81472e-05,-3.68045e-06,1.80776e-05
1078,-1.65213e-05,1.31208e-05,3.22731e-05,5.56844e-05,-5.66587e-06,1.54256e-05
1079,-1.95492e-05,7.43913e-06,3.11814e-05,5.50172e-05,-8.1155e-06,8.44803e-06
1080,-5.98609e-06,3.58365e-06,3.90096e-05,5.4051e-05,-8.76243e-06,8.53689e-06
1081,9.619e-06,5.43767e-06,4.49978e-05,5.25054e-05,-6.28251e-06,1.57735e-05
1082,1.42132e-05,1.059e-05,4.52506e-05,5.03237e-05,-2.34553e-06,2.14704e-05
1083,2.59714e-06,1.17221e-05,3.76063e-05,4.93855e-05,-4.70463e-07,2.10733e-05
1084,-1.68894e-05,6.5479e-06,2.66197e-05,5.0697e-05,-1.11543e-06,1.48615e-05
1085,-2.27205e-05,1.20614e-06,2.37662e-05,5.40835e-05,-2.66262e-06,9.80795e-06
1086,-8.26037e-06,-1.16863e-06,3.23598e-05,5.58592e-05,-3.26213e-06,1.11813e-05
1087,7.72762e-06,-8.59448e-07,4.09711e-05,5.46984e-05,-3.65107e-06,1.83904e-05
1088,8.42113e-06,3.50609e-06,4.14607e-05,5.12885e-05,-5.05487e-06,2.31909e-05
1089,-3.71881e-06,8.08743e-06,3.61063e-05,4.82113e-05,-8.2512e-06,2.0615e-05
1090,-2.048e-05,6.69982e-06,2.78954e-05,4.81159e-05,-1.07916e-05,1.4018e-05
1091,-2.29335e-05,1.34344e-06,2.6409e-05,5.04905e-05,-8.43003e-06,9.94824e-06
1092,-2.80652e-06,-3.1382e-07,3.52819e-05,5.14611e-05,-4.44854e-06,1.15235e-05
1093,1.73515e-05,3.25138e-06,4.06338e-05,4.92623e-05,-3.11846e-06,1.46618e-05
1094,1.99481e-05,7.7656e-06,3.77292e-05,4.62215e-05,-1.40521e-06,1.44405e-05
1095,1.01732e-05,7.35763e-06,3.42545e-05,4.26938e-05,1.28098e-07,1.24249e-05
1096,-1.04388e-05,4.37501e-06,2.89224e-05,3.97369e-05,-1.99642e-06,9.8993e-06
1097,-2.09801e-05,5.93079e-06,2.84112e-05,4.08119e-05,-8.75757e-06,7.13713e-06
1098,-2.76923e-06,9.64786e-06,3.87541e-05,3.94978e-05,-1.61026e-05,9.97782e-06
1099,1.2517e-05,1.15115e-05,4.33205e-05,3.50247e-05,-1.61427e-05,1.3981e-05
1100,1.03783e-05,1.15432e-05,3.94928e-05,3.49977e-05,-1.39927e-05,1.03661e-05
1101,8.70703e-06,9.71034e-06,3.91148e-05,4.06203e-05,-1.39393e-05,7.88159e-06
1102,7.48094e-06,9.13266e-06,3.95528e-05,4.62834e-05,-1.32479e-05,1.26053e-05
1103,6.24086e-06,1.05591e-05,4.08019e-05,4.7655e-05,-1.35546e-05,1.97074e-05
1104,-6.40712e-06,1.35476e-05,3.81222e-05,4.73016e-05,-1.29999e-05,2.1726e-05
1105,-2.43388e-05,1.29135e-05,3.16184e-05,4.84125e-05,-1.21043e-05,1.74913e-05
1106,-2.42932e-05,9.53785e-06,2.99935e-05,4.86056e-05,-9.53722e-06,1.41131e-05
1107,-4.22711e-06,9.38477e-06,3.5349e-05,4.83379e-05,-7.37982e-06,1.75165e-05
1108,1.517e-05,1.24128e-05,3.92873e-05,4.9574e-05,-8.36248e-06,2.58482e-05
1109,2.18626e-05,1.65693e-05,4.03892e-05,4.93804e-05,-9.41736e-06,3.12077e-05
1110,1.24775e-05,1.892e-05,3.66011e-05,4.57137e-05,-8.80385e-06,2.87389e-05
1111,-7.12065e-06,1.71503e-05,2.80175e-05,4.07365e-05,-5.30683e-06,2.18994e-05
1112,-1.4794e-05,1.32818e-05,2.38754e-05,3.9466e-05,-2.49747e-06,1.90618e-05
1113,-1.77043e-06,1.10709e-05,2.99921e-05,4.15325e-05,-2.89013e-06,1.8239e-05
1114,1.58555e-05,1.12282e-05,4.14051e-05,4.29063e-05,-7.06244e-06,1.27792e-05
1115,2.00913e-05,1.48171e-05,4.79786e-05,4.14235e-05,-1.18133e-05,7.89079e-06
1116,8.48233e-06,1.8265e-05,4.49198e-05,3.96864e-05,-1.33757e-05,9.80336e-06
1117,-1.3175e-05,1.51073e-05,3.44685e-05,4.07883e-05,-1.13877e-05,1.26412e-05
1118,-2.28166e-05,6.97274e-06,3.02795e-05,4.51737e-05,-7.86156e-06,1.3189e-05
1119,-9.43014e-06,2.35645e-06,3.82029e-05,4.92201e-05,-3.65023e-06,1.21257e-05
1120,9.15339e-06,5.49476e-06,4.84867e-05,4.95993e-05,-1.17237e-06,9.91675e-06
1121,1.29413e-05,1.38796e-05,4.97849e-05,4.34753e-05,-1.32534e-06,1.00619e-05
1122,1.72773e-06,2.17533e-05,4.21726e-05,3.47819e-05,-2.48985e-06,1.27836e-05
1123,-2.26395e-05,2.2932e-05,2.88537e-05,3.47329e-05,-4.17339e-06,1.446e-05
1124,-3.68462e-05,2.00609e-05,2.27511e-05,4.33137e-05,-7.28884e-06,1.78055e-05
1125,-1.97707e-05,2.11338e-05,3.34301e-05,4.95856e-05,-9.30642e-06,2.61517e-05
1126,-1.18009e-06,2.44231e-05,4.28503e-05,4.67032e-05,-7.71842e-06,2.52963e-05
1127,3.53167e-06,2.4526e-05,4.01369e-05,4.29791e-05,-6.15179e-06,1.54326e-05
1128,7.23924e-06,1.95362e-05,3.57638e-05,4.86814e-05,-3.62907e-06,1.24013e-05
1129,1.10236e-05,1.54962e-05,3.46012e-05,5.64805e-05,-3.07341e-06,1.60354e-05
1130,1.14902e-05,1.72246e-05,3.80857e-05,5.75464e-05,-5.35227e-06,1.96587e-05
1131,4.6821e-07,2.01774e-05,3.65225e-05,5.47122e-05,-7.31174e-06,1.68174e-05
1132,-1.67132e-05,1.79043e-05,2.91303e-05,5.75165e-05,-7.87858e-06,1.12107e-05
1133,-1.78221e-05,1.23578e-05,2.69484e-05,6.33259e-05,-6.51557e-06,1.05919e-05
1134,2.80847e-07,8.36218e-06,3.24344e-05,6.48027e-05,-6.78995e-06,1.54405e-05
1135,1.25452e-05,6.99775e-06,3.82924e-05,6.19528e-05,-7.58223e-06,1.47863e-05
1136,8.79791e-06,8.71475e-06,4.10392e-05,5.48222e-05,-6.05265e-06,8.4468e-06
1137,-6.33105e-06,1.09628e-05,3.80426e-05,4.78754e-05,-3.78998e-06,4.98701e-06
1138,-1.97649e-05,9.76812e-06,2.94456e-05,4.66787e-05,-5.01488e-06,6.63899e-06
1139,-1.81831e-05,6.51322e-06,2.65163e-05,5.0191e-05,-9.48044e-06,1.09839e-05
1140,-3.95899e-06,7.06006e-06,3.2605e-05,5.45146e-05,-1.41444e-05,1.60142e-05
1141,7.37968e-06,1.17384e-05,3.99383e-05,5.76637e-05,-1.8362e-05,1.8418e-05
1142,9.25595e-06,1.69213e-05,4.40622e-05,5.51467e-05,-2.05299e-05,1.6287e-05
1143,2.89228e-06,1.94493e-05,4.30233e-05,4.98707e-05,-1.91066e-05,1.09707e-05
1144,-1.249e-05,1.61577e-05,3.27871e-05,5.16792e-05,-1.66099e-05,2.85525e-06
1145,-2.0653e-05,9.6061e-06,2.47989e-05,5.93798e-05,-1.46332e-05,1.32316e-07
1146,-1.15224e-05,7.76963e-06,3.1483e-05,6.41998e-05,-1.3048e-05,5.31628e-06
1147,-1.62685e-06,1.14832e-05,4.42826e-05,6.305e-05,-1.3437e-05,1.19232e-05
1148,-6.466e-06,1.57753e-05,4.92209e-05,5.60908e-05,-1.51404e-05,1.41042e-05
1149,-2.08805e-05,1.72602e-05,4.64843e-05,5.17908e-05,-1.43027e-05,1.18687e-05
1150,-4.24285e-05,1.32177e-05,3.98729e-05,5.56233e-05,-1.18528e-05,7.2202e-06
1151,-4.88334e-05,7.48394e-06,3.81589e-05,5.97805e-05,-1.54806e-05,5.1846e-06
1152,-2.33819e-05,7.07316e-06,4.72266e-05,5.96906e-05,-1.69905e-05,1.13528e-05
1153,-3.11404e-06,9.25564e-06,5.46918e-05,5.82565e-05,-1.07485e-05,2.23162e-05
1154,-2.68866e-06,9.50498e-06,5.48305e-05,5.876e-05,-4.98398e-06,2.86668e-05
1155,-4.59222e-06,9.56213e-06,5.44298e-05,6.11965e-05,-4.79191e-06,3.12467e-05
1156,-7.68377e-06,1.19874e-05,5.39474e-05,6.3049e-05,-6.64681e-06,3.34601e-05
1157,-1.02693e-05,1.26356e-05,5.20525e-05,6.01874e-05,-5.19397e-06,3.61042e-05
1158,-1.84806e-05,1.04038e-05,4.52329e-05,5.46484e-05,-3.57186e-06,3.61016e-05
1159,-3.21321e-05,8.31888e-06,3.6427e-05,5.45762e-05,-4.44542e-06,3.04231e-05
1160,-3.27072e-05,7.47439e-06,3.4751e-05,5.75531e-05,-4.49042e-06,1.77012e-05
1161,-1.65282e-05,6.45113e-06,4.06797e-05,5.73527e-05,-3.54158e-06,5.94754e-07
1162,-4.08794e-06,5.2044e-06,4.36496e-05,5.40033e-05,-5.96815e-06,-1.13208e-05
1163,-4.17435e-06,5.99659e-06,4.21874e-05,5.10434e-05,-1.06349e-05,-9.35802e-06
1164,-1.55963e-05,7.34457e-06,3.83756e-05,4.98104e-05,-1.48707e-05,1.41866e-06
1165,-2.94456e-05,4.62213e-06,3.26983e-05,5.1394e-05,-1.55562e-05,6.9148e-06
1166,-3.06174e-05,-3.45052e-07,3.06712e-05,5.51786e-05,-1.20709e-05,4.16203e-06
1167,-1.63808e-05,-2.21573e-06,3.6061e-05,5.87661e-05,-6.88349e-06,-3.65249e-07
1168,-3.27194e-06,3.32881e-07,4.26983e-05,5.97814e-05,-4.96354e-06,-1.87362e-06
1169,-1.73593e-06,6.84167e-06,4.2946e-05,5.70801e-05,-7.20054e-06,4.10547e-07
1170,-1.08623e-05,1.48994e-05,3.71725e-05,5.3052e-05,-9.9856e-06,5.42602e-06
1171,-2.68576e-05,1.96336e-05,2.92973e-05,5.16931e-05,-1.13537e-05,9.02467e-06
1172,-3.3206e-05,2.03157e-05,2.78784e-05,5.517e-05,-1.32975e-05,1.28394e-05
1173,-2.04307e-05,2.18879e-05,3.29717e-05,5.85904e-05,-1.73384e-05,2.11873e-05
1174,-2.17382e-06,2.27506e-05,3.46448e-05,5.80494e-05,-1.97325e-05,2.83005e-05
1175,4.9854e-06,2.00196e-05,3.01721e-05,5.23685e-05,-1.59807e-05,2.10345e-05
1176,-1.29063e-06,1.57737e-05,2.52006e-05,4.45562e-05,-9.94417e-06,3.12043e-06
1177,-2.0678e-05,1.03229e-05,1.96168e-05,4.17361e-05,-6.14643e-06,-7.35467e-06
1178,-3.41356e-05,3.18302e-06,1.76875e-05,4.62651e-05,-5.79863e-06,-5.46248e-07
1179,-2.35769e-05,1.36754e-06,2.40167e-05,5.18088e-05,-9.20658e-06,2.50837e-05
1180,-8.09096e-06,6.84098e-06,3.06426e-05,5.15815e-05,-1.26075e-05,4.82129e-05
1181,-1.80502e-06,1.01964e-05,3.35117e-05,4.87155e-05,-1.39294e-05,4.39931e-05
1182,2.11044e-06,9.98991e-06,3.60016e-05,4.81006e-05,-1.2566e-05,2.42924e-05
1183,5.44855e-06,1.16073e-05,3.60785e-05,4.87607e-05,-1.15577e-05,1.19148e-05
1184,7.72368e-06,1.42656e-05,3.67172e-05,4.86398e-05,-1.10446e-05,1.34167e-05
1185,-8.83334e-07,1.48601e-05,3.54451e-05,4.68307e-05,-1.2215e-05,1.80461e-05
1186,-1.77925e-05,1.142e-05,2.86828e-05,4.75057e-05,-1.28714e-05,1.54227e-05
1187,-2.15834e-05,9.47287e-06,2.88527e-05,5.13918e-05,-1.07365e-05,9.8487e-06
1188,-7.77997e-06,1.05221e-05,3.86126e-05,5.51943e-05,-8.1646e-06,8.65683e-06
1189,2.17129e-06,1.14249e-05,4.381e-05,5.41905e-05,-7.45603e-06,1.07303e-05
1190,1.21512e-06,1.36729e-05,4.33981e-05,4.68679e-05,-9.22026e-06,1.34943e-05
1191,-8.65812e-06,1.75021e-05,3.93206e-05,3.91893e-05,-1.09551e-05,1.3078e-05
1192,-2.25778e-05,1.75769e-05,3.29253e-05,3.9192e-05,-8.21103e-06,8.53498e-06
1193,-2.50714e-05,1.34236e-05,3.23403e-05,4.51397e-05,-1.50401e-06,5.07743e-06
1194,-8.47643e-06,1.09362e-05,3.94305e-05,5.06498e-05,2.96226e-06,6.94407e-06
1195,1.08814e-05,1.2567e-05,4.62885e-05,5.39306e-05,2.37e-06,1.28019e-05
1196,1.68238e-05,1.5776e-05,4.8122e-05,5.32954e-05,-1.87363e-06,1.78383e-05
1197,7.20085e-06,1.65226e-05,4.47449e-05,4.92145e-05,-7.3063e-06,1.85957e-05
1198,-1.22169e-05,1.426e-05,3.70114e-05,4.58339e-05,-1.03688e-05,1.48413e-05
1199,-2.01325e-05,1.27504e-05,3.61354e-05,4.66411e-05,-7.17338e-06,1.22323e-05
1200,-5.03409e-06,1.32802e-05,4.61058e-05,5.03821e-05,-7.5492e-07,1.70201e-05
1201,1.43813e-05,1.2281e-05,5.33042e-05,5.35572e-05,1.44818e-06,2.39546e-05
1202,1.71102e-05,1.30603e-05,5.11831e-05,5.12838e-05,-3.07769e-06,1.99471e-05
1203,4.35976e-06,1.70881e-05,4.42357e-05,4.48089e-05,-8.98076e-06,8.49145e-06
1204,-1.97088e-05,1.79562e-05,3.32283e-05,4.43981e-05,-1.29429e-05,7.38788e-06
1205,-3.10761e-05,1.41519e-05,2.95353e-05,4.69509e-05,-1.0038e-05,1.96867e-05
1206,-1.09157e-05,1.48618e-05,3.8172e-05,4.46525e-05,-3.52562e-06,2.80271e-05
1207,7.28024e-06,1.87635e-05,4.36395e-05,4.07997e-05,-4.3805e-06,2.0147e-05
1208,6.96137e-06,1.98053e-05,4.41086e-05,4.09758e-05,-1.03495e-05,8.10238e-06
1209,3.91445e-06,1.85328e-05,4.82337e-05,4.68226e-05,-1.36848e-05,1.1289e-05
1210,2.95773e-06,1.77509e-05,5.07632e-05,5.02798e-05,-1.37934e-05,2.14138e-05
1211,5.84626e-06,1.95822e-05,4.75014e-05,4.9833e-05,-1.20751e-05,2.33616e-05
1212,-1.35612e-06,2.13054e-05,3.8458e-05,4.82607e-05,-1.03838e-05,1.55229e-05
1213,-1.90917e-05,2.05407e-05,3.16723e-05,5.14189e-05,-9.28376e-06,9.16474e-06
1214,-2.29814e-05,1.74045e-05,3.39296e-05,5.5649e-05,-7.59625e-06,1.62445e-05
1215,-5.27789e-06,1.39227e-05,4.22196e-05,5.83968e-05,-6.34629e-06,2.58956e-05
1216,1.21486e-05,1.24413e-05,4.92752e-05,5.98683e-05,-7.55239e-06,2.23984e-05
1217,1.57826e-05,1.46247e-05,5.075e-05,5.64754e-05,-9.02911e-06,9.87855e-06
1218,4.8205e-06,1.85151e-05,4.3255e-05,5.06898e-05,-6.45969e-06,-2.32846e-07
1219,-1.21701e-05,1.7355e-05,3.11655e-05,4.88096e-05,-1.19778e-06,-3.90807e-06
1220,-1.7657e-05,9.55253e-06,2.93644e-05,5.39591e-05,2.94604e-06,-1.54254e-06
1221,-6.74583e-06,2.1878e-06,3.93891e-05,6.00979e-05,2.25344e-06,5.5827e-06
1222,6.02648e-06,1.59136e-06,4.88395e-05,6.2966e-05,-5.32861e-06,1.12752e-05
1223,8.08445e-06,7.41621e-06,4.95205e-05,6.40117e-05,-1.41988e-05,1.138e-05
1224,-1.86266e-06,1.29889e-05,4.18684e-05,6.63916e-05,-1.74299e-05,8.91841e-06
1225,-1.87488e-05,1.30799e-05,3.15395e-05,6.84719e-05,-1.68642e-05,6.79453e-06
1226,-2.50553e-05,1.10575e-05,2.95814e-05,6.94445e-05,-1.61603e-05,7.33152e-06
1227,-1.12703e-05,1.15647e-05,3.72016e-05,6.86082e-05,-1.60005e-05,1.0338e-05
1228,8.89264e-06,1.36347e-05,4.31789e-05,6.45647e-05,-1.65941e-05,9.08487e-06
1229,1.59772e-05,1.61297e-05,4.22426e-05,5.87381e-05,-1.67512e-05,1.06565e-06
1230,7.92117e-06,1.80288e-05,3.80737e-05,5.41883e-05,-1.44091e-05,-5.67078e-06
1231,-1.4304e-05,1.61091e-05,2.90105e-05,5.048e-05,-1.19878e-05,-7.24531e-06
1232,-2.91189e-05,1.13043e-05,2.494e-05,4.98656e-05,-9.81394e-06,-4.61361e-06
1233,-1.5863e-05,1.08757e-05,3.27908e-05,5.43027e-05,-7.02037e-06,5.10205e-06
1234,-1.05479e-06,1.27468e-05,3.71573e-05,5.77796e-05,-4.07666e-06,1.49041e-05
1235,3.3469e-06,8.69008e-06,3.59025e-05,5.52977e-05,-1.14035e-06,1.66122e-05
1236,6.86188e-06,1.35249e-06,3.51052e-05,5.17111e-05,-1.19079e-06,1.62425e-05
1237,8.12447e-06,-1.28157e-06,3.52489e-05,4.85592e-05,-4.12828e-06,1.58894e-05
1238,9.0336e-06,1.8094e-06,3.79632e-05,4.37333e-05,-6.83402e-06,1.63906e-05
1239,1.31523e-06,6.31619e-06,3.49629e-05,3.86544e-05,-7.45301e-06,1.38389e-05
1240,-1.43152e-05,6.14945e-06,2.48833e-05,3.99055e-05,-6.86974e-06,6.81334e-06
1241,-1.67424e-05,3.44042e-06,2.06914e-05,4.66144e-05,-4.44594e-06,3.87339e-06
1242,-2.53305e-06,4.74559e-06,2.53925e-05,5.14444e-05,-2.98405e-06,1.17401e-05
1243,1.07836e-05,8.78997e-06,2.91175e-05,4.90994e-05,-4.70778e-06,2.19363e-05
1244,1.56887e-05,1.34906e-05,2.84681e-05,4.12632e-05,-7.05984e-06,2.4611e-05
1245,7.54193e-06,1.51747e-05,2.34272e-05,3.7335e-05,-8.18582e-06,2.10881e-05
1246,-9.18167e-06,1.23498e-05,1.69278e-05,3.98267e-05,-4.98534e-06,1.87086e-05
1247,-1.58359e-05,9.35956e-06,1.72231e-05,4.42756e-05,1.59492e-06,2.12727e-05
1248,-4.1752e-06,7.82835e-06,2.62093e-05,4.62992e-05,5.80906e-06,2.55037e-05
1249,1.16553e-05,6.19333e-06,3.51638e-05,4.57647e-05,2.42266e-06,2.63547e-05
1250,1.9586e-05,6.5559e-06,3.64208e-05,4.28976e-05,-5.66591e-06,2.26693e-05
1251,1.27171e-05,1.12762e-05,3.01738e-05,4.17284e-05,-1.04729e-05,1.59489e-05
1252,-1.04441e-05,1.43895e-05,2.23341e-05,4.6371e-05,-7.77072e-06,5.83846e-06
1253,-2.61249e-05,1.08127e-05,2.30871e-05,5.43824e-05,-2.69839e-06,-2.69546e-06
1254,-1.37137e-05,7.60155e-06,3.2482e-05,5.85387e-05,-2.09307e-06,-2.13707e-06
1255,9.15971e-06,1.13781e-05,3.77932e-05,5.81297e-05,-7.28215e-06,7.50743e-06
1256,1.60259e-05,1.74614e-05,3.62942e-05,5.60481e-05,-1.42623e-05,1.76551e-05
1257,5.15528e-06,2.0934e-05,3.48733e-05,5.30482e-05,-1.85287e-05,2.31757e-05
1258,-1.6394e-05,1.98794e-05,2.96745e-05,5.25922e-05,-2.0824e-05,2.05019e-05
1259,-2.8187e-05,1.53913e-05,2.65128e-05,5.62896e-05,-2.31508e-05,1.50487e-05
1260,-1.25428e-05,1.22915e-05,3.42191e-05,5.89486e-05,-2.44218e-05,1.57513e-05
1261,4.71089e-06,1.3973e-05,4.14402e-05,5.71913e-05,-2.26548e-05,1.88953e-05
1262,6.2196e-06,1.92084e-05,4.33221e-05,5.36958e-05,-2.171e-05,1.91506e-05
1263,7.4686e-06,2.12162e-05,4.33128e-05,5.23295e-05,-2.44177e-05,1.62816e-05
1264,1.05795e-05,1.76311e-05,4.1648e-05,5.24312e-05,-2.66767e-05,1.42615e-05
1265,1.23017e-05,1.75568e-05,4.2017e-05,4.91096e-05,-2.33007e-05,1.99888e-05
1266,1.57857e-06,2.14543e-05,4.0041e-05,4.33866e-05,-1.68738e-05,2.33111e-05
1267,-1.96471e-05,1.94204e-05,3.33273e-05,4.12541e-05,-1.35284e-05,1.7447e-05
1268,-2.61688e-05,1.40662e-05,2.82464e-05,4.11013e-05,-1.23303e-05,1.2561e-05
1269,-9.88179e-06,1.31213e-05,3.04957e-05,4.19016e-05,-1.02245e-05,1.46837e-05
1270,8.44912e-06,1.61972e-05,3.53796e-05,4.16849e-05,-9.77931e-06,1.94585e-05
1271,1.41158e-05,1.92571e-05,3.77756e-05,3.74013e-05,-1.27178e-05,2.15665e-05
1272,1.44304e-06,1.88614e-05,3.56446e-05,3.09541e-05,-1.50389e-05,1.81529e-05
1273,-2.00675e-05,1.45838e-05,3.00262e-05,2.92591e-05,-1.36359e-05,1.1559e-05
1274,-2.58986e-05,1.22793e-05,2.78639e-05,3.4628e-05,-9.38386e-06,9.12466e-06
1275,-1.05855e-05,1.38611e-05,3.26996e-05,3.96085e-05,-6.16517e-06,1.38707e-05
1276,4.79341e-06,1.63928e-05,3.82414e-05,3.91873e-05,-6.91806e-06,2.10896e-05
1277,6.35904e-06,1.76186e-05,3.73766e-05,3.41675e-05,-1.2009e-05,2.58044e-05
1278,-3.86415e-06,1.70068e-05,3.07921e-05,2.97316e-05,-1.82588e-05,2.72326e-05
1279,-2.24687e-05,1.38769e-05,2.42707e-05,3.09467e-05,-1.99308e-05,2.32173e-05
1280,-3.17667e-05,9.17742e-06,2.77319e-05,3.72788e-05,-1.54706e-05,1.64957e-05
1281,-1.92998e-05,6.14176e-06,3.96059e-05,4.38216e-05,-1.22309e-05,1.50901e-05
1282,-1.76615e-06,5.44192e-06,4.77505e-05,4.85994e-05,-1.47057e-05,1.93315e-05
1283,2.49961e-06,7.50137e-06,4.59089e-05,4.79464e-05,-1.76557e-05,2.33263e-05
1284,-5.33722e-06,1.2242e-05,3.79751e-05,4.65859e-05,-1.70997e-05,2.6411e-05
1285,-2.68394e-05,1.34815e-05,2.90231e-05,4.85387e-05,-1.29419e-05,2.38698e-05
1286,-4.2e-05,9.06634e-06,2.88984e-05,5.07697e-05,-1.00859e-05,1.55755e-05
1287,-2.57782e-05,4.77055e-06,4.27974e-05,5.35529e-05,-1.11826e-05,1.17938e-05
1288,-3.50366e-06,5.32748e-06,5.05561e-05,5.49715e-05,-1.20782e-05,1.15119e-05
1289,4.60119e-06,1.0333e-05,4.32353e-05,5.64856e-05,-1.26638e-05,1.00025e-05
1290,6.11382e-06,1.29088e-05,3.74276e-05,5.83962e-05,-1.52611e-05,1.2752e-05
1291,3.5152e-06,1.23965e-05,3.89601e-05,5.6042e-05,-1.80428e-05,1.80742e-05
1292,3.04786e-06,1.30616e-05,4.16261e-05,5.07808e-05,-1.75834e-05,1.92751e-05
1293,-1.17869e-06,1.48821e-05,3.55929e-05,4.86568e-05,-1.27776e-05,1.40077e-05
1294,-1.51481e-05,1.40971e-05,2.77098e-05,5.41246e-05,-6.49487e-06,8.23817e-06
1295,-2.07537e-05,1.05823e-05,3.04917e-05,6.18093e-05,-1.00504e-06,8.58497e-06
1296,-9.28542e-06,6.10098e-06,4.19162e-05,6.58255e-05,1.63332e-07,1.33483e-05
1297,1.67776e-06,3.69752e-06,5.11361e-05,6.64425e-05,-4.55976e-06,1.88409e-05
1298,2.03992e-06,6.25002e-06,5.37505e-05,6.4097e-05,-1.05485e-05,2.27948e-05
1299,-9.202e-06,1.2038e-05,5.01605e-05,6.03699e-05,-1.01405e-05,2.15032e-05
1300,-2.43706e-05,1.45406e-05,4.27974e-05,6.09076e-05,-3.39499e-06,1.73695e-05
1301,-2.75967e-05,1.24195e-05,4.02566e-05,6.69343e-05,1.36772e-06,1.66395e-05
1302,-1.54131e-05,8.92497e-06,4.4119e-05,7.20037e-05,6.50022e-07,1.99391e-05
1303,-2.76129e-06,7.27153e-06,4.67675e-05,7.11072e-05,-2.93015e-06,2.03045e-05
1304,1.40002e-06,8.28152e-06,4.42931e-05,6.52328e-05,-5.96401e-06,1.57199e-05
1305,-4.714e-06,9.32713e-06,3.8517e-05,6.17115e-05,-8.59845e-06,1.23467e-05
1306,-2.24305e-05,7.32119e-06,3.14922e-05,6.50538e-05,-1.04908e-05,1.2536e-05
1307,-3.20536e-05,3.23886e-06,3.20362e-05,6.86265e-05,-1.00998e-05,1.62466e-05
1308,-1.63307e-05,7.1471e-07,4.29043e-05,6.65727e-05,-7.96179e-06,2.16442e-05
1309,5.7122e-06,9.77994e-07,5.29956e-05,6.56539e-05,-6.88202e-06,2.44268e-05
1310,9.48885e-06,4.5735e-06,5.1277e-05,6.83223e-05,-9.33221e-06,2.08176e-05
1311,-5.48483e-06,8.33026e-06,4.11651e-05,6.95262e-05,-1.18131e-05,1.18709e-05
1312,-2.8733e-05,8.54641e-06,3.114e-05,6.93869e-05,-9.95489e-06,5.14498e-07
1313,-3.36658e-05,4.57727e-06,3.01728e-05,6.93194e-05,-6.60458e-06,-7.47526e-06
1314,-8.17574e-06,2.49914e-06,3.86176e-05,6.97716e-05,-2.56515e-06,-6.16526e-06
1315,9.34228e-06,3.75642e-06,4.23426e-05,7.0747e-05,-4.9334e-06,2.22284e-06
1316,7.07181e-06,2.70497e-06,4.18189e-05,7.0759e-05,-1.33825e-05,7.39667e-06
1317,5.98038e-06,4.59359e-07,4.42302e-05,7.15051e-05,-1.58349e-05,5.81739e-06
1318,5.93206e-06,3.90521e-06,4.36734e-05,7.24258e-05,-1.39149e-05,3.87859e-06
1319,5.22006e-06,1.28475e-05,3.95358e-05,6.86717e-05,-1.25961e-05,9.90617e-06
1320,-7.18419e-06,1.74316e-05,3.26784e-05,6.16303e-05,-1.10273e-05,2.44857e-05
1321,-2.90649e-05,1.29158e-05,2.63097e-05,5.82515e-05,-6.46449e-06,3.14956e-05
1322,-3.6433e-05,8.17405e-06,2.90738e-05,5.71057e-05,-2.15358e-06,1.99786e-05
1323,-2.10244e-05,8.09914e-06,3.77928e-05,5.64637e-05,-1.93928e-06,-1.51786e-06
1324,-6.39649e-06,1.11598e-05,4.32105e-05,5.55256e-05,-6.5492e-06,-2.18943e-05
1325,-2.35666e-06,1.43751e-05,4.37141e-05,5.20427e-05,-1.07915e-05,-2.73608e-05
1326,-8.12497e-06,1.61815e-05,3.91811e-05,4.65258e-05,-1.11139e-05,-1.61892e-05
1327,-1.85128e-05,1.54909e-05,3.2704e-05,4.35172e-05,-1.2517e-05,-2.37771e-06
1328,-1.8566e-05,1.41561e-05,3.30199e-05,4.28741e-05,-1.68215e-05,3.80522e-06
1329,-6.78213e-06,1.57268e-05,4.04808e-05,4.0307e-05,-2.05516e-05,6.58961e-06
1330,2.10018e-06,1.94643e-05,4.66998e-05,3.59712e-05,-2.06311e-05,1.10185e-05
1331,1.31291e-06,2.15839e-05,4.75383e-05,3.2528e-05,-1.75056e-05,1.33902e-05
1332,-4.60414e-06,2.11201e-05,4.24341e-05,3.25025e-05,-1.35849e-05,1.00312e-05
1333,-1.47691e-05,1.93093e-05,3.26463e-05,3.40928e-05,-1.02946e-05,4.94137e-06
1334,-1.74129e-05,1.48782e-05,2.92469e-05,3.41738e-05,-5.36412e-06,6.08066e-06
1335,-4.18859e-06,1.24866e-05,3.73073e-05,3.21739e-05,-9.49139e-07,1.16231e-05
1336,1.10332e-05,1.40547e-05,4.61067e-05,3.0553e-05,-2.48972e-06,1.4219e-05
1337,1.36969e-05,1.52314e-05,4.96269e-05,2.89134e-05,-6.71412e-06,1.62865e-05
1338,4.77237e-06,1.29609e-05,4.71863e-05,2.84808e-05,-7.47217e-06,1.92133e-05
1339,-1.68128e-05,7.36462e-06,3.65446e-05,3.32637e-05,-6.87812e-06,1.44413e-05
1340,-3.08691e-05,4.45067e-06,3.02232e-05,4.12381e-05,-7.45856e-06,1.10324e-05
1341,-1.81322e-05,8.7097e-06,3.57411e-05,4.6788e-05,-7.76604e-06,1.87817e-05
1342,-1.20864e-06,1.38329e-05,3.91695e-05,4.59105e-05,-7.23777e-06,2.72911e-05
1343,1.69773e-06,1.53474e-05,3.8634e-05,4.2185e-05,-7.46907e-06,3.04587e-05
1344,-3.38712e-07,1.45737e-05,3.93656e-05,4.10124e-05,-7.35326e-06,3.17003e-05
1345,1.81905e-07,1.42907e-05,4.05237e-05,4.05402e-05,-6.98093e-06,3.22241e-05
1346,9.39057e-07,1.80684e-05,4.21165e-05,3.78525e-05,-9.39376e-06,2.95805e-05
1347,-9.46604e-06,2.24087e-05,3.8921e-05,3.4804e-05,-1.24673e-05,2.08075e-05
1348,-2.47409e-05,2.17086e-05,3.19089e-05,3.80822e-05,-1.32936e-05,9.80008e-06
1349,-2.24904e-05,1.80204e-05,3.02227e-05,4.42502e-05,-1.11415e-05,3.85704e-06
1350,-2.49561e-06,1.5521e-05,3.58067e-05,4.88731e-05,-7.08518e-06,7.84445e-06
1351,1.11999e-05,1.72335e-05,4.25003e-05,4.9326e-05,-3.9542e-06,1.50689e-05
1352,1.27578e-05,2.2606e-05,4.43773e-05,4.51433e-05,-3.10163e-06,1.49147e-05
1353,4.17752e-06,2.58301e-05,3.5947e-05,4.05194e-05,-2.52406e-06,7.09523e-06
1354,-1.03246e-05,2.11035e-05,2.19723e-05,4.11928e-05,-2.13392e-07,2.04143e-06
1355,-1.62422e-05,1.37843e-05,1.70078e-05,4.61693e-05,2.60811e-06,5.69952e-06
1356,-6.38918e-06,1.13143e-05,2.4919e-05,5.01359e-05,3.91731e-06,1.42242e-05
1357,6.36681e-06,1.3236e-05,3.47739e-05,5.21046e-05,3.03684e-06,1.94602e-05
1358,9.20701e-06,1.56117e-05,3.82326e-05,5.08736e-05,3.70636e-07,1.83995e-05
1359,2.41355e-06,1.50049e-05,3.44929e-05,4.75784e-05,-3.23067e-06,1.55418e-05
1360,-1.22137e-05,9.72574e-06,2.63296e-05,4.72491e-05,-6.45245e-06,1.3611e-05
1361,-2.08152e-05,5.17231e-06,2.36313e-05,5.08791e-05,-8.11007e-06,1.50263e-05
1362,-1.14839e-05,7.71339e-06,3.05248e-05,5.31477e-05,-8.25419e-06,1.80921e-05
1363,5.45052e-06,1.23726e-05,3.58121e-05,5.39458e-05,-7.25206e-06,1.52675e-05
1364,1.23402e-05,1.22862e-05,3.29196e-05,5.21262e-05,-5.13746e-06,7.21942e-06
1365,3.97935e-06,9.33863e-06,2.66082e-05,4.70039e-05,-3.3936e-06,4.12466e-06
1366,-2.00153e-05,6.0853e-06,1.81905e-05,4.55269e-05,-3.54731e-06,1.10028e-05
1367,-3.22195e-05,4.56751e-06,1.46627e-05,5.25717e-05,-4.21537e-06,2.74133e-05
1368,-1.45142e-05,9.74426e-06,1.99095e-05,5.84688e-05,-3.90783e-06,4.31368e-05
1369,8.16995e-07,1.56881e-05,2.16592e-05,5.76075e-05,-6.32071e-06,3.96032e-05
1370,8.23388e-07,1.62641e-05,1.89331e-05,5.70287e-05,-1.29396e-05,2.19989e-05
1371,9.58767e-07,1.07275e-05,2.09206e-05,5.85945e-05,-1.55195e-05,1.26599e-05
1372,4.25512e-06,6.79683e-06,2.71169e-05,5.84004e-05,-1.23013e-05,1.42576e-05
1373,8.1955e-06,1.04187e-05,3.11177e-05,5.35565e-05,-7.83093e-06,1.87755e-05
1374,6.64612e-07,1.56315e-05,2.72013e-05,4.67799e-05,-4.69822e-06,2.35314e-05
1375,-1.68846e-05,1.60746e-05,1.93981e-05,4.67254e-05,-3.82029e-06,2.62841e-05
1376,-2.23314e-05,1.05461e-05,1.91144e-05,5.40767e-05,-2.3636e-06,2.2577e-05
1377,-6.69736e-06,4.38331e-06,2.88975e-05,6.09007e-05,-1.91006e-06,1.38528e-05
1378,9.6696e-06,1.35547e-06,3.84135e-05,6.09091e-05,-4.53275e-06,5.9761e-06
1379,1.17447e-05,5.30821e-06,4.02405e-05,5.58015e-05,-7.23683e-06,9.79446e-06
1380,-4.07766e-06,1.25814e-05,3.39431e-05,5.11245e-05,-6.99091e-06,1.86265e-05
1381,-2.675e-05,1.41658e-05,2.5734e-05,5.29942e-05,-5.59647e-06,1.72651e-05
1382,-3.2742e-05,1.06345e-05,2.62194e-05,5.81789e-05,-7.31702e-06,7.1125e-06
1383,-1.73725e-05,8.50231e-06,3.69899e-05,5.95979e-05,-1.15499e-05,5.25253e-07
1384,-4.89565e-07,8.80302e-06,4.63562e-05,5.66218e-05,-1.46368e-05,3.00885e-06
1385,2.90387e-06,8.8626e-06,4.55087e-05,5.24877e-05,-1.49891e-05,1.26195e-05
1386,-7.04336e-06,9.00607e-06,3.49884e-05,5.00628e-05,-1.44691e-05,2.43729e-05
1387,-2.45832e-05,8.65853e-06,2.18677e-05,5.02252e-05,-1.17847e-05,2.92361e-05
1388,-3.14195e-05,7.07956e-06,1.93905e-05,5.26397e-05,-6.08427e-06,2.40848e-05
1389,-1.90528e-05,4.67449e-06,2.97578e-05,5.63433e-05,-1.53916e-06,1.29643e-05
1390,-3.67741e-06,1.02557e-06,3.92003e-05,5.90664e-05,-5.54344e-07,5.65962e-06
1391,-1.02509e-06,-1.13369e-06,4.04157e-05,5.90042e-05,-2.07387e-06,9.31777e-06
1392,-1.07e-05,3.65846e-06,3.56748e-05,5.84643e-05,-5.55236e-06,1.65749e-05
1393,-3.11543e-05,9.76094e-06,2.54726e-05,5.65466e-05,-1.10004e-05,1.49804e-05
1394,-3.96552e-05,1.01495e-05,1.98214e-05,5.5281e-05,-1.40814e-05,9.74106e-06
1395,-1.91318e-05,8.22875e-06,2.75855e-05,5.52716e-05,-1.04386e-05,1.28919e-05
1396,2.88603e-06,5.66487e-06,3.53042e-05,5.56498e-05,-3.23015e-06,1.9274e-05
1397,7.56553e-06,4.35187e-06,3.6821e-05,5.72185e-05,-2.37283e-06,1.94305e-05
1398,4.62533e-06,5.71802e-06,3.90656e-05,5.77692e-05,-1.08419e-05,1.87771e-05
1399,-8.10365e-07,7.92567e-06,4.14712e-05,5.3909e-05,-1.79525e-05,1.98094e-05
1400,-5.34683e-06,9.08556e-06,4.5683e-05,4.66364e-05,-1.46493e-05,2.27715e-05
1401,-1.54462e-05,8.61418e-06,4.50314e-05,4.05947e-05,-6.99675e-06,2.44222e-05
1402,-3.00908e-05,8.12718e-06,3.77787e-05,4.07532e-05,-2.16334e-06,1.9813e-05
1403,-2.89653e-05,7.54509e-06,3.78372e-05,4.62357e-05,-1.21943e-07,1.19738e-05
1404,-9.72377e-06,6.97241e-06,4.73231e-05,5.30528e-05,2.55921e-07,8.25415e-06
1405,7.852e-06,4.37419e-06,5.46791e-05,5.46837e-05,-5.12782e-07,1.04749e-05
1406,1.38263e-05,3.81539e-06,5.39232e-05,5.06704e-05,-3.20702e-06,1.7244e-05
1407,5.5667e-06,8.16342e-06,4.69271e-05,4.72623e-05,-5.97574e-06,2.35557e-05
1408,-1.10618e-05,1.19701e-05,3.90573e-05,4.84427e-05,-6.86273e-06,2.55105e-05
1409,-1.73538e-05,1.28432e-05,3.75321e-05,5.23888e-05,-6.48899e-06,2.41267e-05
1410,-4.8874e-06,1.34923e-05,4.28727e-05,5.53209e-05,-6.99203e-06,2.40024e-05
1411,1.20164e-05,1.71353e-05,4.73933e-05,5.57449e-05,-8.1164e-06,2.44374e-05
1412,1.71981e-05,2.29004e-05,4.72151e-05,5.18285e-05,-7.46614e-06,2.24814e-05
1413,6.12731e-06,2.73025e-05,4.43256e-05,4.60005e-05,-4.15048e-06,1.95736e-05
1414,-1.56777e-05,2.52264e-05,3.77566e-05,4.57591e-05,-3.7134e-07,1.81881e-05
1415,-2.53453e-05,1.8251e-05,3.24452e-05,5.25489e-05,4.07036e-07,2.04351e-05
1416,-9.00466e-06,1.24192e-05,3.62295e-05,5.82369e-05,-2.34183e-06,2.22046e-05
1417,1.261e-05,1.12394e-05,4.2634e-05,5.94352e-05,-7.29498e-06,2.25095e-05
1418,1.71808e-05,1.53771e-05,4.35364e-05,5.88189e-05,-1.11323e-05,2.22943e-05
1419,7.47108e-06,2.17605e-05,3.95828e-05,5.92812e-05,-1.07667e-05,2.05747e-05
1420,-1.16194e-05,1.88055e-05,3.08952e-05,6.34852e-05,-9.36996e-06,1.38276e-05
1421,-2.21348e-05,7.22629e-06,2.70279e-05,6.69643e-05,-1.00569e-05,8.21173e-06
1422,-7.36359e-06,2.30114e-06,3.49145e-05,6.46225e-05,-1.18536e-05,1.09205e-05
1423,5.5531e-06,4.16569e-06,4.22264e-05,5.96941e-05,-1.34082e-05,1.40729e-05
1424,6.91719e-06,8.08473e-06,4.18258e-05,5.51105e-05,-1.74035e-05,1.3421e-05
1425,1.08334e-05,1.27561e-05,4.02669e-05,5.49742e-05,-2.13538e-05,1.41852e-05
1426,1.16473e-05,1.49771e-05,4.00166e-05,5.54048e-05,-1.86035e-05,1.93172e-05
1427,8.63323e-06,1.44554e-05,3.97241e-05,5.11884e-05,-1.27012e-05,2.53891e-05
1428,-5.35267e-06,1.19713e-05,3.80203e-05,4.73381e-05,-1.11385e-05,2.4915e-05
1429,-2.50458e-05,9.30434e-06,3.4222e-05,4.92827e-05,-1.37066e-05,1.91559e-05
1430,-2.672e-05,8.83422e-06,3.32622e-05,5.47016e-05,-1.48647e-05,1.70583e-05
1431,-7.99837e-06,1.01239e-05,3.86572e-05,5.93193e-05,-1.56148e-05,1.93677e-05
1432,8.47364e-06,1.13862e-05,4.61143e-05,5.8069e-05,-1.66108e-05,1.64133e-05
1433,1.20851e-05,1.39351e-05,4.8861e-05,5.0416e-05,-1.69491e-05,1.01249e-05
1434,2.69026e-06,1.71486e-05,4.53718e-05,4.2579e-05,-1.65298e-05,8.35583e-06
1435,-1.3538e-05,1.78582e-05,4.1367e-05,4.17277e-05,-1.71696e-05,1.14789e-05
1436,-2.01241e-05,1.64706e-05,4.4291e-05,4.54269e-05,-1.76886e-05,1.39486e-05
1437,-9.27924e-06,1.47847e-05,5.23558e-05,4.94925e-05,-1.50329e-05,1.43705e-05
1438,4.69402e-06,1.35749e-05,5.76409e-05,5.16332e-05,-1.01792e-05,1.34577e-05
1439,7.30352e-06,1.34613e-05,5.63129e-05,4.82523e-05,-7.50934e-06,1.24719e-05
1440,-9.74469e-07,1.39925e-05,4.66868e-05,4.21186e-05,-8.80885e-06,1.18145e-05
1441,-1.55324e-05,1.32177e-05,3.31785e-05,3.96015e-05,-1.06801e-05,8.35715e-06
1442,-2.19222e-05,1.21305e-05,2.96858e-05,4.24711e-05,-1.25132e-05,3.77747e-06
1443,-1.00507e-05,1.34337e-05,3.99524e-05,4.72595e-05,-1.53134e-05,3.6521e-06
1444,8.08699e-06,1.62957e-05,4.98612e-05,5.0219e-05,-1.76428e-05,7.17421e-06
1445,1.36909e-05,1.9385e-05,5.02464e-05,4.67826e-05,-1.89849e-05,9.2388e-06
1446,2.61696e-06,2.24562e-05,4.35457e-05,3.95042e-05,-2.06792e-05,9.13053e-06
1447,-2.39282e-05,2.34639e-05,3.51878e-05,3.73201e-05,-2.05092e-05,4.94301e-06
1448,-3.8512e-05,2.32151e-05,3.68536e-05,4.00751e-05,-1.80136e-05,8.05065e-07
1449,-1.91939e-05,2.10972e-05,4.62787e-05,4.10084e-05,-1.4185e-05,1.58871e-06
1450,-2.2686e-06,1.72422e-05,4.68349e-05,4.22873e-05,-1.29425e-05,1.65589e-06
1451,-5.96081e-06,1.479e-05,4.21292e-05,4.21982e-05,-1.3003e-05,1.40517e-06
1452,-1.01695e-05,1.51048e-05,4.06934e-05,4.23352e-05,-1.36675e-05,9.05653e-06
1453,-7.69375e-06,1.78406e-05,4.14151e-05,4.34889e-05,-1.37939e-05,1.75112e-05
1454,-1.85318e-06,2.00143e-05,4.12228e-05,4.31647e-05,-9.15035e-06,1.85783e-05
1455,-7.88995e-06,2.05878e-05,3.58915e-05,4.40901e-05,-3.6768e-06,1.18432e-05
1456,-2.68427e-05,2.08075e-05,2.57676e-05,4.87329e-05,-2.54937e-06,2.53575e-06
1457,-3.36063e-05,2.00118e-05,2.08244e-05,5.48404e-05,-6.45945e-06,2.67883e-06
1458,-1.7817e-05,1.8252e-05,2.5555e-05,6.06605e-05,-9.80359e-06,1.85873e-05
1459,-4.65197e-07,1.77468e-05,3.21789e-05,6.46291e-05,-8.63036e-06,4.21094e-05
1460,3.82319e-06,1.95197e-05,3.51153e-05,6.31831e-05,-4.71745e-06,5.32033e-05
1461,-5.99648e-06,2.16718e-05,3.07126e-05,5.77173e-05,-3.19909e-06,3.68821e-05
1462,-2.07471e-05,2.05022e-05,2.23359e-05,5.58931e-05,-5.34697e-06,5.75482e-06
1463,-2.54575e-05,1.75633e-05,2.04996e-05,6.0606e-05,-9.38091e-06,-1.13582e-05
1464,-1.44066e-05,1.36214e-05,2.74988e-05,6.54963e-05,-1.27994e-05,-1.43266e-06
1465,-6.31635e-07,8.39678e-06,3.44269e-05,6.57472e-05,-1.39709e-05,1.83563e-05
1466,4.16475e-06,3.35824e-06,3.76905e-05,6.10652e-05,-1.18558e-05,2.65438e-05
1467,-9.82173e-07,-6.77399e-07,3.68876e-05,5.54858e-05,-7.98196e-06,2.03642e-05
1468,-1.44319e-05,-3.73062e-06,3.12527e-05,5.4569e-05,-3.86692e-06,9.0237e-06
1469,-1.99749e-05,-5.53683e-06,2.87259e-05,5.896e-05,-6.1914e-07,3.83266e-06
1470,-6.16383e-06,-4.16144e-06,3.46288e-05,6.29326e-05,-2.63216e-06,7.99665e-06
1471,9.70692e-06,-3.74635e-07,4.03031e-05,6.2251e-05,-8.6786e-06,1.35405e-05
1472,1.16144e-05,3.77939e-06,3.96464e-05,5.62614e-05,-1.17073e-05,1.33468e-05
1473,4.93629e-07,8.6509e-06,3.55541e-05,4.95178e-05,-9.60845e-06,1.22764e-05
1474,-2.15192e-05,1.03814e-05,2.81901e-05,4.64369e-05,-8.87539e-06,1.16521e-05
1475,-2.79124e-05,7.81655e-06,2.49707e-05,4.74879e-05,-9.41872e-06,9.35232e-06
1476,-4.39079e-06,6.77009e-06,3.23994e-05,5.15511e-05,-5.85973e-06,5.66582e-06
1477,1.33868e-05,8.95569e-06,3.77238e-05,5.35483e-05,-3.62359e-06,-9.68278e-06
1478,1.17693e-05,1.13162e-05,3.93226e-05,5.23036e-05,-8.18274e-06,-2.94008e-05
1479,1.18177e-05,1.08287e-05,4.36223e-05,5.21491e-05,-1.13408e-05,-2.8503e-05
1480,1.47738e-05,9.24476e-06,4.8761e-05,5.09795e-05,-9.62752e-06,-1.01078e-05
1481,1.42008e-05,9.51022e-06,5.0666e-05,4.79328e-05,-5.43416e-06,3.59614e-06
1482,8.96825e-08,1.24455e-05,4.10004e-05,4.49502e-05,-9.16358e-07,5.11895e-06
1483,-2.14909e-05,1.40994e-05,2.68381e-05,4.48021e-05,6.31107e-07,3.6699e-06
1484,-2.47465e-05,1.32674e-05,2.55634e-05,4.65609e-05,-1.32384e-07,4.8537e-06
1485,-8.16339e-06,1.0352e-05,3.8627e-05,4.8785e-05,-1.2336e-06,1.13409e-05
1486,5.46113e-06,9.3345e-06,4.86909e-05,4.84303e-05,-4.50558e-07,1.87733e-05
1487,7.90778e-06,1.4392e-05,4.81179e-05,4.4409e-05,2.57992e-07,1.98187e-05
1488,-1.78402e-06,1.92917e-05,4.07939e-05,4.06932e-05,-1.78239e-06,1.45255e-05
1489,-1.75919e-05,1.56817e-05,3.26368e-05,4.2972e-05,-4.17745e-06,9.39431e-06
1490,-2.1973e-05,5.93676e-06,3.14989e-05,5.16897e-05,-3.97237e-06,9.21754e-06
1491,-8.83156e-06,-1.45594e-06,3.96664e-05,5.95458e-05,-3.00734e-06,1.24521e-05
1492,5.73848e-06,-1.87565e-06,4.8325e-05,6.24547e-05,-5.04168e-06,1.58179e-05
1493,7.31425e-06,2.82091e-06,4.98871e-05,6.06801e-05,-8.29402e-06,1.78285e-05
1494,-4.11932e-06,6.25309e-06,4.42402e-05,5.84025e-05,-9.14667e-06,1.80896e-05
1495,-2.29076e-05,5.05577e-06,3.34682e-05,5.92226e-05,-7.94195e-06,1.55782e-05
1496,-3.04108e-05,3.46332e-06,2.7538e-05,6.19783e-05,-7.01837e-06,1.34293e-05
1497,-1.45079e-05,6.4789e-06,3.25985e-05,6.16546e-05,-7.05252e-06,1.39122e-05
1498,8.09891e-06,1.17219e-05,4.10848e-05,5.80491e-05,-9.1028e-06,1.47596e-05
1499,1.45153e-05,1.59217e-05,4.56023e-05,5.16023e-05,-1.07242e-05,1.56349e-05
1500,2.0505e-06,1.67197e-05,4.34497e-05,4.35364e-05,-9.39065e-06,1.84741e-05
1501,-2.31023e-05,1.32486e-05,3.41808e-05,4.08141e-05,-8.11845e-06,2.16905e-05
1502,-3.35708e-05,9.6718e-06,3.07947e-05,4.24039e-05,-8.63729e-06,2.5092e-05
1503,-1.31001e-05,7.47464e-06,3.87277e-05,4.43792e-05,-9.18123e-06,3.21519e-05
1504,5.43022e-06,5.41857e-06,4.27289e-05,4.69179e-05,-1.03014e-05,2.9669e-05
1505,7.70923e-06,4.02546e-06,3.89037e-05,4.76593e-05,-1.08388e-05,1.46074e-05
1506,6.66727e-06,1.81966e-06,3.64725e-05,4.87077e-05,-1.0008e-05,6.39773e-06
1507,6.11095e-06,3.79738e-06,3.67224e-05,4.73967e-05,-1.02249e-05,9.35743e-06
1508,8.98677e-06,1.03035e-05,3.82324e-05,4.27216e-05,-1.05237e-05,1.58765e-05
1509,3.57407e-06,1.49811e-05,3.51117e-05,3.79182e-05,-1.07993e-05,1.67516e-05
1510,-1.29116e-05,1.59669e-05,2.73733e-05,3.91675e-05,-8.6188e-06,1.37732e-05
1511,-1.94217e-05,1.57951e-05,2.47771e-05,4.6046e-05,-6.57917e-06,1.39023e-05
1512,-8.09099e-06,1.45717e-05,3.16015e-05,5.05744e-05,-5.79767e-06,1.7466e-05
1513,3.24411e-06,1.23512e-05,4.02449e-05,4.88766e-05,-6.85477e-06,1.78906e-05
1514,3.87141e-06,1.26563e-05,4.17271e-05,4.28846e-05,-9.04506e-06,1.18645e-05
1515,-8.53722e-06,1.46218e-05,3.5652e-05,3.92307e-05,-1.04256e-05,3.86653e-06
1516,-2.56541e-05,1.55371e-05,2.7454e-05,4.19372e-05,-1.15418e-05,3.85733e-06
1517,-2.7818e-05,1.62409e-05,2.59798e-05,4.90469e-05,-1.32102e-05,1.23711e-05
1518,-9.14581e-06,1.84282e-05,3.33555e-05,5.42071e-05,-1.64474e-05,1.73685e-05
1519,1.14361e-05,2.04787e-05,4.16181e-05,5.51916e-05,-1.81132e-05,1.34562e-05
1520,1.7733e-05,1.96826e-05,4.28611e-05,5.29804e-05,-1.55065e-05,7.61314e-06
1521,9.57211e-06,1.52383e-05,3.73891e-05,5.15606e-05,-1.20964e-05,7.57715e-06
1522,-8.99021e-06,1.15795e-05,3.09007e-05,5.41154e-05,-1.23972e-05,9.67993e-06
1523,-2.06992e-05,1.19378e-05,3.27967e-05,5.90089e-05,-1.27046e-05,7.22744e-06
1524,-1.09311e-05,1.31879e-05,4.38049e-05,5.99967e-05,-1.04085e-05,5.32376e-06
1525,4.97522e-06,1.27075e-05,5.0973e-05,5.6308e-05,-6.86369e-06,1.0008e-05
1526,7.91699e-06,1.05634e-05,5.10594e-05,5.10975e-05,-6.19759e-06,1.96091e-05
1527,7.13234e-07,9.8759e-06,4.7864e-05,4.85252e-05,-9.72994e-06,3.42789e-05
1528,-1.64575e-05,1.28628e-05,3.96545e-05,5.17875e-05,-1.55189e-05,3.56169e-05
1529,-2.65869e-05,1.4595e-05,3.39837e-05,5.59679e-05,-2.05699e-05,1.39983e-05
1530,-1.13022e-05,1.54263e-05,3.90905e-05,5.51042e-05,-1.87415e-05,-4.01988e-06
1531,2.05571e-06,1.78785e-05,4.25762e-05,5.26743e-05,-1.13438e-05,5.48289e-07
1532,1.86171e-06,1.80247e-05,3.91411e-05,5.3957e-05,-6.42701e-06,1.11484e-05
1533,3.0169e-06,1.40375e-05,4.09289e-05,5.62148e-05,-3.76808e-06,1.47398e-05
1534,5.72893e-06,1.12873e-05,4.42984e-05,5.46631e-05,-2.26353e-06,1.25425e-05
1535,9.38341e-06,1.3671e-05,4.36633e-05,5.07509e-05,-2.44037e-06,8.96282e-06
1536,1.19716e-06,1.46381e-05,3.66023e-05,4.71675e-05,-4.11606e-06,5.61839e-06
1537,-1.79738e-05,9.91714e-06,2.63114e-05,4.74832e-05,-5.97371e-06,5.9119e-07
1538,-2.22565e-05,5.94294e-06,2.76013e-05,5.05682e-05,-9.07408e-06,4.21378e-06
1539,-6.07411e-06,6.8315e-06,3.80671e-05,5.24113e-05,-1.3813e-05,1.80743e-05
1540,7.1443e-06,9.51394e-06,4.26218e-05,5.23096e-05,-1.64183e-05,3.07934e-05
1541,8.74125e-06,1.0304e-05,3.84551e-05,5.08949e-05,-1.36176e-05,3.24257e-05
1542,-1.95429e-07,8.73248e-06,2.901e-05,5.08312e-05,-9.88918e-06,2.47754e-05
1543,-1.32035e-05,5.79541e-06,1.93207e-05,5.28026e-05,-9.3821e-06,1.52186e-05
1544,-1.52216e-05,3.55486e-06,1.89124e-05,5.47767e-05,-1.00577e-05,1.23009e-05
1545,-2.24414e-06,3.54783e-06,2.85683e-05,5.39706e-05,-1.17691e-05,1.63903e-05
1546,1.0807e-05,7.46038e-06,3.77583e-05,5.1299e-05,-1.40974e-05,2.06891e-05
1547,1.05257e-05,1.42661e-05,3.93695e-05,4.68933e-05,-1.67746e-05,2.37401e-05
1548,-3.1005e-06,1.82533e-05,3.30787e-05,4.17912e-05,-1.89689e-05,2.4587e-05
1549,-2.13338e-05,1.55785e-05,2.25947e-05,4.02172e-05,-1.94814e-05,2.10476e-05
1550,-2.49362e-05,1.20945e-05,1.95573e-05,4.45968e-05,-1.63329e-05,1.74999e-05
1551,-9.50981e-06,1.34238e-05,2.9926e-05,5.01404e-05,-1.22354e-05,2.06928e-05
1552,6.28411e-06,1.70908e-05,4.10143e-05,5.23655e-05,-1.09236e-05,2.75048e-05
