Time_Index,DELTOID_Affected,DELTOID_NonAffected,BICEPS_Affected,BICEPS_NonAffected,FOREARM_Affected,FOREARM_NonAffected
1,-3.73832e-05,-4.31452e-07,2.63487e-05,4.72009e-05,-1.14361e-05,-2.4806e-06
2,-7.76882e-06,-3.32681e-06,3.66054e-05,5.14683e-05,-5.57615e-06,-4.29002e-06
3,6.91178e-06,-1.78312e-06,4.30891e-05,5.16048e-05,-2.77614e-06,-3.12166e-07
4,1.18605e-06,1.75822e-07,4.69885e-05,4.92343e-05,-5.04568e-06,2.96328e-06
5,-1.305e-06,-7.40258e-08,5.07866e-05,4.92915e-05,-1.26348e-05,2.69658e-06
6,9.67168e-07,1.53473e-06,4.91156e-05,4.90394e-05,-2.05891e-05,-1.14051e-07
7,9.51026e-07,5.63457e-06,4.42812e-05,4.90196e-05,-2.31767e-05,-2.69806e-07
8,-1.14621e-05,9.10989e-06,3.68534e-05,4.93797e-05,-2.1249e-05,1.067e-06
9,-2.54892e-05,8.5147e-06,3.35914e-05,5.42157e-05,-1.80443e-05,1.1762e-06
10,-1.96083e-05,4.06274e-06,4.00237e-05,6.13747e-05,-1.63938e-05,5.36406e-06
11,-1.13399e-08,1.61609e-06,4.87675e-05,6.43108e-05,-1.45027e-05,1.08221e-05
12,8.71566e-06,4.63456e-06,5.05146e-05,6.01004e-05,-1.19906e-05,1.34581e-05
13,4.05147e-06,1.06346e-05,4.69744e-05,5.32995e-05,-1.05439e-05,1.40927e-05
14,-8.14356e-06,1.50086e-05,3.92446e-05,4.93723e-05,-8.98899e-06,1.20577e-05
15,-1.80268e-05,1.36297e-05,2.86087e-05,5.04687e-05,-5.935e-06,7.27967e-06
16,-1.22756e-05,9.77333e-06,2.54103e-05,5.2724e-05,-1.91434e-06,2.63567e-06
17,6.48717e-06,8.90505e-06,3.10306e-05,5.2748e-05,-2.8615e-07,2.81258e-06
18,1.94142e-05,1.20821e-05,3.511e-05,5.31738e-05,-3.86989e-06,6.81746e-06
19,1.4895e-05,1.53867e-05,3.38591e-05,5.24795e-05,-7.94619e-06,9.80488e-06
20,-2.24076e-06,1.57044e-05,3.0385e-05,5.02014e-05,-5.97426e-06,1.0187e-05
21,-1.92864e-05,1.15261e-05,2.76958e-05,4.95656e-05,-1.48924e-06,9.03075e-06
22,-1.7322e-05,5.01224e-06,3.11243e-05,5.13826e-05,-7.40342e-07,1.09418e-05
23,3.12209e-06,1.44324e-06,3.69569e-05,5.11819e-05,-2.92275e-06,1.79916e-05
24,1.70525e-05,1.76496e-06,3.78868e-05,4.98919e-05,-5.90975e-06,2.09255e-05
25,1.19078e-05,6.01644e-06,3.67335e-05,4.88122e-05,-8.95809e-06,1.7308e-05
26,-1.48085e-06,1.00735e-05,3.45905e-05,4.76368e-05,-1.16199e-05,1.22945e-05
27,-1.96385e-05,8.61925e-06,2.87664e-05,4.8246e-05,-1.43193e-05,5.95021e-06
28,-2.43616e-05,3.29199e-06,2.57038e-05,5.27176e-05,-1.70291e-05,4.54281e-06
29,-8.24629e-06,1.78501e-06,3.07814e-05,6.03445e-05,-1.59502e-05,1.33613e-05
30,1.15606e-06,4.58349e-06,3.52423e-05,6.28664e-05,-1.44843e-05,2.14025e-05
31,2.38678e-06,7.32226e-06,3.56839e-05,5.68358e-05,-1.55022e-05,1.88585e-05
32,5.87682e-06,1.01564e-05,3.95486e-05,5.35754e-05,-1.42077e-05,1.14891e-05
33,3.77406e-06,1.16775e-05,4.26687e-05,5.15471e-05,-1.23873e-05,1.02153e-05
34,-1.75314e-06,1.29847e-05,4.14792e-05,4.42908e-05,-1.01017e-05,1.71149e-05
35,-1.15928e-05,1.45607e-05,3.56525e-05,3.82826e-05,-7.7462e-06,1.92292e-05
36,-2.28155e-05,1.4155e-05,3.00784e-05,4.08652e-05,-7.81208e-06,1.54439e-05
37,-1.78129e-05,1.04322e-05,3.31496e-05,4.86476e-05,-8.5182e-06,1.72332e-05
38,-2.46113e-06,6.4754e-06,4.18242e-05,5.63898e-05,-8.58572e-06,2.11623e-05
39,4.75824e-06,6.57366e-06,4.67288e-05,6.02115e-05,-9.03764e-06,1.73253e-05
40,3.15738e-06,1.01316e-05,4.17494e-05,5.93227e-05,-9.41567e-06,8.93338e-06
41,-8.45077e-06,1.1278e-05,2.97585e-05,5.58343e-05,-7.87323e-06,3.45567e-06
42,-2.37808e-05,6.54673e-06,2.15126e-05,5.26521e-05,-4.36672e-06,2.48316e-06
43,-2.47964e-05,3.91533e-06,2.56904e-05,4.9401e-05,-2.02023e-06,5.86046e-06
44,-8.73815e-06,7.19783e-06,3.64855e-05,4.46308e-05,-2.95833e-06,1.28932e-05
45,4.73056e-06,1.1891e-05,4.19023e-05,4.04587e-05,-4.35537e-06,1.77247e-05
46,4.78688e-06,1.67847e-05,3.76603e-05,3.65138e-05,-3.83849e-06,1.69598e-05
47,-6.50183e-06,2.09994e-05,2.56288e-05,3.23415e-05,-3.26423e-06,1.27375e-05
48,-2.2782e-05,1.85723e-05,1.35776e-05,2.9932e-05,-4.97568e-06,9.59429e-06
49,-2.65597e-05,1.12913e-05,1.43713e-05,3.09864e-05,-6.61266e-06,1.07614e-05
50,-1.15285e-05,9.23679e-06,2.66778e-05,3.42796e-05,-7.84697e-06,1.62203e-05
51,3.96491e-06,1.4695e-05,3.53524e-05,3.91177e-05,-1.07946e-05,2.26194e-05
52,7.69524e-06,2.04187e-05,3.58038e-05,4.10938e-05,-1.37316e-05,2.515e-05
53,-1.09339e-06,2.2602e-05,3.33105e-05,4.13328e-05,-1.80688e-05,2.41867e-05
54,-2.25582e-05,2.08867e-05,2.845e-05,4.55032e-05,-1.81091e-05,2.19516e-05
55,-3.08392e-05,1.80397e-05,2.66211e-05,5.3067e-05,-1.02819e-05,1.87686e-05
56,-9.60631e-06,1.48274e-05,3.27519e-05,5.8382e-05,-6.27274e-06,1.16475e-05
57,4.98818e-06,1.05392e-05,3.88948e-05,6.04931e-05,-9.33639e-06,3.14476e-06
58,3.06008e-06,9.05054e-06,4.28562e-05,6.331e-05,-1.14121e-05,2.46609e-06
59,3.54556e-06,9.78596e-06,4.49259e-05,6.63789e-05,-1.26721e-05,1.00494e-05
60,1.44977e-06,7.9378e-06,4.30333e-05,6.35472e-05,-1.59485e-05,1.41132e-05
61,-3.4143e-06,3.99823e-06,4.14259e-05,5.4807e-05,-1.66438e-05,1.22901e-05
62,-1.59454e-05,2.3824e-06,3.70025e-05,4.96281e-05,-1.63256e-05,5.86048e-06
63,-2.90094e-05,3.81522e-06,3.19589e-05,5.382e-05,-1.63339e-05,-7.89936e-07
64,-2.37753e-05,6.73042e-06,3.47344e-05,5.79138e-05,-1.66108e-05,2.14938e-06
65,-4.07325e-06,7.49368e-06,4.19705e-05,5.8258e-05,-1.74732e-05,1.28193e-05
66,8.1917e-06,7.96483e-06,4.69453e-05,5.64759e-05,-1.7609e-05,2.23591e-05
67,8.73008e-06,1.17958e-05,4.86037e-05,5.14571e-05,-1.58554e-05,2.38384e-05
68,-4.04933e-06,1.51129e-05,4.50713e-05,4.683e-05,-1.0671e-05,1.68586e-05
69,-2.20687e-05,1.34355e-05,3.75289e-05,4.90289e-05,-3.01457e-06,8.27496e-06
70,-2.57831e-05,1.04842e-05,3.65417e-05,5.64066e-05,1.33831e-06,6.83727e-06
71,-1.41404e-05,9.6581e-06,4.35445e-05,5.94938e-05,-3.03691e-07,1.22122e-05
72,-5.92208e-06,1.22304e-05,4.92105e-05,5.56419e-05,-3.6534e-06,1.77772e-05
73,-8.31057e-06,1.69415e-05,4.91633e-05,4.81083e-05,-3.74605e-06,2.0968e-05
74,-1.67296e-05,1.92337e-05,4.45404e-05,4.56683e-05,-1.39299e-06,2.15287e-05
75,-2.7799e-05,1.62229e-05,3.80754e-05,5.10195e-05,-1.23108e-06,1.91992e-05
76,-2.40201e-05,1.21501e-05,3.69571e-05,5.78166e-05,-3.83712e-06,1.72579e-05
77,-2.49838e-06,1.20532e-05,4.25426e-05,5.86477e-05,-7.01932e-06,1.87076e-05
78,1.49691e-05,1.55343e-05,4.62846e-05,5.51385e-05,-1.02015e-05,2.03854e-05
79,1.41048e-05,2.12408e-05,4.37194e-05,5.1025e-05,-1.24725e-05,2.24935e-05
80,-1.81506e-06,2.37262e-05,3.50502e-05,4.63615e-05,-1.23104e-05,2.60682e-05
81,-2.78124e-05,1.77935e-05,2.45394e-05,4.83553e-05,-1.11847e-05,2.06329e-05
82,-3.42759e-05,8.02707e-06,2.34658e-05,5.47266e-05,-5.47135e-06,6.87119e-06
83,-9.71218e-06,6.02636e-06,3.51753e-05,5.68041e-05,-3.60475e-07,3.76484e-06
84,5.59791e-06,9.94013e-06,4.01142e-05,5.25795e-05,-4.36425e-06,1.29277e-05
85,3.16732e-06,9.75131e-06,3.66041e-05,4.72956e-05,-1.16509e-05,2.26799e-05
86,3.65328e-06,8.1481e-06,3.59131e-05,4.96688e-05,-1.30966e-05,2.78607e-05
87,2.83322e-06,1.19239e-05,3.74047e-05,5.47452e-05,-1.06975e-05,3.07795e-05
88,-2.09097e-06,1.77598e-05,3.92919e-05,5.58785e-05,-1.10724e-05,3.31809e-05
89,-1.55657e-05,1.63741e-05,3.4114e-05,5.28474e-05,-1.71046e-05,2.70434e-05
90,-3.01608e-05,1.06374e-05,2.91678e-05,5.30148e-05,-2.4185e-05,1.39773e-05
91,-2.24975e-05,9.64367e-06,3.38722e-05,5.47866e-05,-2.61269e-05,6.58381e-06
92,9.10605e-07,1.02987e-05,4.30613e-05,5.4651e-05,-2.37896e-05,8.77294e-06
93,1.37447e-05,1.2115e-05,4.43808e-05,5.24923e-05,-2.01275e-05,9.16468e-06
94,1.13917e-05,1.71053e-05,4.02116e-05,4.8322e-05,-1.73405e-05,1.41968e-06
95,-3.73894e-06,1.92666e-05,3.33385e-05,4.57435e-05,-1.4506e-05,-8.38239e-06
96,-1.78299e-05,1.53278e-05,2.6225e-05,4.71693e-05,-1.1349e-05,-7.71418e-06
97,-1.4558e-05,1.17773e-05,2.64953e-05,5.12232e-05,-9.06019e-06,1.1895e-05
98,2.3026e-06,1.24361e-05,3.52399e-05,5.30282e-05,-9.13755e-06,3.69693e-05
99,1.43917e-05,1.4751e-05,4.31813e-05,5.2231e-05,-1.14604e-05,4.22375e-05
100,1.23349e-05,1.66568e-05,4.43632e-05,5.00064e-05,-1.35018e-05,2.5542e-05
101,-2.89675e-06,1.60806e-05,4.12559e-05,4.90736e-05,-1.4673e-05,9.09373e-06
102,-2.16136e-05,1.04253e-05,3.50328e-05,5.10498e-05,-1.44857e-05,6.62062e-06
103,-2.05914e-05,4.52783e-06,3.24034e-05,5.37938e-05,-1.19304e-05,1.69355e-05
104,1.15065e-06,5.79445e-06,3.6815e-05,5.39601e-05,-9.11069e-06,3.04803e-05
105,1.84468e-05,1.23906e-05,4.15738e-05,5.2375e-05,-8.01111e-06,3.5987e-05
106,1.68215e-05,1.92162e-05,4.07193e-05,5.08461e-05,-7.74941e-06,3.15279e-05
107,4.70262e-07,2.22038e-05,3.51206e-05,5.17545e-05,-6.87586e-06,2.42691e-05
108,-2.16785e-05,2.02412e-05,2.48998e-05,5.27902e-05,-7.01278e-06,1.78711e-05
109,-2.00773e-05,1.75341e-05,2.21095e-05,5.0554e-05,-7.43971e-06,1.49074e-05
110,8.57822e-06,1.55528e-05,3.07637e-05,4.53816e-05,-7.34079e-06,2.14764e-05
111,1.89706e-05,1.26931e-05,3.57421e-05,4.53738e-05,-7.38028e-06,2.91831e-05
112,1.17356e-05,1.28428e-05,3.51619e-05,4.84363e-05,-6.60309e-06,2.09602e-05
113,1.23697e-05,1.67975e-05,4.07716e-05,4.85919e-05,-3.2873e-06,7.30476e-06
114,1.47432e-05,2.03146e-05,4.49636e-05,4.81622e-05,4.79515e-07,5.7066e-06
115,1.41779e-05,1.93536e-05,4.31637e-05,4.82262e-05,-4.33083e-07,9.0453e-06
116,-1.12995e-06,1.44657e-05,3.65196e-05,5.0333e-05,-4.49656e-06,5.58377e-06
117,-2.25878e-05,8.24772e-06,2.96108e-05,5.32044e-05,-6.49716e-06,-6.4143e-07
118,-2.34498e-05,4.84535e-06,2.9303e-05,5.45245e-05,-5.11671e-06,3.43846e-06
119,-6.00415e-06,5.93622e-06,3.25236e-05,5.29758e-05,-5.3325e-06,1.59809e-05
120,5.6003e-06,9.53051e-06,3.20714e-05,5.10601e-05,-8.16671e-06,2.41287e-05
121,5.91793e-06,1.59231e-05,2.94416e-05,4.9867e-05,-1.1647e-05,2.52913e-05
122,-8.04959e-06,2.12997e-05,2.60695e-05,4.91617e-05,-1.48351e-05,1.94178e-05
123,-2.68498e-05,1.93983e-05,2.14987e-05,5.03877e-05,-1.47356e-05,1.15102e-05
124,-2.74334e-05,1.12083e-05,2.3743e-05,5.25593e-05,-1.19143e-05,1.14685e-05
125,-8.40533e-06,5.23556e-06,3.26827e-05,5.37568e-05,-1.09957e-05,2.02441e-05
126,6.13613e-06,5.05283e-06,3.82383e-05,5.45748e-05,-1.43348e-05,2.69494e-05
127,3.2058e-06,6.9574e-06,3.60157e-05,5.47979e-05,-1.81093e-05,2.70179e-05
128,-1.19918e-05,8.28036e-06,3.12109e-05,5.43862e-05,-1.86922e-05,2.43677e-05
129,-2.90092e-05,6.66675e-06,2.81196e-05,5.65323e-05,-1.63709e-05,1.93458e-05
130,-2.64653e-05,4.32361e-06,3.39241e-05,6.19562e-05,-1.36424e-05,1.32259e-05
131,-2.26279e-06,8.07811e-06,4.63902e-05,6.51746e-05,-1.25127e-05,1.04721e-05
132,1.78242e-05,1.43481e-05,5.23582e-05,6.50081e-05,-1.17542e-05,1.19904e-05
133,1.43023e-05,1.46792e-05,4.86569e-05,6.3126e-05,-1.1572e-05,1.10349e-05
134,-3.46114e-06,1.12542e-05,4.13769e-05,5.98258e-05,-1.0165e-05,4.25268e-06
135,-2.29063e-05,8.41912e-06,3.45905e-05,5.93067e-05,-5.12685e-06,-3.64289e-06
136,-2.29727e-05,5.21267e-06,3.56706e-05,6.25332e-05,-4.33282e-07,-7.14937e-07
137,1.04178e-07,4.4187e-06,4.23534e-05,6.44757e-05,-7.81618e-07,1.97234e-05
138,1.16515e-05,6.23972e-06,4.55263e-05,6.31333e-05,-4.41486e-06,4.06075e-05
139,9.14861e-06,8.51007e-06,4.80518e-05,6.29692e-05,-5.99927e-06,3.81355e-05
140,1.13964e-05,1.25619e-05,5.37582e-05,6.41249e-05,-5.08384e-06,1.90051e-05
141,1.55647e-05,1.80367e-05,5.55205e-05,6.32344e-05,-8.70456e-07,5.6339e-06
142,1.47748e-05,2.0623e-05,5.30333e-05,5.82772e-05,2.77204e-06,5.71298e-06
143,-2.76928e-06,1.844e-05,4.49485e-05,5.41124e-05,2.22326e-06,6.47883e-06
144,-2.35551e-05,1.50609e-05,3.4472e-05,5.5461e-05,-1.47215e-06,1.24946e-06
145,-2.24788e-05,1.22335e-05,3.21489e-05,5.5619e-05,-3.11747e-06,3.60724e-08
146,-2.63745e-06,1.06976e-05,3.79261e-05,5.31622e-05,-2.75611e-06,5.25122e-06
147,1.18593e-05,1.18716e-05,4.2482e-05,5.03645e-05,-5.00812e-06,1.01322e-05
148,1.12522e-05,1.66029e-05,4.11231e-05,4.85073e-05,-8.31346e-06,1.19619e-05
149,-5.32464e-06,1.89254e-05,3.49317e-05,4.6372e-05,-1.08809e-05,1.34328e-05
150,-2.40187e-05,1.60117e-05,2.93055e-05,4.7122e-05,-1.10411e-05,1.44148e-05
151,-2.29373e-05,1.15852e-05,3.20404e-05,4.97282e-05,-8.2771e-06,1.31873e-05
152,-3.29722e-06,9.19835e-06,4.07977e-05,4.87751e-05,-2.12867e-06,1.11488e-05
153,1.18632e-05,9.72913e-06,4.6032e-05,4.3757e-05,3.04067e-06,1.05981e-05
154,1.05395e-05,1.13195e-05,4.44516e-05,3.86875e-05,1.902e-06,1.21385e-05
155,-3.7089e-06,1.09906e-05,3.93979e-05,3.78598e-05,-4.31406e-06,1.45442e-05
156,-2.319e-05,7.98117e-06,3.29597e-05,4.21721e-05,-8.44495e-06,1.33653e-05
157,-2.7284e-05,7.75341e-06,3.40601e-05,4.75625e-05,-9.30551e-06,9.75061e-06
158,-1.08168e-05,1.13339e-05,4.19394e-05,4.91832e-05,-1.14905e-05,1.30788e-05
159,2.77492e-06,1.49451e-05,4.42888e-05,4.78187e-05,-1.59846e-05,2.21839e-05
160,8.23953e-07,1.91885e-05,4.01431e-05,4.39569e-05,-1.69674e-05,2.75022e-05
161,-9.98386e-06,2.40484e-05,3.47957e-05,3.92572e-05,-1.29561e-05,2.4707e-05
162,-3.11876e-05,2.28164e-05,2.76353e-05,3.62803e-05,-6.57702e-06,1.57646e-05
163,-3.78248e-05,1.53293e-05,2.73246e-05,3.65935e-05,-1.97455e-06,1.30204e-05
164,-1.67417e-05,1.04618e-05,3.55521e-05,3.63371e-05,-1.49708e-06,2.07536e-05
165,-3.14355e-06,1.04411e-05,3.83625e-05,3.48835e-05,-2.67977e-06,2.35781e-05
166,-1.54037e-06,1.12038e-05,3.89661e-05,3.45034e-05,-6.49257e-06,2.01722e-05
167,3.75031e-07,1.29033e-05,4.08678e-05,3.37829e-05,-1.15561e-05,2.22174e-05
168,-3.07805e-06,1.69334e-05,3.99252e-05,3.36635e-05,-1.50776e-05,2.66112e-05
169,-6.94684e-06,2.39007e-05,3.9143e-05,3.4981e-05,-1.84291e-05,2.48333e-05
170,-1.74202e-05,2.81307e-05,3.62158e-05,3.40454e-05,-2.04423e-05,1.31165e-05
171,-3.04219e-05,2.57066e-05,3.39267e-05,3.5159e-05,-1.52584e-05,-5.63159e-06
172,-2.64059e-05,2.06365e-05,3.7258e-05,4.01265e-05,-9.76245e-06,-1.99248e-05
173,-9.58816e-06,1.72369e-05,4.35531e-05,4.53179e-05,-9.38747e-06,-1.94967e-05
174,5.79141e-07,1.72776e-05,4.4407e-05,4.6487e-05,-9.59909e-06,-8.73068e-06
175,5.70951e-07,1.8388e-05,3.93167e-05,4.42356e-05,-7.57833e-06,2.83913e-06
176,-1.01377e-05,1.76486e-05,3.19012e-05,4.27553e-05,-3.04385e-06,7.84477e-06
177,-2.24149e-05,1.4893e-05,2.59565e-05,4.63459e-05,1.32259e-06,6.20043e-06
178,-1.70122e-05,1.28638e-05,2.73851e-05,5.34599e-05,5.1276e-06,5.79737e-06
179,2.64457e-06,1.09354e-05,3.43265e-05,5.7738e-05,7.37513e-06,1.10631e-05
180,1.18171e-05,7.4667e-06,3.97857e-05,5.58111e-05,6.27014e-06,1.83935e-05
181,4.02757e-06,3.84701e-06,4.06684e-05,4.92771e-05,3.24542e-06,2.08287e-05
182,-9.82577e-06,3.52777e-06,3.61053e-05,4.49265e-05,2.06306e-06,1.64425e-05
183,-2.23019e-05,3.73582e-06,2.61721e-05,4.55596e-05,-5.3347e-09,1.01685e-05
184,-2.13451e-05,4.63215e-06,2.31365e-05,4.8552e-05,-5.91077e-06,1.02547e-05
185,-4.7072e-06,9.17715e-06,3.16536e-05,5.14375e-05,-1.10746e-05,1.4397e-05
186,1.02974e-05,1.41148e-05,3.93853e-05,5.3279e-05,-1.10841e-05,1.48663e-05
187,9.67822e-06,1.84358e-05,3.74499e-05,5.05945e-05,-8.93013e-06,1.35306e-05
188,-5.72529e-06,1.90799e-05,3.01898e-05,4.69657e-05,-1.26566e-05,1.25083e-05
189,-3.29439e-05,1.2423e-05,2.58404e-05,4.80835e-05,-1.9436e-05,1.01352e-05
190,-4.234e-05,6.34215e-06,3.35319e-05,5.06683e-05,-2.17221e-05,9.95109e-06
191,-1.77394e-05,8.06129e-06,5.08408e-05,5.19477e-05,-1.93127e-05,1.4543e-05
192,3.85641e-06,1.25341e-05,5.70094e-05,5.3893e-05,-1.75199e-05,1.90762e-05
193,9.5971e-06,1.65165e-05,5.17581e-05,5.69639e-05,-1.58649e-05,2.29575e-05
194,1.32266e-05,1.8536e-05,4.84915e-05,5.96168e-05,-9.71741e-06,2.85544e-05
195,1.08036e-05,1.82903e-05,4.68392e-05,5.80921e-05,-8.57993e-06,3.12716e-05
196,-2.89263e-07,1.63667e-05,4.63561e-05,4.93621e-05,-1.27017e-05,2.95549e-05
197,-2.20468e-05,1.34906e-05,4.02151e-05,3.97633e-05,-1.27325e-05,2.44473e-05
198,-3.97547e-05,1.03391e-05,3.34171e-05,4.10741e-05,-8.98997e-06,1.62022e-05
199,-2.86211e-05,6.77486e-06,3.73096e-05,4.67045e-05,-7.27109e-06,1.44511e-05
200,1.25621e-06,4.42371e-06,4.4725e-05,4.9016e-05,-1.28668e-05,2.12091e-05
201,1.78179e-05,4.55788e-06,4.63427e-05,4.66858e-05,-2.09608e-05,2.44052e-05
202,1.39838e-05,8.17688e-06,4.27714e-05,4.44006e-05,-2.39529e-05,2.21235e-05
203,-4.85018e-06,1.21157e-05,3.50898e-05,4.4873e-05,-1.90364e-05,1.73357e-05
204,-2.27714e-05,1.06105e-05,2.82638e-05,4.88071e-05,-1.11272e-05,1.07536e-05
205,-2.24128e-05,4.86847e-06,3.00885e-05,5.44663e-05,-5.62795e-06,7.50831e-06
206,-7.33702e-06,2.48127e-06,3.68074e-05,5.73286e-05,-5.506e-06,1.24705e-05
207,3.50013e-06,7.31195e-06,3.90944e-05,5.6939e-05,-9.33214e-06,1.80489e-05
208,2.78747e-06,1.49131e-05,3.60783e-05,5.30928e-05,-1.27578e-05,1.58348e-05
209,-6.85704e-06,1.74938e-05,3.10331e-05,4.94463e-05,-1.4728e-05,7.4237e-06
210,-2.16421e-05,1.17627e-05,2.57596e-05,5.12275e-05,-1.58931e-05,-6.83555e-07
211,-2.45593e-05,4.95461e-06,2.78055e-05,5.75459e-05,-1.5473e-05,-1.86751e-06
212,-7.51022e-06,5.17461e-06,3.83514e-05,6.13711e-05,-1.29148e-05,4.35508e-06
213,1.01118e-05,1.05057e-05,4.79055e-05,6.27131e-05,-1.06977e-05,1.54905e-05
214,1.00456e-05,1.74149e-05,5.01304e-05,5.95899e-05,-1.11474e-05,2.61519e-05
215,-6.26474e-06,2.05949e-05,4.43244e-05,5.31969e-05,-1.13332e-05,2.22921e-05
216,-3.33079e-05,1.32721e-05,3.45002e-05,5.11372e-05,-7.66207e-06,7.83996e-07
217,-4.14332e-05,2.39713e-06,3.11842e-05,5.68035e-05,-1.36931e-06,-1.18202e-05
218,-1.95894e-05,-2.47748e-06,3.95592e-05,6.06874e-05,3.25806e-06,5.40911e-06
219,-6.32026e-06,-1.46954e-07,4.57446e-05,5.84265e-05,-2.86377e-07,2.77808e-05
220,-6.47981e-06,5.09941e-06,4.64238e-05,5.76267e-05,-6.03613e-06,2.34928e-05
221,-3.03691e-06,5.29771e-06,4.5354e-05,6.01542e-05,-7.39787e-06,3.90146e-08
222,-2.12062e-07,2.13569e-06,4.05921e-05,5.8804e-05,-8.95442e-06,-1.40879e-05
223,-3.52175e-06,4.59594e-06,3.63954e-05,5.18092e-05,-1.04501e-05,-7.21396e-06
224,-2.08758e-05,9.33597e-06,2.88777e-05,4.75892e-05,-8.85539e-06,2.84558e-06
225,-3.68377e-05,6.06569e-06,2.25607e-05,5.13868e-05,-2.27333e-06,6.25739e-06
226,-2.82657e-05,-3.32253e-07,2.78553e-05,5.65007e-05,5.76246e-06,8.77611e-06
227,-3.94425e-06,-8.16162e-07,3.88614e-05,5.83502e-05,9.27951e-06,1.39526e-05
228,9.11176e-06,6.02129e-06,4.01952e-05,5.70495e-05,7.55684e-06,1.82123e-05
229,7.39219e-06,1.34292e-05,3.44052e-05,5.41763e-05,2.93382e-06,1.91155e-05
230,-5.71672e-06,1.32225e-05,2.56372e-05,5.16704e-05,-2.57937e-06,1.76773e-05
231,-2.02009e-05,5.36112e-06,1.90569e-05,5.289e-05,-7.8273e-06,1.57602e-05
232,-1.74576e-05,-9.44993e-07,2.06558e-05,5.94773e-05,-9.85718e-06,1.51033e-05
233,4.0511e-06,2.83052e-07,2.88426e-05,6.55453e-05,-6.94695e-06,1.66169e-05
234,2.28033e-05,7.11132e-06,3.5107e-05,6.51049e-05,-4.19025e-06,1.88584e-05
235,2.46386e-05,1.47894e-05,3.53527e-05,5.95908e-05,-7.69863e-06,2.00531e-05
236,1.0936e-05,1.87698e-05,3.04005e-05,5.68334e-05,-1.52106e-05,1.91556e-05
237,-8.77811e-06,1.73117e-05,2.56524e-05,5.87217e-05,-1.85493e-05,1.61733e-05
238,-1.28453e-05,1.43641e-05,2.82648e-05,6.04429e-05,-1.37385e-05,1.39169e-05
239,2.26933e-06,1.30275e-05,3.50229e-05,5.62593e-05,-6.70244e-06,1.24219e-05
240,1.44456e-05,1.12862e-05,3.92732e-05,4.91253e-05,-5.576e-06,1.31257e-05
241,1.04449e-05,1.1323e-05,3.76076e-05,4.59512e-05,-9.77582e-06,1.97957e-05
242,-5.04506e-06,1.09339e-05,3.59082e-05,4.89387e-05,-1.30853e-05,2.90128e-05
243,-2.69217e-05,7.56537e-06,3.15382e-05,5.59898e-05,-1.46253e-05,3.00005e-05
244,-2.79151e-05,5.81603e-06,2.90745e-05,6.09878e-05,-1.40189e-05,2.64885e-05
245,-5.27919e-07,9.20133e-06,3.46851e-05,5.8162e-05,-1.04925e-05,2.68504e-05
246,1.50256e-05,1.28609e-05,4.165e-05,5.13814e-05,-8.53602e-06,2.69109e-05
247,1.37983e-05,1.29746e-05,4.60542e-05,4.84332e-05,-9.20936e-06,2.69171e-05
248,1.46764e-05,1.14849e-05,4.80407e-05,5.05191e-05,-7.31387e-06,2.73649e-05
249,1.38839e-05,1.06401e-05,4.32762e-05,5.21516e-05,-8.44116e-06,2.32046e-05
250,1.29876e-05,1.45153e-05,3.65246e-05,4.90733e-05,-1.28683e-05,2.20908e-05
251,4.32003e-06,1.93967e-05,3.04217e-05,4.4813e-05,-1.48506e-05,2.44318e-05
252,-9.14705e-06,1.84532e-05,2.86217e-05,4.549e-05,-1.37802e-05,2.13805e-05
253,-8.47283e-06,1.63396e-05,3.29942e-05,5.07128e-05,-9.22899e-06,1.26779e-05
254,6.38832e-06,1.69987e-05,3.89043e-05,5.57515e-05,-6.42726e-06,5.86124e-06
255,1.65825e-05,1.83579e-05,4.19538e-05,5.57678e-05,-5.82195e-06,5.25806e-06
256,1.48666e-05,1.89546e-05,4.13744e-05,5.10438e-05,-6.92888e-06,8.44162e-06
257,-1.97507e-06,1.73685e-05,3.76475e-05,4.71593e-05,-7.62448e-06,1.14037e-05
258,-2.39663e-05,1.25633e-05,3.31362e-05,5.01363e-05,-5.52316e-06,1.24994e-05
259,-2.79396e-05,8.65482e-06,3.56374e-05,5.64824e-05,-1.9102e-06,1.33405e-05
260,-1.02206e-05,8.8847e-06,4.37394e-05,5.93811e-05,-4.59482e-07,1.44878e-05
261,5.82586e-06,1.1475e-05,4.75848e-05,5.7673e-05,-3.0202e-06,1.48397e-05
262,5.77796e-06,1.21711e-05,4.42521e-05,5.32716e-05,-7.38618e-06,1.4265e-05
263,-5.7501e-06,1.19199e-05,3.74673e-05,4.93638e-05,-9.43894e-06,1.29956e-05
264,-2.10482e-05,1.33601e-05,2.97547e-05,5.1224e-05,-8.67701e-06,1.07049e-05
265,-2.20622e-05,1.42032e-05,3.08326e-05,5.88467e-05,-8.57463e-06,1.16156e-05
266,-4.84904e-06,1.40032e-05,4.08073e-05,6.38075e-05,-1.0159e-05,1.58524e-05
267,8.30685e-06,1.33623e-05,4.70149e-05,6.23409e-05,-1.06833e-05,1.66146e-05
268,3.82436e-06,1.41907e-05,4.34558e-05,5.64685e-05,-8.12952e-06,1.14255e-05
269,-1.27831e-05,1.66018e-05,3.47093e-05,5.24344e-05,-3.66799e-06,5.93035e-06
270,-3.65109e-05,1.53193e-05,2.42527e-05,5.30313e-05,-4.32721e-06,4.29173e-06
271,-3.88819e-05,1.16946e-05,2.43038e-05,5.22712e-05,-1.11046e-05,5.6273e-06
272,-1.06868e-05,1.10298e-05,3.71225e-05,4.68118e-05,-1.34285e-05,1.42133e-05
273,7.25774e-06,1.48367e-05,4.35896e-05,4.07696e-05,-1.12349e-05,2.59539e-05
274,5.48031e-06,1.79991e-05,4.36328e-05,3.89439e-05,-1.00314e-05,3.14376e-05
275,2.36801e-06,1.50707e-05,4.50133e-05,3.95681e-05,-1.41818e-05,2.75907e-05
276,-1.042e-06,8.97542e-06,4.618e-05,3.64075e-05,-1.95365e-05,1.54178e-05
277,-3.58763e-06,5.51696e-06,4.73612e-05,3.03495e-05,-2.11463e-05,7.72804e-06
278,-1.43189e-05,7.87491e-06,4.50027e-05,2.89713e-05,-2.11518e-05,8.96812e-06
279,-3.0004e-05,7.61576e-06,4.08262e-05,3.63726e-05,-1.83332e-05,1.34454e-05
280,-2.80745e-05,2.98789e-06,4.32265e-05,4.39473e-05,-1.51958e-05,1.5705e-05
281,-8.94547e-06,4.61872e-07,4.97742e-05,4.56275e-05,-1.64335e-05,1.60275e-05
282,3.19026e-06,3.61512e-06,4.98381e-05,4.13349e-05,-1.67755e-05,1.54952e-05
283,2.03463e-06,1.13117e-05,4.37775e-05,3.54468e-05,-1.47961e-05,1.6321e-05
284,-1.2724e-05,1.61281e-05,3.5464e-05,3.41875e-05,-1.45809e-05,1.56524e-05
285,-2.82273e-05,1.3172e-05,2.87231e-05,3.73086e-05,-1.39065e-05,1.10697e-05
286,-2.51695e-05,7.03028e-06,2.85386e-05,3.90354e-05,-9.45993e-06,9.44861e-06
287,-4.934e-06,2.06333e-06,3.22363e-05,3.79456e-05,-4.6606e-06,1.3524e-05
288,1.04735e-05,2.46019e-07,3.25944e-05,3.67094e-05,-3.19767e-06,1.7093e-05
289,8.45863e-06,2.51103e-06,2.93952e-05,3.40181e-05,-4.4296e-06,1.77228e-05
290,-5.85928e-06,5.52704e-06,2.45471e-05,3.02871e-05,-7.7558e-06,1.69109e-05
291,-2.34934e-05,5.69808e-06,1.92057e-05,3.06054e-05,-1.0264e-05,1.39456e-05
292,-2.52635e-05,5.86436e-06,2.05656e-05,3.64156e-05,-9.2414e-06,1.17007e-05
293,-6.68937e-06,8.26475e-06,3.16552e-05,4.43536e-05,-7.25929e-06,1.1684e-05
294,1.11829e-05,1.0582e-05,4.306e-05,4.92721e-05,-9.29376e-06,1.4895e-05
295,1.22617e-05,1.43113e-05,4.58321e-05,4.66536e-05,-1.66685e-05,2.09814e-05
296,-1.84619e-06,1.68419e-05,4.1246e-05,4.16238e-05,-2.51732e-05,2.33309e-05
297,-2.86677e-05,1.59349e-05,3.00087e-05,4.07539e-05,-2.84541e-05,1.46326e-05
298,-3.73779e-05,1.47312e-05,2.38927e-05,4.57137e-05,-2.5657e-05,1.89883e-06
299,-1.58761e-05,1.61281e-05,3.40889e-05,5.34413e-05,-2.10634e-05,-3.05113e-06
300,-6.13643e-06,1.5716e-05,4.29851e-05,5.794e-05,-1.90945e-05,-1.25168e-06
301,-1.27354e-05,1.27682e-05,4.07694e-05,5.76811e-05,-1.59663e-05,2.18485e-06
302,-1.30892e-05,9.04764e-06,3.68452e-05,5.51193e-05,-1.23183e-05,9.95248e-06
303,-9.86924e-06,5.75272e-06,3.4921e-05,5.10445e-05,-7.3111e-06,1.71324e-05
304,-5.05449e-06,8.55827e-06,3.21015e-05,4.8417e-05,-2.97172e-06,2.00152e-05
305,-1.22213e-05,1.4866e-05,2.66592e-05,5.06526e-05,-2.51141e-06,1.78545e-05
306,-2.44987e-05,1.82795e-05,2.38518e-05,5.80831e-05,-8.28963e-07,1.02631e-05
307,-1.80344e-05,1.7396e-05,2.85493e-05,6.42147e-05,1.54198e-06,3.63542e-06
308,1.79158e-06,1.45834e-05,3.80729e-05,6.47661e-05,6.25253e-07,3.8865e-06
309,1.2648e-05,1.46443e-05,4.43491e-05,6.06927e-05,-4.28076e-06,6.43977e-06
310,7.91681e-06,2.03791e-05,4.51126e-05,5.65072e-05,-7.56268e-06,7.99595e-06
311,-8.03852e-06,2.62805e-05,3.9934e-05,5.68063e-05,-7.10951e-06,1.33591e-05
312,-2.42873e-05,2.62922e-05,3.36418e-05,6.17745e-05,-3.6933e-06,2.39498e-05
313,-2.40114e-05,2.17212e-05,3.41434e-05,6.73241e-05,-8.38916e-07,3.23765e-05
314,-9.27901e-06,1.67241e-05,4.10322e-05,6.92859e-05,-2.25199e-06,2.83731e-05
315,1.59394e-06,1.55201e-05,4.70771e-05,6.79967e-05,-8.69441e-06,1.59147e-05
316,-1.18366e-06,1.88393e-05,4.87081e-05,6.37608e-05,-1.53727e-05,8.80877e-06
317,-1.52049e-05,2.1887e-05,4.4379e-05,5.8288e-05,-1.7258e-05,1.05807e-05
318,-3.15675e-05,1.94964e-05,3.60742e-05,5.5855e-05,-1.4618e-05,1.019e-05
319,-2.86385e-05,1.36331e-05,3.53936e-05,5.94905e-05,-9.71644e-06,5.92202e-06
320,-4.3683e-06,8.58306e-06,4.14484e-05,6.57867e-05,-4.45112e-06,7.36451e-06
321,9.6948e-06,8.08185e-06,4.21273e-05,6.98953e-05,-9.19169e-07,1.20526e-05
322,2.19841e-06,1.31194e-05,3.80611e-05,6.76747e-05,-1.23613e-06,1.3318e-05
323,-1.05799e-05,1.64176e-05,3.46366e-05,6.19129e-05,-5.37108e-06,1.24837e-05
324,-2.51666e-05,1.03113e-05,2.89688e-05,6.21099e-05,-8.72783e-06,1.12743e-05
325,-2.30381e-05,2.12666e-06,2.77362e-05,6.67323e-05,-5.93205e-06,1.533e-05
326,1.6799e-07,-7.37593e-07,3.73137e-05,6.71072e-05,-1.09943e-06,2.15912e-05
327,1.23301e-05,7.78756e-07,4.42388e-05,6.39321e-05,-2.14745e-06,2.2445e-05
328,1.37489e-05,7.81763e-06,4.45878e-05,6.0075e-05,-7.58533e-06,1.93116e-05
329,1.4552e-05,1.39177e-05,4.33467e-05,5.83184e-05,-7.45466e-06,2.04672e-05
330,1.15583e-05,1.22615e-05,4.05316e-05,5.66835e-05,-1.39293e-06,2.06224e-05
331,6.89602e-06,6.45145e-06,3.98988e-05,5.32593e-05,1.75378e-06,1.44758e-05
332,-9.2367e-06,4.38264e-06,3.56047e-05,5.07253e-05,-3.32144e-06,9.80883e-06
333,-2.56188e-05,7.83767e-06,2.54689e-05,5.08957e-05,-1.43118e-05,1.08727e-05
334,-1.73763e-05,1.24799e-05,2.14998e-05,5.39818e-05,-2.23553e-05,1.90029e-05
335,7.61166e-06,1.41e-05,3.07042e-05,5.553e-05,-2.14978e-05,2.34997e-05
336,2.18327e-05,1.25306e-05,4.47979e-05,5.28575e-05,-1.49077e-05,1.45476e-05
337,1.79065e-05,1.26964e-05,5.12992e-05,4.82049e-05,-7.22677e-06,9.38886e-07
338,-3.65568e-07,1.35081e-05,4.45935e-05,4.54059e-05,-1.61853e-06,-1.54098e-06
339,-1.8658e-05,9.05484e-06,3.34052e-05,4.63087e-05,-2.69972e-07,6.53122e-06
340,-1.70043e-05,2.63902e-06,3.11477e-05,4.9089e-05,-2.59268e-06,1.37598e-05
341,2.02126e-06,1.95793e-06,3.8713e-05,5.1208e-05,-6.09035e-06,1.73521e-05
342,1.7157e-05,6.95842e-06,4.55904e-05,5.09964e-05,-9.26466e-06,1.84179e-05
343,1.67953e-05,1.29326e-05,4.46089e-05,4.8092e-05,-1.00916e-05,1.40983e-05
344,1.86805e-06,1.5188e-05,3.68204e-05,4.58633e-05,-7.32242e-06,4.47188e-06
345,-1.8653e-05,1.13025e-05,2.68021e-05,4.89153e-05,-4.60015e-06,-1.8884e-06
346,-2.11517e-05,7.69615e-06,2.31281e-05,5.36109e-05,-5.60191e-06,2.43104e-06
347,-1.59069e-06,9.2128e-06,3.15222e-05,5.47665e-05,-6.49471e-06,1.33207e-05
348,1.46415e-05,1.16065e-05,4.28691e-05,5.63583e-05,-7.13967e-06,2.22923e-05
349,1.33843e-05,8.49495e-06,4.74533e-05,5.96631e-05,-8.71454e-06,2.63533e-05
350,-1.67972e-06,4.84008e-06,4.50664e-05,5.98721e-05,-7.38423e-06,2.36848e-05
351,-2.47283e-05,6.09446e-06,3.60476e-05,6.02513e-05,-4.99388e-06,1.67122e-05
352,-3.09595e-05,7.73731e-06,3.21515e-05,6.2433e-05,-4.72967e-07,1.36807e-05
353,-1.36395e-05,9.06087e-06,3.71889e-05,6.13152e-05,1.06213e-06,1.70756e-05
354,-3.99854e-06,9.24582e-06,4.00919e-05,5.61143e-05,-5.88219e-06,2.05064e-05
355,-1.82442e-06,1.01746e-05,4.08217e-05,5.04676e-05,-9.71983e-06,2.28555e-05
356,5.2159e-06,1.0373e-05,4.17714e-05,4.78266e-05,-7.3709e-06,2.48439e-05
357,8.39007e-06,9.53997e-06,4.08847e-05,4.48231e-05,-4.74316e-06,2.32024e-05
358,5.56847e-06,1.11898e-05,4.01646e-05,4.07591e-05,-7.49348e-07,2.0334e-05
359,-1.10393e-05,1.19458e-05,3.5369e-05,3.91658e-05,1.36603e-06,1.4672e-05
360,-3.02822e-05,9.28028e-06,2.79125e-05,4.24556e-05,-1.72713e-06,9.37559e-06
361,-2.88786e-05,6.60107e-06,2.88098e-05,4.49687e-05,-8.41877e-06,9.74855e-06
362,-1.046e-05,7.10532e-06,3.50944e-05,4.46131e-05,-1.41577e-05,1.50664e-05
363,2.37277e-07,1.14927e-05,3.87133e-05,4.29613e-05,-1.68235e-05,2.12511e-05
364,-3.66815e-06,1.82651e-05,3.79831e-05,4.03192e-05,-1.58533e-05,2.48627e-05
365,-1.79947e-05,2.08542e-05,3.24362e-05,3.98694e-05,-1.212e-05,2.41261e-05
366,-3.06258e-05,1.63375e-05,2.69026e-05,4.39596e-05,-9.16764e-06,1.89119e-05
367,-2.558e-05,1.0125e-05,2.96237e-05,4.92143e-05,-8.10987e-06,1.59283e-05
368,-5.82739e-06,8.13199e-06,3.96504e-05,5.12018e-05,-8.37426e-06,1.68733e-05
369,8.78126e-06,1.15667e-05,4.53116e-05,4.93972e-05,-8.80539e-06,1.80736e-05
370,8.17395e-06,1.82503e-05,4.2609e-05,4.50316e-05,-8.39876e-06,2.00707e-05
371,-4.33634e-06,2.20708e-05,3.61469e-05,4.29612e-05,-7.86491e-06,2.1844e-05
372,-2.0891e-05,1.99065e-05,3.08286e-05,4.55967e-05,-7.33569e-06,1.71868e-05
373,-2.05059e-05,1.73148e-05,3.33386e-05,4.97639e-05,-4.25846e-06,8.56236e-06
374,-1.20603e-06,1.81801e-05,4.28828e-05,5.0621e-05,-7.84282e-07,4.248e-06
375,1.25461e-05,2.01167e-05,4.962e-05,4.88539e-05,-2.03408e-06,5.87885e-06
376,7.57042e-06,2.17849e-05,4.92124e-05,4.48991e-05,-6.7633e-06,7.8491e-06
377,-8.10248e-06,2.29974e-05,4.13188e-05,4.13454e-05,-9.39769e-06,5.3144e-06
378,-3.01068e-05,2.07611e-05,3.05148e-05,4.35118e-05,-7.72504e-06,1.32741e-06
379,-3.46286e-05,1.69218e-05,2.86517e-05,4.94798e-05,-1.12161e-06,7.206e-07
380,-8.87789e-06,1.55369e-05,3.66104e-05,5.4148e-05,3.59759e-06,1.70859e-06
381,9.16365e-06,1.5462e-05,3.87144e-05,5.46495e-05,-1.31281e-06,5.00342e-06
382,1.32843e-05,1.78264e-05,3.505e-05,5.06433e-05,-1.08771e-05,1.16925e-05
383,1.91124e-05,1.71495e-05,3.3539e-05,4.81662e-05,-1.41056e-05,1.47254e-05
384,1.90017e-05,1.42135e-05,3.12837e-05,4.69781e-05,-9.04854e-06,1.24069e-05
385,1.39148e-05,1.49374e-05,3.00847e-05,4.37882e-05,-4.30713e-06,6.81516e-06
386,-3.15649e-06,1.32521e-05,2.62484e-05,4.36427e-05,-8.23435e-06,-1.67795e-06
387,-2.06745e-05,8.25249e-06,2.14801e-05,4.89037e-05,-1.42485e-05,-4.39432e-06
388,-1.62596e-05,7.16475e-06,2.30011e-05,5.36764e-05,-1.61729e-05,2.91105e-06
389,1.57608e-06,1.01191e-05,3.03607e-05,5.3682e-05,-1.62837e-05,1.46719e-05
390,1.08663e-05,1.14924e-05,3.49215e-05,4.93444e-05,-1.41412e-05,2.1775e-05
391,9.68451e-06,1.20146e-05,3.53876e-05,4.29637e-05,-1.08386e-05,2.25338e-05
392,-1.60767e-06,1.25287e-05,3.15503e-05,3.82888e-05,-8.66221e-06,1.83476e-05
393,-1.78341e-05,1.18882e-05,2.61116e-05,4.01595e-05,-1.00838e-05,1.01277e-05
394,-2.28592e-05,1.13544e-05,2.86134e-05,4.6583e-05,-1.15237e-05,6.76736e-06
395,-1.15243e-05,9.60711e-06,3.90991e-05,5.08429e-05,-1.18975e-05,1.21845e-05
396,1.47196e-06,5.7987e-06,4.62175e-05,4.98704e-05,-1.25922e-05,2.09018e-05
397,2.66794e-06,1.89975e-06,4.3497e-05,4.57893e-05,-1.33199e-05,2.47643e-05
398,-7.86969e-06,-1.44601e-06,3.4945e-05,4.4264e-05,-1.20331e-05,1.92095e-05
399,-2.11942e-05,-2.47428e-06,2.54611e-05,4.77707e-05,-9.62346e-06,7.02427e-06
400,-1.78046e-05,6.01038e-07,2.37714e-05,5.19868e-05,-7.58686e-06,2.01187e-06
401,1.4212e-06,4.25228e-06,3.17817e-05,5.3346e-05,-6.08927e-06,1.07677e-05
402,1.14986e-05,4.80518e-06,4.21562e-05,5.39523e-05,-7.3795e-06,1.995e-05
403,2.67581e-06,6.73983e-06,4.8371e-05,5.5492e-05,-9.99537e-06,2.03282e-05
404,-1.346e-05,1.20122e-05,4.61574e-05,5.77697e-05,-9.18576e-06,1.74205e-05
405,-3.29864e-05,1.22695e-05,3.56374e-05,5.94203e-05,-5.81332e-06,1.55472e-05
406,-3.48048e-05,8.57203e-06,3.2021e-05,6.15935e-05,-2.61867e-06,1.74341e-05
407,-1.07226e-05,9.79244e-06,4.2144e-05,6.28993e-05,1.61749e-06,2.11146e-05
408,6.73234e-06,1.53232e-05,4.72381e-05,6.01156e-05,2.23753e-06,2.21529e-05
409,7.08761e-06,1.81402e-05,4.43369e-05,5.6317e-05,-5.54289e-06,2.02802e-05
410,5.25219e-06,1.77486e-05,4.59428e-05,5.59747e-05,-1.45809e-05,2.04493e-05
411,3.03742e-06,1.88883e-05,4.76342e-05,5.65891e-05,-1.57139e-05,2.27768e-05
412,-2.67424e-07,2.15248e-05,4.71392e-05,5.44576e-05,-1.10691e-05,2.43274e-05
413,-1.15096e-05,2.27218e-05,4.09773e-05,5.33594e-05,-8.13226e-06,2.26733e-05
414,-2.36884e-05,1.89307e-05,3.50423e-05,5.54546e-05,-8.34729e-06,1.59202e-05
415,-1.70807e-05,1.4046e-05,3.80567e-05,5.57564e-05,-5.79038e-06,1.31348e-05
416,1.87237e-06,1.10192e-05,4.50076e-05,5.58831e-05,-4.1707e-06,1.69576e-05
417,1.22373e-05,1.13468e-05,4.79656e-05,5.60194e-05,-6.54458e-06,2.24167e-05
418,8.7679e-06,1.74287e-05,4.63585e-05,5.30226e-05,-1.02644e-05,2.42512e-05
419,-5.87224e-06,2.34413e-05,4.32332e-05,4.86544e-05,-1.43892e-05,2.0865e-05
420,-1.94863e-05,1.83348e-05,4.0235e-05,5.02869e-05,-1.71153e-05,1.70832e-05
421,-1.43123e-05,6.49631e-06,4.34903e-05,5.57103e-05,-1.66731e-05,1.72729e-05
422,6.43471e-06,-2.59475e-07,4.93193e-05,5.72783e-05,-1.52314e-05,2.13518e-05
423,2.04901e-05,2.18234e-06,4.85309e-05,5.47011e-05,-1.38287e-05,2.66204e-05
424,1.6622e-05,9.05049e-06,4.20348e-05,5.11268e-05,-9.76237e-06,2.8699e-05
425,-8.38662e-07,1.28934e-05,3.69835e-05,4.87798e-05,-6.01603e-06,2.23243e-05
426,-2.22336e-05,1.24567e-05,3.43281e-05,5.12115e-05,-4.85925e-06,1.15411e-05
427,-2.76438e-05,1.08273e-05,3.60168e-05,5.66738e-05,-5.41597e-06,8.63683e-06
428,-1.3019e-05,1.03738e-05,4.15826e-05,5.71008e-05,-1.01421e-05,1.7763e-05
429,-1.69125e-06,1.01629e-05,4.37948e-05,5.2298e-05,-1.71441e-05,2.70889e-05
430,-5.464e-06,1.08963e-05,3.87459e-05,4.66258e-05,-2.00612e-05,2.69592e-05
431,-1.96006e-05,1.17907e-05,3.16224e-05,4.6371e-05,-2.09215e-05,2.19702e-05
432,-4.27341e-05,1.04676e-05,2.52615e-05,5.05909e-05,-2.08945e-05,1.7856e-05
433,-4.64141e-05,8.72731e-06,2.4986e-05,5.32674e-05,-1.62857e-05,1.76966e-05
434,-1.87445e-05,7.76511e-06,3.04693e-05,5.22688e-05,-7.8609e-06,2.22691e-05
435,-3.08359e-06,5.77859e-06,3.05376e-05,5.13055e-05,-4.98527e-06,2.53772e-05
436,-5.70349e-06,3.78218e-06,3.01729e-05,5.22301e-05,-9.78401e-06,2.12636e-05
437,-4.97888e-06,-2.14881e-07,3.36897e-05,5.35243e-05,-1.54241e-05,1.57272e-05
438,-1.47547e-06,-5.73309e-08,3.43809e-05,5.40053e-05,-1.95708e-05,1.2529e-05
439,2.29661e-06,5.39326e-06,3.26211e-05,5.01471e-05,-2.18813e-05,9.72172e-06
440,-8.93019e-06,7.02009e-06,2.99359e-05,4.43228e-05,-2.43659e-05,4.34732e-06
441,-2.87636e-05,3.5131e-06,2.9123e-05,4.50682e-05,-2.53222e-05,-4.01185e-06
442,-2.82693e-05,1.51066e-06,3.54931e-05,4.9112e-05,-2.08146e-05,-4.32615e-06
443,-8.14291e-06,3.13971e-06,4.39415e-05,5.116e-05,-1.7386e-05,1.05323e-05
444,6.18156e-06,5.33571e-06,4.71514e-05,4.92529e-05,-2.24823e-05,3.23632e-05
445,6.3897e-06,7.41378e-06,4.4608e-05,4.44861e-05,-2.95907e-05,4.25374e-05
446,-4.70938e-06,9.2188e-06,3.56338e-05,4.08157e-05,-2.79512e-05,2.67541e-05
447,-1.71322e-05,7.56926e-06,2.66187e-05,4.24019e-05,-1.79143e-05,-4.24733e-06
448,-1.48505e-05,4.73219e-06,2.81306e-05,4.64619e-05,-6.46036e-06,-1.85258e-05
449,8.08164e-07,5.11285e-06,3.78437e-05,4.65817e-05,-1.28983e-06,-4.82728e-06
450,1.13824e-05,8.93885e-06,4.375e-05,4.14144e-05,-3.24433e-06,1.51323e-05
451,8.45654e-06,1.35611e-05,4.23992e-05,3.39496e-05,-4.42536e-06,2.06765e-05
452,-8.08731e-06,1.50705e-05,3.77579e-05,2.94284e-05,-2.2165e-06,1.40096e-05
453,-3.12056e-05,1.12087e-05,3.27207e-05,3.1194e-05,-2.82271e-06,5.63748e-06
454,-3.42181e-05,5.52177e-06,3.4518e-05,3.68516e-05,-9.80654e-06,4.66859e-06
455,-1.22494e-05,4.97233e-06,4.40098e-05,3.94377e-05,-1.69432e-05,1.43792e-05
456,5.46612e-06,7.36711e-06,4.91064e-05,3.93192e-05,-1.73457e-05,2.2329e-05
457,4.8617e-06,1.07838e-05,4.3891e-05,3.67611e-05,-1.31009e-05,1.86583e-05
458,-1.00852e-05,1.39369e-05,3.5029e-05,3.16424e-05,-7.9021e-06,7.37815e-06
459,-3.57652e-05,1.12532e-05,2.8381e-05,2.99048e-05,-2.9302e-06,5.20634e-07
460,-3.98397e-05,4.45517e-06,2.97148e-05,3.543e-05,1.99903e-06,7.35226e-06
461,-1.08971e-05,2.33277e-06,3.9199e-05,4.3744e-05,2.26691e-06,2.0622e-05
462,8.64984e-06,3.14745e-06,4.0824e-05,4.66451e-05,-4.58785e-06,2.34232e-05
463,9.80279e-06,4.01761e-06,3.73207e-05,4.54832e-05,-6.86293e-06,1.80531e-05
464,1.26746e-05,5.47675e-06,3.82254e-05,4.6961e-05,-1.15247e-06,1.78806e-05
465,1.43713e-05,7.7644e-06,3.89306e-05,4.96265e-05,3.98113e-06,2.11503e-05
466,1.14618e-05,1.18589e-05,3.7649e-05,4.90887e-05,4.01303e-06,2.07755e-05
467,-3.35076e-06,1.58542e-05,3.06522e-05,4.69217e-05,3.24643e-06,1.45592e-05
468,-2.24742e-05,1.733e-05,2.39127e-05,4.93851e-05,4.37295e-06,6.42407e-06
469,-2.18925e-05,1.57983e-05,2.75451e-05,5.04259e-05,4.91426e-06,2.80205e-06
470,-2.20516e-06,1.2742e-05,3.69587e-05,4.80842e-05,1.88845e-06,2.90946e-06
471,1.35491e-05,1.29223e-05,4.09328e-05,4.70337e-05,-3.92867e-06,4.18384e-06
472,1.52323e-05,1.78522e-05,4.01038e-05,4.58514e-05,-7.13851e-06,1.21637e-05
473,2.10009e-06,2.01967e-05,3.35218e-05,4.47934e-05,-7.40547e-06,2.50869e-05
474,-1.43987e-05,1.57119e-05,2.49782e-05,4.85973e-05,-5.99302e-06,3.06406e-05
475,-1.22962e-05,1.01824e-05,2.38085e-05,5.57603e-05,-2.98166e-06,2.39987e-05
476,7.18213e-06,1.0052e-05,3.10687e-05,6.08672e-05,-5.04213e-07,1.68009e-05
477,2.09368e-05,1.50057e-05,3.74729e-05,6.17786e-05,-9.77586e-07,1.65313e-05
478,1.81708e-05,1.89316e-05,3.75487e-05,5.78297e-05,-3.01388e-06,1.76915e-05
479,2.9439e-06,1.65211e-05,3.15863e-05,5.16284e-05,-5.80304e-06,1.49322e-05
480,-1.60923e-05,1.02552e-05,2.4005e-05,4.90422e-05,-9.99631e-06,9.21146e-06
481,-2.04328e-05,8.63321e-06,2.32683e-05,5.22544e-05,-1.25748e-05,5.92164e-06
482,-6.63257e-06,1.49039e-05,2.94918e-05,5.65649e-05,-9.67934e-06,8.27693e-06
483,6.67703e-06,2.18081e-05,3.61176e-05,5.78038e-05,-7.25596e-06,1.12874e-05
484,6.00155e-06,2.20007e-05,3.71216e-05,5.49973e-05,-9.4014e-06,1.09613e-05
485,-5.75926e-06,2.30243e-05,3.53931e-05,5.41362e-05,-1.13917e-05,1.10549e-05
486,-2.19658e-05,2.56641e-05,2.99106e-05,5.91882e-05,-1.0361e-05,8.95969e-06
487,-2.17431e-05,2.36556e-05,2.69734e-05,6.36096e-05,-5.71721e-06,7.44499e-06
488,1.57115e-06,2.08688e-05,3.46151e-05,6.16438e-05,-8.31942e-08,1.02028e-05
489,1.38504e-05,2.24216e-05,4.08882e-05,5.59408e-05,4.66206e-07,1.13262e-05
490,1.26513e-05,2.44606e-05,3.93088e-05,5.38834e-05,-3.58319e-06,1.23388e-05
491,1.25295e-05,2.03547e-05,3.81095e-05,5.85301e-05,-5.87385e-06,1.75477e-05
492,7.57614e-06,1.60029e-05,3.99187e-05,6.19622e-05,-7.74058e-06,1.72769e-05
493,2.72622e-06,1.74371e-05,4.31833e-05,5.88682e-05,-9.65042e-06,9.31944e-06
494,-1.00782e-05,2.28485e-05,4.02352e-05,5.58733e-05,-9.45671e-06,-6.61477e-08
495,-2.49005e-05,2.2462e-05,3.27728e-05,6.34737e-05,-8.55913e-06,-9.85248e-06
496,-1.79725e-05,1.7628e-05,3.47534e-05,7.16566e-05,-9.41777e-06,-1.36784e-05
497,5.52565e-06,1.41816e-05,4.4916e-05,7.01469e-05,-1.11534e-05,-6.52489e-06
498,2.07357e-05,1.50143e-05,5.0432e-05,6.02052e-05,-1.09308e-05,4.23856e-06
499,1.69196e-05,1.7157e-05,4.86653e-05,4.63998e-05,-7.82849e-06,8.13391e-06
500,-3.76045e-06,1.36175e-05,3.94732e-05,3.85331e-05,-5.43265e-06,5.98212e-06
501,-2.57002e-05,5.91282e-06,2.77268e-05,4.30308e-05,-4.64771e-06,2.59429e-06
502,-2.64452e-05,1.61877e-06,2.66808e-05,5.33791e-05,-5.55281e-06,2.30999e-06
503,-6.7829e-06,2.37228e-06,3.76002e-05,5.84209e-05,-8.01368e-06,8.15995e-06
504,8.15684e-06,6.32527e-06,4.6932e-05,5.68433e-05,-1.11036e-05,1.37077e-05
505,4.98025e-06,1.29415e-05,4.82749e-05,5.3013e-05,-1.39103e-05,1.3274e-05
506,-9.89002e-06,1.76429e-05,4.45194e-05,5.07192e-05,-1.39585e-05,1.09394e-05
507,-2.30418e-05,1.74527e-05,3.85064e-05,5.1387e-05,-1.03912e-05,1.11661e-05
508,-1.70977e-05,1.39235e-05,3.75048e-05,5.39223e-05,-6.36272e-06,1.3713e-05
509,4.36971e-06,1.14646e-05,4.48542e-05,5.39538e-05,-6.63889e-06,1.67412e-05
510,1.60639e-05,1.09338e-05,5.23017e-05,5.35516e-05,-9.36779e-06,1.54608e-05
511,8.07418e-06,1.0767e-05,5.25446e-05,5.33767e-05,-1.17494e-05,8.91113e-06
512,-1.27925e-05,8.48375e-06,4.63605e-05,5.04762e-05,-1.25805e-05,3.78589e-07
513,-4.02646e-05,3.37338e-06,3.65286e-05,4.91131e-05,-1.04597e-05,-6.55847e-06
514,-4.63997e-05,-2.69019e-06,3.37235e-05,5.45646e-05,-5.35911e-06,-2.18841e-06
515,-2.29363e-05,-2.04386e-06,4.02793e-05,6.10925e-05,-3.31955e-06,1.24535e-05
516,-9.47452e-06,4.52918e-06,4.26363e-05,6.11749e-05,-7.25141e-06,1.99108e-05
517,-1.13262e-05,1.02895e-05,4.05777e-05,5.73533e-05,-8.91483e-06,1.54258e-05
518,-1.06587e-05,1.0877e-05,4.01627e-05,5.59418e-05,-6.57319e-06,1.21568e-05
519,-1.11607e-05,1.21443e-05,4.00546e-05,5.57802e-05,-5.52994e-06,1.6282e-05
520,-1.59156e-05,1.85269e-05,4.11405e-05,5.26267e-05,-3.12764e-06,2.2213e-05
521,-3.01405e-05,2.23341e-05,3.82486e-05,4.85669e-05,-6.80793e-07,2.47117e-05
522,-4.27504e-05,1.89745e-05,3.29145e-05,4.88626e-05,1.12316e-06,2.2075e-05
523,-3.44885e-05,1.31014e-05,3.69264e-05,5.04619e-05,3.02065e-06,1.70585e-05
524,-9.02651e-06,1.16773e-05,4.82912e-05,5.16005e-05,7.34433e-07,1.54056e-05
525,7.75528e-06,1.30631e-05,5.26722e-05,5.26434e-05,-5.22554e-06,1.61224e-05
526,5.80566e-06,1.38719e-05,4.78144e-05,5.22244e-05,-9.39771e-06,1.51723e-05
527,-1.23614e-05,1.19386e-05,3.77128e-05,5.0872e-05,-1.07574e-05,1.13149e-05
528,-3.0965e-05,8.57755e-06,2.87913e-05,5.07541e-05,-9.73198e-06,8.78591e-06
529,-2.91751e-05,6.80797e-06,3.02921e-05,5.3219e-05,-7.9791e-06,1.00522e-05
530,-9.88186e-06,7.08538e-06,3.99904e-05,5.56404e-05,-9.40034e-06,1.29834e-05
531,2.97347e-06,8.6681e-06,4.55792e-05,5.54266e-05,-1.36263e-05,1.58071e-05
532,9.54854e-07,1.23039e-05,4.24484e-05,4.93687e-05,-1.80333e-05,1.99622e-05
533,-9.02643e-06,1.74428e-05,3.4519e-05,4.02714e-05,-2.12116e-05,2.34772e-05
534,-2.08399e-05,1.81249e-05,2.72699e-05,3.78795e-05,-2.11864e-05,2.0135e-05
535,-1.87006e-05,1.37433e-05,2.76664e-05,4.47771e-05,-1.59806e-05,1.33046e-05
536,-3.71009e-07,1.11442e-05,3.52585e-05,5.06962e-05,-1.05312e-05,1.31184e-05
537,1.20479e-05,1.16282e-05,4.22026e-05,4.99252e-05,-9.49951e-06,1.91454e-05
538,4.9137e-06,1.40125e-05,4.08209e-05,4.38804e-05,-8.11512e-06,2.58145e-05
539,-1.30153e-05,1.79644e-05,3.23947e-05,3.70367e-05,-4.19481e-06,3.11413e-05
540,-3.60153e-05,1.81037e-05,2.11688e-05,3.52906e-05,-2.61736e-06,3.11555e-05
541,-3.74889e-05,1.2749e-05,1.95811e-05,3.91159e-05,-1.42835e-06,2.82816e-05
542,-9.58207e-06,9.7885e-06,3.22395e-05,4.46401e-05,-3.52495e-06,3.12873e-05
543,8.56852e-06,1.02633e-05,3.78106e-05,4.72436e-05,-1.16059e-05,3.84384e-05
544,8.86232e-06,9.91264e-06,3.32277e-05,4.70918e-05,-1.75569e-05,4.03336e-05
545,9.27191e-06,1.02802e-05,3.05233e-05,4.78198e-05,-1.98474e-05,3.45158e-05
546,1.08946e-05,1.24525e-05,3.39376e-05,4.91119e-05,-2.23214e-05,1.94955e-05
547,9.05727e-06,1.20933e-05,3.76424e-05,4.65096e-05,-2.1261e-05,7.46478e-07
548,-9.30543e-06,7.47002e-06,3.2248e-05,4.22601e-05,-1.65525e-05,-7.74265e-06
549,-3.29785e-05,1.70625e-06,2.57224e-05,4.45737e-05,-8.92941e-06,-2.29185e-06
550,-2.99239e-05,-5.91405e-07,2.87759e-05,5.0451e-05,-1.85525e-06,7.73225e-06
551,-4.09197e-06,3.83915e-06,3.71022e-05,5.38789e-05,-1.66583e-06,1.59283e-05
552,1.45526e-05,1.15612e-05,3.96383e-05,5.41601e-05,-5.27768e-06,1.84231e-05
553,1.59249e-05,1.83685e-05,3.76586e-05,5.28369e-05,-8.3585e-06,1.72917e-05
554,5.43173e-09,2.13783e-05,3.04016e-05,5.24175e-05,-9.67982e-06,1.09282e-05
555,-1.96711e-05,1.76901e-05,1.96284e-05,5.52602e-05,-1.21636e-05,-1.49448e-06
556,-2.24818e-05,1.08784e-05,1.56009e-05,6.05099e-05,-1.57267e-05,-4.582e-06
557,-5.6736e-06,9.29699e-06,2.39767e-05,6.37985e-05,-1.76537e-05,1.44779e-05
558,1.23544e-05,1.49182e-05,3.42526e-05,6.25605e-05,-1.78977e-05,3.9332e-05
559,1.63071e-05,1.99597e-05,3.61145e-05,5.67608e-05,-1.89438e-05,4.05549e-05
560,5.66373e-06,1.85136e-05,3.11431e-05,5.05428e-05,-1.92653e-05,1.90284e-05
561,-1.18099e-05,1.29897e-05,2.47203e-05,5.02205e-05,-1.66073e-05,3.76242e-06
562,-1.44515e-05,9.04731e-06,2.49855e-05,5.49115e-05,-1.35086e-05,1.06183e-05
563,2.79132e-06,8.32891e-06,3.4212e-05,5.67967e-05,-1.18699e-05,2.46329e-05
564,1.45087e-05,9.41991e-06,4.21927e-05,5.37069e-05,-1.26214e-05,2.87948e-05
565,6.35447e-06,1.21463e-05,4.14232e-05,4.58502e-05,-1.36003e-05,2.34045e-05
566,-1.40231e-05,1.57922e-05,3.56323e-05,3.82222e-05,-1.25736e-05,1.82254e-05
567,-4.0363e-05,1.67151e-05,2.51709e-05,4.10785e-05,-1.03959e-05,1.10239e-05
568,-4.40631e-05,1.4402e-05,2.14938e-05,5.17136e-05,-7.48168e-06,5.38655e-06
569,-1.57356e-05,1.31034e-05,2.80863e-05,5.82766e-05,-3.05519e-06,1.15303e-05
570,3.01942e-06,1.29996e-05,3.13041e-05,5.6717e-05,-8.75457e-07,1.84711e-05
571,3.64583e-06,1.20543e-05,3.16869e-05,5.35965e-05,-6.61668e-06,2.02256e-05
572,4.88423e-06,8.86293e-06,3.41503e-05,5.50937e-05,-1.45953e-05,2.114e-05
573,9.92764e-06,7.21605e-06,3.62842e-05,5.56562e-05,-2.30765e-05,2.11326e-05
574,1.27033e-05,1.14952e-05,3.72815e-05,4.96495e-05,-2.91428e-05,2.31435e-05
575,-2.75881e-06,1.73232e-05,3.47907e-05,4.55444e-05,-2.8234e-05,2.27902e-05
576,-2.38229e-05,1.77706e-05,3.33398e-05,5.1211e-05,-2.36881e-05,1.46527e-05
577,-2.48445e-05,1.33653e-05,3.99481e-05,6.00233e-05,-1.88454e-05,5.59167e-06
578,-7.41669e-06,8.67956e-06,4.82949e-05,6.35718e-05,-1.67817e-05,3.16372e-06
579,6.16656e-06,6.89852e-06,4.93161e-05,5.97124e-05,-1.45196e-05,6.94185e-06
580,8.7053e-06,1.17542e-05,4.51913e-05,5.22622e-05,-1.21851e-05,1.26739e-05
581,-2.2818e-06,1.84972e-05,3.79649e-05,4.69945e-05,-9.64571e-06,1.44e-05
582,-1.94344e-05,1.81087e-05,2.93278e-05,4.7244e-05,-8.13549e-06,1.21141e-05
583,-2.19603e-05,1.19098e-05,2.81269e-05,4.95864e-05,-8.31552e-06,1.00799e-05
584,-5.81179e-06,6.67829e-06,3.65673e-05,5.00059e-05,-8.16536e-06,1.10572e-05
585,8.34575e-06,4.93885e-06,4.44466e-05,4.89583e-05,-5.68436e-06,1.29319e-05
586,7.3517e-06,6.20877e-06,4.52294e-05,4.75008e-05,-2.10826e-06,1.30578e-05
587,-5.8359e-06,7.21436e-06,3.90637e-05,4.6006e-05,1.04588e-08,1.15599e-05
588,-2.2626e-05,3.74833e-06,3.08415e-05,4.67609e-05,8.21789e-07,1.09332e-05
589,-2.38824e-05,9.12846e-08,2.95498e-05,4.99805e-05,9.60762e-07,1.4149e-05
590,-8.16561e-06,2.09599e-06,3.51297e-05,5.21889e-05,-2.55167e-08,1.76435e-05
591,3.28006e-06,7.45651e-06,4.08347e-05,5.41704e-05,-4.35275e-06,1.6663e-05
592,1.75313e-06,9.87128e-06,4.24038e-05,5.49956e-05,-9.57527e-06,1.39498e-05
593,-6.64905e-06,1.01824e-05,3.5714e-05,5.42587e-05,-1.07471e-05,1.3616e-05
594,-2.13024e-05,1.22799e-05,2.62296e-05,5.28149e-05,-7.86944e-06,1.06571e-05
595,-2.24003e-05,1.32755e-05,3.04543e-05,5.23449e-05,-6.19261e-06,6.38703e-06
596,-2.21784e-06,1.06526e-05,4.48238e-05,5.30195e-05,-7.18812e-06,9.50984e-06
597,8.72679e-06,8.92529e-06,5.08768e-05,5.2985e-05,-9.15529e-06,1.68646e-05
598,8.55351e-06,7.36542e-06,5.15435e-05,5.43761e-05,-1.04271e-05,2.05621e-05
599,1.04041e-05,5.05864e-06,5.18285e-05,5.42781e-05,-7.75496e-06,1.64102e-05
600,8.83534e-06,5.29817e-06,5.16232e-05,4.94465e-05,-2.13442e-06,8.42e-06
601,-1.52565e-07,7.2734e-06,5.10702e-05,4.27445e-05,2.64978e-06,3.11813e-06
602,-2.21496e-05,7.36892e-06,4.23471e-05,4.07867e-05,5.92857e-06,-1.29459e-06
603,-3.95803e-05,2.97738e-06,3.38225e-05,4.53436e-05,2.69074e-06,-1.43375e-06
604,-3.33718e-05,7.45991e-07,3.47865e-05,5.11296e-05,-5.625e-06,5.15855e-06
605,-1.16748e-05,1.99719e-06,4.05977e-05,5.47234e-05,-1.08264e-05,1.30577e-05
606,2.44284e-06,6.56873e-06,4.52459e-05,5.40882e-05,-7.23446e-06,1.47702e-05
607,5.47667e-06,1.16111e-05,4.6732e-05,5.23247e-05,7.42193e-07,1.30152e-05
608,-3.31091e-06,1.20451e-05,4.16942e-05,5.13742e-05,3.8343e-06,1.03231e-05
609,-1.61848e-05,7.13921e-06,3.43385e-05,5.28453e-05,1.40733e-06,6.17506e-06
610,-1.58189e-05,2.28063e-06,3.34569e-05,5.60014e-05,-3.41668e-06,3.83376e-06
611,-3.6469e-06,2.87145e-06,3.8303e-05,5.79298e-05,-8.5987e-06,7.5759e-06
612,2.85009e-06,6.89231e-06,4.22333e-05,5.55287e-05,-1.14469e-05,1.87988e-05
613,-1.60594e-06,9.13226e-06,4.23638e-05,4.72551e-05,-1.03507e-05,3.27206e-05
614,-1.1735e-05,8.78772e-06,3.83945e-05,4.11515e-05,-1.12665e-05,3.53775e-05
615,-2.38462e-05,1.0091e-05,3.28073e-05,4.53823e-05,-1.60357e-05,1.82001e-05
616,-1.9953e-05,1.06517e-05,3.37895e-05,5.4682e-05,-1.6565e-05,-1.66365e-06
617,3.62835e-06,1.00774e-05,4.12548e-05,5.88805e-05,-1.17077e-05,-2.26157e-06
618,2.20442e-05,1.10155e-05,4.51767e-05,5.53287e-05,-8.34011e-06,1.36828e-05
619,1.77611e-05,1.36693e-05,4.10079e-05,4.62437e-05,-7.2793e-06,2.53903e-05
620,-1.87241e-06,1.61474e-05,3.10691e-05,3.97049e-05,-7.60786e-06,2.37041e-05
621,-2.79557e-05,1.52117e-05,2.09575e-05,4.32332e-05,-7.68535e-06,1.66618e-05
622,-3.40121e-05,1.38006e-05,2.33934e-05,5.13221e-05,-6.7628e-06,1.698e-05
623,-1.11018e-05,1.59001e-05,3.73685e-05,5.36781e-05,-5.47383e-06,2.65161e-05
624,3.6968e-06,1.92527e-05,4.27654e-05,5.09952e-05,-7.01288e-06,3.31307e-05
625,3.80552e-06,2.31191e-05,4.07174e-05,5.02191e-05,-1.25997e-05,3.08689e-05
626,8.48898e-06,2.17082e-05,4.27568e-05,5.23801e-05,-1.8472e-05,2.64466e-05
627,1.26555e-05,1.74019e-05,4.40228e-05,5.21144e-05,-2.23565e-05,2.31535e-05
628,1.20369e-05,1.71913e-05,4.12788e-05,4.62107e-05,-2.28865e-05,1.97813e-05
629,-4.37139e-06,2.10349e-05,3.25061e-05,4.1499e-05,-2.14046e-05,1.13596e-05
630,-2.40942e-05,2.21691e-05,2.50217e-05,4.42326e-05,-1.68986e-05,5.8756e-06
631,-2.00472e-05,1.813e-05,2.77098e-05,5.0497e-05,-1.19665e-05,1.08897e-05
632,8.59628e-07,1.30914e-05,3.78643e-05,5.5563e-05,-1.02228e-05,1.75396e-05
633,1.37461e-05,1.33801e-05,4.53979e-05,5.53502e-05,-1.18565e-05,1.78439e-05
634,1.23106e-05,2.09305e-05,4.70756e-05,5.05232e-05,-1.31957e-05,1.32324e-05
635,-1.64278e-06,2.69683e-05,4.23633e-05,4.66726e-05,-1.0862e-05,7.5706e-06
636,-1.7223e-05,2.57077e-05,3.60566e-05,4.9729e-05,-7.38392e-06,4.54649e-06
637,-1.5549e-05,1.92012e-05,3.47228e-05,5.49132e-05,-6.451e-06,7.33466e-06
638,-2.43181e-08,1.60996e-05,3.89967e-05,5.51278e-05,-8.96906e-06,1.61756e-05
639,1.03876e-05,1.73754e-05,4.40717e-05,5.12526e-05,-1.25289e-05,2.65336e-05
640,8.01933e-06,1.8125e-05,4.52989e-05,4.73502e-05,-1.45969e-05,3.14945e-05
641,-3.6045e-06,1.65375e-05,4.25374e-05,4.56948e-05,-1.29044e-05,2.92934e-05
642,-1.89233e-05,1.34955e-05,3.83174e-05,4.92477e-05,-7.26451e-06,2.25303e-05
643,-2.03675e-05,1.01167e-05,4.16344e-05,5.57501e-05,-2.09555e-06,1.63314e-05
644,-4.29976e-06,9.50621e-06,5.20228e-05,5.94903e-05,-3.49443e-06,1.66259e-05
645,1.25062e-05,1.11395e-05,5.81404e-05,5.90583e-05,-1.18242e-05,2.30038e-05
646,1.76789e-05,1.34749e-05,5.53098e-05,5.25624e-05,-1.88356e-05,2.69761e-05
647,7.46181e-06,1.45454e-05,4.84957e-05,4.45502e-05,-1.94682e-05,2.58352e-05
648,-1.52203e-05,1.1328e-05,4.16389e-05,4.58377e-05,-1.60869e-05,2.1067e-05
649,-1.80545e-05,7.70101e-06,4.36116e-05,5.46137e-05,-1.22633e-05,2.17745e-05
650,5.02477e-06,7.05371e-06,5.28362e-05,6.07113e-05,-1.14952e-05,2.87588e-05
651,1.38985e-05,7.13586e-06,5.46501e-05,6.28425e-05,-1.26148e-05,2.82414e-05
652,9.31678e-06,8.17498e-06,5.01892e-05,5.91862e-05,-9.92126e-06,1.95547e-05
653,1.008e-05,1.24945e-05,4.5245e-05,5.65805e-05,-3.07852e-06,1.66324e-05
654,1.19824e-05,1.92917e-05,4.03379e-05,5.44596e-05,-9.50247e-07,2.01471e-05
655,1.22859e-05,2.37718e-05,3.98592e-05,4.81236e-05,-4.74055e-06,1.88923e-05
656,-9.88128e-07,2.17526e-05,3.76776e-05,4.21722e-05,-1.05466e-05,1.12365e-05
657,-1.98347e-05,1.65304e-05,3.45181e-05,4.32641e-05,-1.35853e-05,4.52237e-06
658,-1.88032e-05,1.11188e-05,3.51629e-05,4.9048e-05,-1.34863e-05,6.64455e-06
659,-2.71764e-06,8.25086e-06,3.81334e-05,5.09164e-05,-1.27954e-05,1.09743e-05
660,7.09083e-06,9.645e-06,3.82699e-05,4.89859e-05,-1.36316e-05,1.05159e-05
661,7.05315e-06,1.13749e-05,3.30909e-05,4.53778e-05,-1.42643e-05,8.43354e-06
662,-1.0714e-06,1.10786e-05,2.36272e-05,4.40713e-05,-1.35906e-05,6.21598e-06
663,-1.11648e-05,9.24194e-06,1.55436e-05,4.57976e-05,-1.15835e-05,3.5113e-06
664,-1.01151e-05,6.81656e-06,1.8001e-05,4.90203e-05,-7.82726e-06,3.46567e-06
665,1.42915e-06,3.2205e-06,2.8486e-05,5.18471e-05,-5.84515e-06,8.46161e-06
666,8.32229e-06,1.85425e-06,3.60288e-05,5.22407e-05,-5.80979e-06,1.15527e-05
667,2.36143e-06,5.19712e-06,3.41168e-05,4.75378e-05,-5.54811e-06,7.52636e-06
668,-1.30816e-05,1.01189e-05,2.46471e-05,4.04605e-05,-3.78516e-06,-7.46012e-07
669,-2.81338e-05,1.01598e-05,1.46522e-05,3.95697e-05,-2.50034e-06,-4.98453e-06
670,-2.72771e-05,5.25411e-06,1.74986e-05,4.49771e-05,-8.83993e-07,5.20188e-07
671,-1.11662e-05,3.52241e-06,3.34525e-05,4.87791e-05,-1.01932e-07,1.15321e-05
672,3.89687e-07,8.20027e-06,4.55499e-05,4.84707e-05,-2.14199e-06,1.52862e-05
673,1.27492e-06,1.49701e-05,4.39094e-05,4.62281e-05,-2.49995e-06,1.07559e-05
674,-7.74896e-06,1.63111e-05,3.56511e-05,4.09687e-05,2.87832e-06,5.65374e-06
675,-3.12409e-05,1.29567e-05,2.82375e-05,3.76531e-05,5.58727e-06,2.20036e-06
676,-4.04066e-05,1.06741e-05,2.8769e-05,4.03074e-05,9.01339e-07,5.30523e-06
677,-1.92042e-05,8.35567e-06,3.64441e-05,4.3391e-05,-4.22672e-06,1.80401e-05
678,-3.53353e-06,6.00041e-06,3.83187e-05,4.39286e-05,-7.73252e-06,2.88148e-05
679,-5.22359e-06,7.65403e-06,3.58476e-05,4.50507e-05,-9.33572e-06,3.11219e-05
680,-6.37627e-06,1.1665e-05,3.67068e-05,5.25068e-05,-6.17855e-06,2.91968e-05
681,-5.27188e-06,1.60796e-05,3.45149e-05,6.11759e-05,-3.14794e-06,2.28862e-05
682,-3.73105e-06,1.63128e-05,3.06025e-05,6.18246e-05,-3.70522e-06,1.35881e-05
683,-1.39058e-05,1.26984e-05,2.54711e-05,5.6541e-05,-7.02243e-06,4.8145e-06
684,-2.88642e-05,8.99124e-06,2.02047e-05,5.55047e-05,-9.59067e-06,4.42393e-07
685,-2.50046e-05,6.42887e-06,2.37754e-05,5.85424e-05,-9.80749e-06,3.52808e-06
686,-6.60724e-06,6.72993e-06,3.49117e-05,5.8822e-05,-1.00559e-05,1.172e-05
687,5.87839e-06,1.0748e-05,4.44519e-05,5.70338e-05,-1.19594e-05,1.4867e-05
688,5.26503e-06,1.44763e-05,4.54434e-05,5.70349e-05,-1.27283e-05,1.34146e-05
689,-9.09939e-06,1.17586e-05,3.72648e-05,5.92925e-05,-9.83603e-06,9.45145e-06
690,-2.56119e-05,5.12084e-06,2.86155e-05,6.28827e-05,-6.30559e-06,4.02721e-06
691,-2.30224e-05,3.18706e-07,3.02308e-05,6.61162e-05,-6.13253e-06,-3.59971e-06
692,-3.1235e-06,1.30387e-06,3.94433e-05,6.56588e-05,-9.39545e-06,-7.14984e-06
693,1.11569e-05,7.07743e-06,4.54812e-05,6.25904e-05,-1.25619e-05,9.683e-07
694,8.15007e-06,1.27722e-05,4.4585e-05,5.96943e-05,-1.40545e-05,1.89583e-05
695,-7.58986e-06,1.47939e-05,3.92951e-05,5.89217e-05,-1.48361e-05,3.54555e-05
696,-2.52375e-05,1.27075e-05,3.37298e-05,6.12934e-05,-1.50634e-05,3.4915e-05
697,-2.30366e-05,8.67452e-06,3.5083e-05,6.44523e-05,-1.10693e-05,2.09013e-05
698,-2.60598e-07,6.64479e-06,4.25085e-05,6.30117e-05,-5.52532e-06,1.55423e-05
699,1.61576e-05,9.50656e-06,4.67627e-05,5.92435e-05,-2.90212e-06,2.50367e-05
700,1.25669e-05,1.73711e-05,4.63226e-05,5.32048e-05,-8.05204e-07,2.97339e-05
701,-2.68978e-06,2.29334e-05,4.25204e-05,4.61438e-05,1.97283e-06,1.94447e-05
702,-2.53365e-05,1.78623e-05,3.23252e-05,4.5682e-05,3.44916e-06,2.8475e-06
703,-3.15576e-05,1.07641e-05,3.0263e-05,4.96189e-05,5.35981e-06,2.02454e-06
704,-1.10511e-05,1.12817e-05,4.09615e-05,5.07939e-05,3.431e-06,1.95311e-05
705,2.5511e-07,1.01692e-05,4.4448e-05,4.90912e-05,-5.42052e-06,3.04639e-05
706,-8.55526e-07,5.48627e-06,4.09743e-05,5.01469e-05,-1.56197e-05,2.41145e-05
707,-1.85467e-07,4.29422e-06,3.75501e-05,5.34303e-05,-2.14483e-05,1.05589e-05
708,-1.18938e-06,4.59157e-06,3.70272e-05,5.27274e-05,-2.23809e-05,2.45459e-06
709,-5.15169e-06,9.02153e-06,3.84532e-05,4.67854e-05,-1.94328e-05,5.3125e-06
710,-1.87611e-05,1.4495e-05,3.40061e-05,4.2679e-05,-1.47336e-05,8.19418e-06
711,-3.04236e-05,1.45369e-05,2.83505e-05,4.46886e-05,-1.11851e-05,7.94331e-06
712,-2.06551e-05,1.31391e-05,2.98263e-05,4.82048e-05,-9.58199e-06,7.99257e-06
713,2.41583e-06,1.4206e-05,3.80731e-05,5.03345e-05,-9.98241e-06,1.14637e-05
714,1.54613e-05,1.72259e-05,4.3897e-05,5.07918e-05,-1.07952e-05,1.6336e-05
715,1.34319e-05,1.89623e-05,4.41363e-05,4.89422e-05,-1.05257e-05,1.93538e-05
716,-1.22248e-06,1.92232e-05,3.94648e-05,4.59357e-05,-9.09252e-06,1.92077e-05
717,-1.9462e-05,1.94248e-05,3.41183e-05,4.71446e-05,-7.01511e-06,1.74843e-05
718,-2.20355e-05,2.09561e-05,3.46157e-05,5.14918e-05,-6.20809e-06,2.02796e-05
719,-6.57539e-06,2.16677e-05,3.96857e-05,5.23495e-05,-7.58619e-06,2.77484e-05
720,7.36293e-06,2.28927e-05,4.24811e-05,4.90399e-05,-8.31994e-06,3.1997e-05
721,8.32651e-06,2.60741e-05,4.06157e-05,4.56616e-05,-5.95352e-06,2.65327e-05
722,-2.49764e-06,2.61015e-05,3.3931e-05,4.49997e-05,-2.60306e-06,1.31599e-05
723,-2.03592e-05,1.89413e-05,2.42589e-05,4.75002e-05,-2.59251e-06,-1.94785e-06
724,-2.45782e-05,1.08061e-05,2.34126e-05,5.1088e-05,-5.27145e-06,-6.85614e-06
725,-7.92369e-06,7.78126e-06,3.36544e-05,5.29546e-05,-8.07811e-06,4.66663e-06
726,7.18727e-06,8.28918e-06,4.11775e-05,5.3761e-05,-1.16535e-05,2.14996e-05
727,6.25842e-06,1.19114e-05,3.98176e-05,5.35477e-05,-1.19027e-05,2.78532e-05
728,-8.71961e-06,1.65769e-05,3.36658e-05,5.25153e-05,-6.77296e-06,2.28783e-05
729,-3.29322e-05,1.54164e-05,2.9004e-05,5.34377e-05,-2.72703e-06,1.26837e-05
730,-4.04539e-05,7.63887e-06,3.47181e-05,5.49449e-05,-3.20044e-06,9.61716e-06
731,-1.87779e-05,3.68094e-06,4.81853e-05,5.34478e-05,-6.47335e-06,1.42295e-05
732,-4.19089e-06,5.29523e-06,5.3276e-05,5.16799e-05,-8.15287e-06,1.37502e-05
733,-5.44499e-06,4.95118e-06,4.98303e-05,5.42107e-05,-9.94275e-06,1.01583e-05
734,-5.40257e-06,2.23839e-06,4.76951e-05,6.02273e-05,-1.2412e-05,1.07705e-05
735,-3.33933e-06,3.42425e-06,4.53704e-05,6.28963e-05,-1.00695e-05,1.07745e-05
736,-2.79924e-06,8.27871e-06,4.36398e-05,5.87026e-05,-4.79981e-06,1.15553e-05
737,-1.89368e-05,1.00091e-05,3.82412e-05,5.11075e-05,-1.99235e-06,1.32609e-05
738,-3.95285e-05,6.59965e-06,3.37951e-05,4.73967e-05,-7.76261e-07,1.15741e-05
739,-3.61063e-05,3.2807e-06,3.69597e-05,4.68839e-05,-5.67548e-07,1.16041e-05
740,-1.16705e-05,2.92532e-06,4.24879e-05,4.69443e-05,8.28475e-07,1.58887e-05
741,6.42294e-06,6.15676e-06,4.30586e-05,4.65668e-05,3.55127e-06,1.7092e-05
742,7.31385e-06,1.15381e-05,3.9093e-05,4.61015e-05,2.57447e-06,1.45236e-05
743,-6.9269e-06,1.52399e-05,3.20426e-05,4.58815e-05,-2.29171e-06,1.17463e-05
744,-2.12894e-05,1.33424e-05,2.52665e-05,4.48039e-05,-5.15576e-06,9.25941e-06
745,-1.86088e-05,9.52083e-06,2.88444e-05,4.35491e-05,-6.46863e-06,1.21065e-05
746,-2.72218e-06,9.5796e-06,4.13152e-05,4.42788e-05,-7.87476e-06,2.02289e-05
747,8.62967e-06,1.26009e-05,4.89344e-05,4.64615e-05,-7.56358e-06,2.56066e-05
748,6.72693e-06,1.4272e-05,4.58613e-05,4.56977e-05,-5.85281e-06,2.30624e-05
749,-7.54044e-06,1.39236e-05,3.81168e-05,4.4524e-05,-6.54702e-06,1.62368e-05
750,-2.63574e-05,1.13049e-05,3.0925e-05,4.93789e-05,-1.17409e-05,1.01558e-05
751,-2.81822e-05,7.78159e-06,3.07488e-05,5.63417e-05,-1.77512e-05,1.06375e-05
752,-1.11018e-05,6.63134e-06,3.75234e-05,5.61654e-05,-2.20454e-05,1.85809e-05
753,2.13349e-06,6.55088e-06,4.28486e-05,5.06053e-05,-2.16119e-05,2.20925e-05
754,-3.05832e-07,5.8109e-06,4.28569e-05,4.52114e-05,-1.77921e-05,1.47632e-05
755,-1.36939e-05,6.07081e-06,3.92904e-05,4.32386e-05,-1.60088e-05,7.73001e-06
756,-3.25478e-05,1.08422e-05,3.1282e-05,4.75253e-05,-1.62709e-05,4.28737e-06
757,-3.47479e-05,1.57134e-05,2.89531e-05,5.42471e-05,-1.31166e-05,6.05579e-06
758,-1.3774e-05,1.67589e-05,3.52681e-05,5.63751e-05,-1.07154e-05,1.57935e-05
759,1.44413e-06,1.34827e-05,3.54051e-05,5.29707e-05,-1.54727e-05,2.18843e-05
760,6.5326e-06,8.94811e-06,3.23631e-05,4.9846e-05,-2.05317e-05,2.34855e-05
761,1.21208e-05,8.02277e-06,3.49088e-05,5.24146e-05,-2.00535e-05,2.57402e-05
762,1.24217e-05,1.07717e-05,3.62685e-05,5.33658e-05,-1.74357e-05,2.55022e-05
763,6.75334e-06,1.32713e-05,3.50302e-05,4.66917e-05,-1.55867e-05,2.57315e-05
764,-1.09633e-05,1.41763e-05,3.09148e-05,4.03214e-05,-1.53292e-05,2.60796e-05
765,-2.79959e-05,1.31048e-05,2.61212e-05,4.27853e-05,-1.35933e-05,2.02646e-05
766,-2.12605e-05,1.02872e-05,2.87743e-05,4.94561e-05,-8.83709e-06,1.26566e-05
767,1.87463e-06,9.02728e-06,3.76053e-05,5.50696e-05,-5.75209e-06,1.1229e-05
768,1.62781e-05,1.25027e-05,4.48853e-05,5.76013e-05,-5.76115e-06,1.37825e-05
769,1.61144e-05,1.82401e-05,4.60675e-05,5.65531e-05,-6.77388e-06,1.53445e-05
770,4.47665e-06,2.04641e-05,4.03086e-05,5.24887e-05,-8.35234e-06,1.4347e-05
771,-8.82201e-06,1.79837e-05,3.30069e-05,5.11108e-05,-1.04271e-05,1.24473e-05
772,-7.03654e-06,1.60152e-05,3.30272e-05,5.34414e-05,-1.25603e-05,1.07743e-05
773,1.19577e-05,1.77121e-05,3.97308e-05,5.37695e-05,-1.46632e-05,7.41209e-06
774,2.84052e-05,2.12792e-05,4.29297e-05,5.06905e-05,-1.69122e-05,1.01192e-06
775,2.7591e-05,2.49951e-05,3.99525e-05,4.63511e-05,-1.80496e-05,-6.0646e-06
776,1.24015e-05,2.66491e-05,3.31745e-05,4.51791e-05,-1.69385e-05,-5.94603e-06
777,-7.42395e-06,2.31531e-05,2.542e-05,4.85473e-05,-1.4474e-05,6.58561e-06
778,-1.2815e-05,1.71764e-05,2.49465e-05,5.20926e-05,-1.12678e-05,1.84862e-05
779,1.29572e-06,1.44036e-05,3.40817e-05,5.03957e-05,-8.31582e-06,1.51283e-05
780,1.67615e-05,1.29555e-05,4.25059e-05,4.7193e-05,-8.05378e-06,5.54509e-06
781,1.79182e-05,1.15366e-05,4.4306e-05,4.40357e-05,-1.19821e-05,3.87858e-06
782,1.95882e-07,1.39557e-05,4.04775e-05,4.11378e-05,-1.58822e-05,7.54403e-06
783,-3.0099e-05,1.4812e-05,3.12767e-05,4.2548e-05,-1.47493e-05,8.60271e-06
784,-3.59759e-05,9.67474e-06,2.94464e-05,4.87529e-05,-8.56429e-06,8.33527e-06
785,-6.41735e-06,8.78264e-06,3.93881e-05,5.55906e-05,2.15283e-06,9.68885e-06
786,1.44045e-05,1.08967e-05,4.5215e-05,5.68291e-05,7.15179e-06,1.14945e-05
787,1.26699e-05,9.97143e-06,4.37704e-05,5.45358e-05,2.53305e-06,1.48065e-05
788,9.88847e-06,6.3063e-06,4.24694e-05,5.55358e-05,-3.10654e-06,2.17807e-05
789,8.64767e-06,4.19057e-06,4.05836e-05,5.66284e-05,-6.94938e-06,2.67018e-05
790,6.43462e-06,6.7337e-06,3.9654e-05,5.50703e-05,-8.25681e-06,2.84123e-05
791,-9.82427e-06,1.13575e-05,3.32381e-05,5.32455e-05,-9.33178e-06,2.61568e-05
792,-3.21861e-05,1.20352e-05,2.45937e-05,5.52603e-05,-1.0617e-05,1.92202e-05
793,-3.36604e-05,6.15246e-06,2.66066e-05,5.65756e-05,-1.13216e-05,1.74614e-05
794,-1.37209e-05,2.28119e-06,3.56546e-05,5.50608e-05,-1.10052e-05,2.24786e-05
795,3.67519e-06,3.1312e-06,4.0717e-05,5.0566e-05,-9.63975e-06,2.35065e-05
796,5.60038e-06,5.96157e-06,3.90534e-05,4.42245e-05,-7.06178e-06,1.79043e-05
797,-9.37564e-06,6.73264e-06,3.22262e-05,4.14352e-05,-2.85482e-06,1.15633e-05
798,-2.71588e-05,4.16996e-06,2.42406e-05,4.33475e-05,3.5733e-06,8.00264e-06
799,-2.50597e-05,2.00391e-06,2.41983e-05,4.49684e-05,1.01896e-05,1.00674e-05
800,-4.98643e-06,1.36564e-06,3.16459e-05,4.41778e-05,1.07228e-05,1.78605e-05
801,1.02979e-05,2.75505e-06,3.82589e-05,4.27842e-05,1.57022e-06,2.6893e-05
802,9.66354e-06,7.57092e-06,4.18597e-05,4.01391e-05,-9.86285e-06,3.11288e-05
803,-2.38588e-06,1.19759e-05,4.04596e-05,3.95939e-05,-1.47463e-05,2.78811e-05
804,-1.9066e-05,9.61371e-06,3.40223e-05,4.41571e-05,-1.35246e-05,1.98761e-05
805,-2.12289e-05,3.47253e-06,3.32501e-05,4.97109e-05,-1.0966e-05,1.1782e-05
806,-3.89508e-06,8.66398e-07,4.10532e-05,5.09699e-05,-7.06465e-06,4.6203e-06
807,1.01703e-05,3.64681e-06,4.82583e-05,5.11024e-05,-1.82622e-06,-2.43888e-06
808,7.74154e-06,8.26519e-06,4.7553e-05,4.93944e-05,8.54483e-07,-6.63538e-06
809,-5.81536e-06,1.0683e-05,3.70822e-05,4.72315e-05,6.69622e-07,-2.22846e-06
810,-2.96457e-05,6.36621e-06,2.36832e-05,4.87898e-05,-1.05862e-06,9.80161e-06
811,-3.5299e-05,2.05978e-06,2.34544e-05,5.07406e-05,-2.30353e-06,2.2571e-05
812,-9.67899e-06,5.71595e-06,3.55745e-05,5.01356e-05,-7.08113e-06,2.67336e-05
813,8.12899e-06,1.27776e-05,4.10901e-05,4.65327e-05,-1.51197e-05,1.52372e-05
814,7.24503e-06,1.87492e-05,4.07263e-05,4.1239e-05,-1.67633e-05,6.98121e-06
815,4.51076e-06,2.05301e-05,4.40856e-05,3.92249e-05,-1.30226e-05,1.3673e-05
816,3.3833e-06,1.84598e-05,4.95455e-05,4.06626e-05,-1.24468e-05,1.81643e-05
817,2.63447e-06,1.74248e-05,5.28226e-05,4.12777e-05,-1.50841e-05,1.48214e-05
818,-7.93302e-06,1.94605e-05,4.73815e-05,3.98686e-05,-1.68824e-05,7.51772e-06
819,-2.39067e-05,1.84207e-05,4.00131e-05,4.14292e-05,-1.6547e-05,1.79253e-06
820,-2.16843e-05,1.46143e-05,4.10371e-05,4.69964e-05,-1.3007e-05,3.95899e-07
821,-1.12423e-06,1.30876e-05,4.69964e-05,5.25529e-05,-8.84344e-06,6.20886e-06
822,1.18354e-05,1.3502e-05,4.66574e-05,5.31284e-05,-8.03009e-06,1.63864e-05
823,9.66242e-06,1.44047e-05,3.9577e-05,4.85437e-05,-9.97441e-06,1.93764e-05
824,-4.67538e-06,1.25341e-05,2.96795e-05,4.50727e-05,-1.52173e-05,8.87699e-06
825,-2.00277e-05,8.14799e-06,2.28137e-05,4.88078e-05,-2.0386e-05,-5.49222e-06
826,-2.1462e-05,5.44933e-06,2.52434e-05,5.63571e-05,-2.22409e-05,-7.61012e-06
827,-9.22534e-06,3.80775e-06,3.11661e-05,6.02701e-05,-2.13241e-05,2.04682e-06
828,4.10585e-07,3.48441e-06,3.071e-05,5.71093e-05,-1.88655e-05,1.0169e-05
829,-2.16325e-06,6.5559e-06,2.52748e-05,5.07604e-05,-1.55469e-05,7.65996e-06
830,-1.5219e-05,1.11211e-05,1.94164e-05,4.93931e-05,-1.38238e-05,1.10716e-06
831,-2.99259e-05,1.18641e-05,1.56285e-05,5.57325e-05,-1.43047e-05,1.22999e-06
832,-2.88548e-05,8.99405e-06,2.15517e-05,6.22303e-05,-1.36054e-05,7.50454e-06
833,-1.24661e-05,7.66465e-06,3.25914e-05,6.08598e-05,-1.22062e-05,1.15752e-05
834,1.22565e-08,9.07339e-06,3.85875e-05,5.73612e-05,-1.26908e-05,1.17198e-05
835,-9.41501e-07,1.10895e-05,3.93424e-05,5.67782e-05,-1.16936e-05,1.11454e-05
836,-1.03006e-05,1.27763e-05,3.45184e-05,5.77385e-05,-4.39352e-06,1.03392e-05
837,-2.87123e-05,1.27289e-05,2.42851e-05,6.03094e-05,1.69365e-06,4.01328e-06
838,-3.35918e-05,1.13436e-05,2.34239e-05,6.3958e-05,1.77313e-06,-1.21139e-07
839,-1.31726e-05,1.17666e-05,3.30298e-05,6.39147e-05,-2.91676e-06,6.18972e-06
840,2.65314e-06,1.34904e-05,3.75854e-05,6.2001e-05,-1.02069e-05,1.04665e-05
841,4.40512e-06,1.40816e-05,3.90735e-05,6.38747e-05,-1.40506e-05,1.06258e-05
842,2.89022e-06,1.09231e-05,4.15027e-05,6.61532e-05,-1.44947e-05,1.40166e-05
843,1.3679e-06,9.98935e-06,3.97596e-05,6.24286e-05,-1.78505e-05,1.93489e-05
844,6.52357e-07,1.36275e-05,3.68551e-05,5.4014e-05,-1.79594e-05,2.1337e-05
845,-1.14652e-05,1.71216e-05,3.16455e-05,4.88607e-05,-1.0269e-05,1.41341e-05
846,-2.78323e-05,1.80808e-05,2.66147e-05,5.29165e-05,-4.3138e-06,2.54085e-06
847,-2.46774e-05,1.68349e-05,2.88316e-05,5.99125e-05,-3.30817e-06,-1.97642e-06
848,-5.97461e-06,1.43986e-05,3.44692e-05,6.24877e-05,-3.81489e-06,3.51148e-06
849,7.37956e-06,1.50441e-05,3.78466e-05,5.73816e-05,-4.10813e-06,1.2019e-05
850,8.11487e-06,2.08924e-05,3.91837e-05,4.96651e-05,-4.67752e-06,1.90556e-05
851,-3.78002e-06,2.45553e-05,3.52441e-05,4.64627e-05,-3.89987e-06,2.39751e-05
852,-1.74309e-05,2.06786e-05,2.84815e-05,5.00387e-05,-2.04961e-06,2.72682e-05
853,-1.52016e-05,1.28575e-05,3.04684e-05,5.71341e-05,-1.79821e-06,2.67157e-05
854,2.86425e-06,6.37541e-06,4.073e-05,6.15477e-05,-4.52145e-06,1.91504e-05
855,1.55347e-05,4.95829e-06,4.69233e-05,6.15972e-05,-6.79497e-06,9.30022e-06
856,1.02754e-05,8.85974e-06,4.47696e-05,5.93103e-05,-5.20066e-06,7.77439e-06
857,-7.26425e-06,1.2985e-05,3.83907e-05,5.72373e-05,-2.22522e-06,1.39945e-05
858,-2.38479e-05,1.1484e-05,3.05971e-05,5.71715e-05,-1.66566e-06,1.70889e-05
859,-2.24711e-05,6.90831e-06,2.96586e-05,5.87979e-05,-3.81763e-06,1.66068e-05
860,-3.70364e-06,5.87375e-06,3.79243e-05,5.87966e-05,-7.40434e-06,1.78822e-05
861,1.20049e-05,9.5725e-06,4.62152e-05,5.7199e-05,-1.15772e-05,2.01868e-05
862,1.3824e-05,1.61091e-05,4.8534e-05,5.27243e-05,-1.12089e-05,2.44366e-05
863,3.44228e-06,1.98486e-05,4.43236e-05,4.68156e-05,-6.28488e-06,2.81652e-05
864,-1.81552e-05,1.82728e-05,3.66668e-05,4.63612e-05,-2.12938e-06,2.62415e-05
865,-2.39952e-05,1.606e-05,3.52475e-05,5.20515e-05,-3.41512e-07,2.51236e-05
866,-5.85501e-06,1.78589e-05,4.0722e-05,5.51461e-05,-8.74073e-07,2.76205e-05
867,5.14089e-06,1.77083e-05,4.13288e-05,5.32327e-05,-6.77425e-06,2.53867e-05
868,9.23586e-06,1.47996e-05,4.02846e-05,5.03206e-05,-1.20024e-05,2.01356e-05
869,1.54708e-05,1.09267e-05,4.45947e-05,4.89153e-05,-1.11978e-05,2.0678e-05
870,1.41908e-05,7.79179e-06,4.69563e-05,4.5747e-05,-8.85735e-06,2.22422e-05
871,5.57597e-06,7.90191e-06,4.50648e-05,4.15609e-05,-6.65934e-06,2.39299e-05
872,-1.25603e-05,9.44389e-06,3.80822e-05,4.17736e-05,-4.30228e-06,2.20957e-05
873,-2.8353e-05,1.22334e-05,3.17011e-05,4.6221e-05,-1.68779e-06,1.49695e-05
874,-1.91864e-05,1.51502e-05,3.50667e-05,4.79974e-05,-1.5178e-06,9.58371e-06
875,3.20955e-06,1.86504e-05,4.20223e-05,4.52521e-05,-3.55314e-06,9.59768e-06
876,1.17507e-05,2.19051e-05,4.20887e-05,4.44265e-05,-6.63818e-06,1.21997e-05
877,5.42122e-06,2.54913e-05,3.73615e-05,4.59105e-05,-9.00823e-06,1.61226e-05
878,-9.60899e-06,2.61823e-05,3.10986e-05,4.90801e-05,-1.04123e-05,1.70928e-05
879,-2.43414e-05,2.06874e-05,2.85148e-05,5.2956e-05,-1.02882e-05,1.4571e-05
880,-2.42359e-05,1.43976e-05,3.48151e-05,5.61992e-05,-7.95611e-06,1.63146e-05
881,-9.51586e-06,1.35877e-05,4.40634e-05,5.70402e-05,-6.74671e-06,2.1443e-05
882,1.23888e-06,1.88976e-05,4.75758e-05,5.52344e-05,-9.74309e-06,1.97401e-05
883,-7.72219e-08,2.42693e-05,4.53905e-05,5.17395e-05,-1.28552e-05,9.44782e-06
884,-1.04171e-05,2.35056e-05,3.91569e-05,4.98544e-05,-1.09002e-05,1.1762e-06
885,-2.40371e-05,1.75403e-05,3.08933e-05,5.18445e-05,-8.02521e-06,-3.41358e-07
886,-2.50421e-05,1.44353e-05,3.25609e-05,5.36371e-05,-9.51633e-06,3.78195e-06
887,-8.83904e-06,1.6355e-05,4.60311e-05,5.17289e-05,-1.52928e-05,9.81117e-06
888,6.94856e-06,1.88237e-05,5.54441e-05,4.86304e-05,-2.11576e-05,1.62918e-05
889,8.65682e-06,1.88778e-05,5.16056e-05,4.74563e-05,-2.07257e-05,1.95782e-05
890,-5.002e-06,1.61427e-05,4.31442e-05,4.83317e-05,-1.7579e-05,1.62193e-05
891,-3.00382e-05,1.18258e-05,3.51147e-05,5.2441e-05,-1.76223e-05,8.17022e-06
892,-3.52587e-05,9.24988e-06,3.20725e-05,5.57716e-05,-1.85908e-05,7.71005e-06
893,-1.01404e-05,1.07584e-05,3.63424e-05,5.4163e-05,-1.68935e-05,1.45926e-05
894,5.85938e-06,1.41509e-05,3.80364e-05,5.12544e-05,-1.18533e-05,1.31925e-05
895,4.49732e-06,1.54595e-05,3.72858e-05,5.31191e-05,-1.02299e-05,1.05166e-05
896,9.373e-07,1.48394e-05,3.87563e-05,5.72505e-05,-1.22632e-05,1.72684e-05
897,-2.67446e-06,1.37387e-05,4.22798e-05,5.60703e-05,-1.53019e-05,2.53372e-05
898,-4.05171e-06,1.36612e-05,4.32785e-05,4.83913e-05,-1.59714e-05,3.00794e-05
899,-1.29417e-05,1.21828e-05,3.50239e-05,4.24294e-05,-1.313e-05,2.845e-05
900,-2.47707e-05,7.65096e-06,2.57866e-05,4.33025e-05,-7.62873e-06,2.18147e-05
901,-1.87942e-05,5.84315e-06,2.61525e-05,4.53091e-05,-2.3619e-06,1.61848e-05
902,8.15445e-07,4.7571e-06,3.53586e-05,4.53439e-05,-2.09441e-06,1.63176e-05
903,9.88809e-06,4.45405e-06,4.24286e-05,4.47845e-05,-6.09907e-06,2.14226e-05
904,4.63589e-06,7.81469e-06,4.17542e-05,4.38173e-05,-6.51625e-06,2.61795e-05
905,-1.00477e-05,1.16287e-05,3.3298e-05,4.46357e-05,-2.06315e-06,2.29747e-05
906,-2.45775e-05,1.00133e-05,2.17811e-05,4.97994e-05,-2.07503e-06,1.32374e-05
907,-2.32175e-05,3.24903e-06,1.87172e-05,5.49201e-05,-8.40975e-06,1.04669e-05
908,-6.33838e-06,-4.83495e-06,2.63952e-05,5.58571e-05,-1.48506e-05,1.77214e-05
909,6.82221e-06,-8.85482e-06,3.40045e-05,5.30205e-05,-1.78902e-05,2.30004e-05
910,5.45538e-06,-6.09962e-06,3.38836e-05,4.79236e-05,-1.7995e-05,2.06793e-05
911,-9.36947e-06,-1.43765e-06,2.72914e-05,4.35509e-05,-1.45554e-05,1.65425e-05
912,-2.87979e-05,-7.85797e-07,2.01732e-05,4.39425e-05,-9.11669e-06,1.30675e-05
913,-2.99974e-05,-2.92877e-06,2.1846e-05,4.82036e-05,-6.70708e-06,1.279e-05
914,-1.01786e-05,-1.93051e-06,3.3395e-05,5.03089e-05,-9.91086e-06,1.43893e-05
915,5.02475e-06,2.65866e-06,4.26574e-05,4.78587e-05,-1.37711e-05,1.22758e-05
916,3.58581e-06,8.30393e-06,4.30448e-05,4.04994e-05,-1.4475e-05,6.82473e-06
917,-1.06602e-05,1.03505e-05,3.79105e-05,3.25536e-05,-1.28022e-05,2.84531e-06
918,-3.52612e-05,6.35291e-06,2.87874e-05,3.4015e-05,-1.14692e-05,1.20581e-06
919,-3.99203e-05,9.68203e-07,2.61197e-05,4.26924e-05,-9.2327e-06,6.45882e-06
920,-1.40042e-05,1.47153e-07,3.32357e-05,4.70176e-05,-5.05643e-06,1.64094e-05
921,2.05071e-06,5.16111e-06,3.46058e-05,4.51164e-05,-2.20232e-06,2.06961e-05
922,5.45312e-06,8.18799e-06,3.0471e-05,4.38266e-05,-3.35166e-06,2.11154e-05
923,7.75494e-06,6.70527e-06,3.07823e-05,4.68469e-05,-6.56607e-06,2.63234e-05
924,4.47022e-06,1.18299e-05,3.26596e-05,4.83202e-05,-8.55571e-06,3.52566e-05
925,2.61375e-08,1.83794e-05,3.66447e-05,4.28858e-05,-7.09086e-06,3.80006e-05
926,-1.29587e-05,1.57243e-05,3.69684e-05,3.75856e-05,-7.12718e-06,2.54307e-05
927,-2.66365e-05,6.1211e-06,3.4498e-05,4.00842e-05,-8.01191e-06,-9.91128e-07
928,-2.04019e-05,4.95657e-07,3.9654e-05,4.74054e-05,-5.27987e-06,-2.14648e-05
929,-9.6802e-07,2.79208e-06,4.97896e-05,5.2161e-05,-4.07514e-06,-2.00223e-05
930,7.93577e-06,9.73976e-06,5.58166e-05,4.86446e-05,-7.37257e-06,-5.35008e-06
931,6.38584e-06,1.73958e-05,5.3055e-05,3.98359e-05,-1.03146e-05,7.92029e-06
932,-5.43945e-06,1.87695e-05,4.2373e-05,3.38676e-05,-1.00414e-05,1.29306e-05
933,-2.17244e-05,1.39612e-05,3.38357e-05,3.52697e-05,-8.81988e-06,1.24624e-05
934,-2.4172e-05,1.12132e-05,3.72209e-05,4.17767e-05,-7.49935e-06,1.47553e-05
935,-8.75305e-06,1.50808e-05,4.75733e-05,4.74009e-05,-5.34425e-06,2.32604e-05
936,5.87582e-06,2.09004e-05,5.37394e-05,4.83108e-05,-2.35533e-06,3.08071e-05
937,8.6541e-06,2.31899e-05,5.23524e-05,4.51696e-05,-1.59364e-06,3.24061e-05
938,-2.2265e-07,2.12335e-05,4.42568e-05,4.27504e-05,-3.54702e-06,2.92975e-05
939,-1.76906e-05,1.65554e-05,3.18625e-05,4.69436e-05,-5.2871e-06,2.28311e-05
940,-2.20793e-05,1.10493e-05,2.83565e-05,5.38997e-05,-7.27142e-06,1.62256e-05
941,-3.7708e-06,8.29658e-06,3.76762e-05,5.47799e-05,-1.1669e-05,1.12498e-05
942,1.56073e-05,1.0163e-05,4.5631e-05,5.06462e-05,-1.51554e-05,3.51708e-06
943,1.83477e-05,1.51039e-05,4.5966e-05,4.61421e-05,-1.61301e-05,4.06745e-08
944,5.73049e-06,1.81994e-05,4.13913e-05,4.55486e-05,-1.69973e-05,1.10522e-05
945,-1.99936e-05,1.89357e-05,3.19892e-05,5.05725e-05,-1.84471e-05,2.40623e-05
946,-2.93382e-05,1.93129e-05,2.93994e-05,5.52415e-05,-1.83934e-05,3.50532e-05
947,-4.72697e-06,1.83593e-05,3.77988e-05,5.47863e-05,-1.75378e-05,3.73517e-05
948,1.20691e-05,1.43532e-05,4.43874e-05,5.21116e-05,-1.5164e-05,2.29145e-05
949,9.66002e-06,1.05447e-05,4.65805e-05,5.07531e-05,-1.12919e-05,9.66889e-06
950,1.0573e-05,1.01303e-05,4.4904e-05,5.26149e-05,-8.48196e-06,1.16009e-05
951,1.37011e-05,9.5359e-06,4.14632e-05,5.52662e-05,-6.74789e-06,2.06003e-05
952,1.28632e-05,7.91489e-06,4.10134e-05,5.58856e-05,-6.24478e-06,2.52183e-05
953,-3.3901e-06,7.56561e-06,3.84215e-05,5.4929e-05,-7.76414e-06,2.3408e-05
954,-2.17052e-05,9.04769e-06,3.05065e-05,5.36078e-05,-9.35765e-06,1.69671e-05
955,-1.82108e-05,9.86414e-06,2.54289e-05,5.23409e-05,-8.73041e-06,9.6141e-06
956,1.80049e-06,1.03032e-05,2.97508e-05,5.11947e-05,-6.53868e-06,5.82469e-06
957,1.3005e-05,1.34863e-05,3.61404e-05,5.09916e-05,-5.54971e-06,6.97469e-06
958,1.03276e-05,1.53749e-05,3.85678e-05,5.07389e-05,-6.9602e-06,9.09073e-06
959,-3.15555e-06,1.47879e-05,3.52498e-05,5.14018e-05,-7.71109e-06,8.52797e-06
960,-1.70824e-05,1.22506e-05,3.01122e-05,5.43665e-05,-5.34727e-06,5.227e-06
961,-1.41495e-05,8.92924e-06,3.20109e-05,5.73964e-05,-4.65799e-06,6.89269e-06
962,2.29229e-06,6.38196e-06,4.15208e-05,5.8663e-05,-9.86165e-06,1.52426e-05
963,1.28308e-05,6.00449e-06,4.79325e-05,5.67207e-05,-1.53104e-05,1.94884e-05
964,9.49208e-06,9.58195e-06,4.5707e-05,5.11898e-05,-1.33032e-05,1.55153e-05
965,-3.41336e-06,1.47256e-05,3.84851e-05,4.54671e-05,-5.87438e-06,9.69149e-06
966,-1.96892e-05,1.58167e-05,3.09982e-05,4.47099e-05,8.14063e-07,5.52325e-06
967,-2.28511e-05,1.13683e-05,2.99068e-05,4.89948e-05,4.81763e-06,3.00466e-06
968,-9.51264e-06,5.18564e-06,3.39124e-05,5.53133e-05,4.80405e-06,6.8147e-06
969,3.81848e-06,2.8604e-06,3.71139e-05,5.98948e-05,-1.27985e-07,1.36571e-05
970,3.00746e-06,7.05367e-06,3.99179e-05,5.80436e-05,-7.61355e-06,1.54537e-05
971,-1.10182e-05,1.1627e-05,3.98919e-05,5.52289e-05,-1.20147e-05,1.1449e-05
972,-3.67454e-05,1.12665e-05,3.28896e-05,5.85741e-05,-1.05253e-05,5.81394e-06
973,-4.60567e-05,9.37755e-06,2.93842e-05,6.3749e-05,-8.90915e-06,5.61529e-06
974,-2.33001e-05,1.19463e-05,3.48615e-05,6.516e-05,-9.48794e-06,1.4909e-05
975,-7.08314e-06,1.46222e-05,3.77202e-05,6.26717e-05,-9.08472e-06,2.04864e-05
976,-5.68551e-06,1.26206e-05,3.88885e-05,5.94847e-05,-9.92664e-06,1.77791e-05
977,-5.93868e-07,6.86952e-06,4.48753e-05,5.72312e-05,-1.15722e-05,1.57186e-05
978,5.31892e-06,6.68947e-06,4.84859e-05,5.44896e-05,-1.28168e-05,1.49134e-05
979,5.25969e-06,1.559e-05,4.74475e-05,4.66092e-05,-1.05454e-05,1.69964e-05
980,-1.09661e-05,2.22398e-05,4.02505e-05,4.05831e-05,-7.47211e-06,1.74862e-05
981,-2.76412e-05,1.85065e-05,3.34954e-05,4.57145e-05,-6.90084e-06,1.45519e-05
982,-2.14587e-05,1.1163e-05,3.61082e-05,5.36215e-05,-6.95298e-06,1.5354e-05
983,-1.01021e-06,1.04223e-05,4.42055e-05,5.7725e-05,-9.01759e-06,2.24866e-05
984,8.02238e-06,1.66135e-05,4.63265e-05,5.72752e-05,-1.0835e-05,2.83054e-05
985,-2.50216e-07,2.33995e-05,4.10775e-05,5.50342e-05,-1.05018e-05,2.6683e-05
986,-1.97733e-05,2.37448e-05,3.25287e-05,5.32967e-05,-1.07356e-05,2.1304e-05
987,-3.4391e-05,1.84058e-05,2.50604e-05,5.2739e-05,-1.13792e-05,1.77099e-05
988,-2.71239e-05,1.37842e-05,2.61012e-05,5.29346e-05,-1.03208e-05,1.93802e-05
989,-4.27234e-06,1.27252e-05,3.2779e-05,5.22695e-05,-8.34144e-06,2.27318e-05
990,1.20096e-05,1.50511e-05,3.64317e-05,5.01784e-05,-9.13769e-06,1.9709e-05
991,1.0046e-05,1.95115e-05,3.35115e-05,4.7408e-05,-1.2134e-05,8.57772e-06
992,-5.47697e-06,2.04447e-05,2.71307e-05,4.60243e-05,-1.35102e-05,-1.53574e-06
993,-2.26844e-05,1.64301e-05,2.09205e-05,4.89852e-05,-1.17876e-05,-4.84788e-06
994,-1.99306e-05,1.44108e-05,2.42704e-05,5.50026e-05,-7.95002e-06,-2.34498e-06
995,4.0037e-06,1.55257e-05,3.658e-05,5.96739e-05,-7.39768e-06,5.06537e-06
996,2.08766e-05,1.81436e-05,4.59003e-05,6.06542e-05,-1.10139e-05,1.13094e-05
997,1.55221e-05,2.19716e-05,4.80029e-05,5.58238e-05,-1.34658e-05,1.11145e-05
998,-4.46842e-06,2.56754e-05,4.22924e-05,5.02094e-05,-1.30027e-05,5.17908e-06
999,-2.98823e-05,2.40128e-05,2.99021e-05,5.14459e-05,-9.67341e-06,-2.12046e-06
1000,-3.27123e-05,1.61704e-05,2.6215e-05,5.74917e-05,-3.26294e-06,-2.45679e-06
1001,-1.0187e-05,1.1959e-05,3.52045e-05,5.85152e-05,2.33663e-06,3.31065e-06
1002,1.54375e-07,1.13436e-05,3.83848e-05,5.54594e-05,3.91322e-06,7.86829e-06
1003,-2.59757e-06,8.11309e-06,3.66845e-05,5.4572e-05,1.35794e-06,9.19688e-06
1004,4.70216e-07,4.77787e-06,3.65641e-05,5.67771e-05,-2.93673e-07,1.03615e-05
1005,3.79189e-06,6.56629e-06,3.83675e-05,5.64349e-05,-2.51575e-06,1.19616e-05
1006,1.0746e-06,1.1155e-05,4.37753e-05,4.85897e-05,-7.88457e-06,1.097e-05
1007,-1.37778e-05,1.18443e-05,4.30904e-05,4.23778e-05,-1.01361e-05,7.99301e-06
1008,-2.65054e-05,3.66253e-06,3.43139e-05,4.57839e-05,-6.69297e-06,7.15403e-06
1009,-1.57252e-05,-2.81902e-06,2.92637e-05,5.38909e-05,-2.23407e-06,1.13376e-05
1010,7.72478e-06,-1.27785e-06,3.36055e-05,5.77533e-05,-4.50685e-06,1.4827e-05
1011,1.92213e-05,2.45364e-06,3.84623e-05,5.41999e-05,-1.20909e-05,1.7856e-05
1012,1.52813e-05,5.69688e-06,3.96172e-05,4.87227e-05,-1.64548e-05,2.20936e-05
1013,-3.99197e-07,6.67001e-06,3.7404e-05,4.75924e-05,-1.44568e-05,1.99921e-05
1014,-1.88284e-05,4.25073e-06,3.51997e-05,5.04938e-05,-8.83758e-06,1.18593e-05
1015,-2.09359e-05,3.96149e-06,3.73139e-05,5.32668e-05,-4.9199e-06,7.80367e-06
1016,-4.31704e-06,8.58892e-06,4.20644e-05,5.24336e-05,-5.21742e-06,1.1031e-05
1017,1.15167e-05,1.45484e-05,4.58493e-05,4.87751e-05,-7.54655e-06,1.26978e-05
1018,1.12777e-05,1.83228e-05,4.6557e-05,4.57494e-05,-9.66354e-06,9.75707e-06
1019,-4.63584e-06,1.75138e-05,4.19817e-05,4.42804e-05,-1.31406e-05,7.40566e-06
1020,-2.37411e-05,1.49876e-05,3.16572e-05,4.49956e-05,-1.74879e-05,6.8326e-06
1021,-2.50571e-05,1.3759e-05,2.72185e-05,4.68271e-05,-1.93971e-05,8.35389e-06
1022,-8.66261e-06,1.23221e-05,3.62931e-05,4.91716e-05,-2.05583e-05,1.43838e-05
1023,2.94701e-06,9.77254e-06,4.68041e-05,5.3853e-05,-2.27585e-05,1.81956e-05
1024,-3.08433e-06,8.73264e-06,4.65849e-05,5.608e-05,-2.14006e-05,1.34419e-05
1025,-1.81347e-05,7.00466e-06,3.91215e-05,5.24407e-05,-1.58366e-05,8.11603e-06
1026,-3.50759e-05,4.4656e-06,3.21695e-05,5.15446e-05,-1.10749e-05,9.22628e-06
1027,-3.47191e-05,3.88081e-06,3.41595e-05,5.66556e-05,-8.47025e-06,1.95946e-05
1028,-8.72891e-06,6.14971e-06,4.21994e-05,6.1647e-05,-7.09852e-06,3.18149e-05
1029,7.49495e-06,7.47811e-06,4.38046e-05,5.97873e-05,-1.05169e-05,2.66772e-05
1030,7.03439e-06,6.66301e-06,3.99979e-05,5.69789e-05,-1.63207e-05,9.59437e-06
1031,5.51731e-06,5.24968e-06,3.82921e-05,5.90707e-05,-1.85317e-05,1.04451e-06
1032,4.33317e-06,7.6082e-06,3.81303e-05,5.8041e-05,-1.60946e-05,5.59451e-06
1033,3.16612e-06,1.52726e-05,3.96157e-05,5.23726e-05,-1.13408e-05,1.44855e-05
1034,-1.19972e-05,2.10849e-05,3.69912e-05,4.63036e-05,-1.0606e-05,1.57929e-05
1035,-3.11676e-05,1.93228e-05,3.17788e-05,4.6354e-05,-1.30365e-05,9.56946e-06
1036,-2.77704e-05,1.5267e-05,3.42328e-05,5.10282e-05,-1.35656e-05,5.85317e-06
1037,-7.18551e-06,1.35175e-05,4.1353e-05,5.72502e-05,-1.06285e-05,1.3212e-05
1038,7.29043e-06,1.38574e-05,4.48208e-05,5.88168e-05,-7.97806e-06,2.53085e-05
1039,1.00174e-05,1.67931e-05,4.46938e-05,5.1475e-05,-7.45677e-06,3.16567e-05
1040,-3.46892e-06,1.97013e-05,3.99314e-05,4.24435e-05,-9.4693e-06,2.68574e-05
1041,-2.24984e-05,1.87226e-05,3.12047e-05,3.86959e-05,-1.1777e-05,1.45401e-05
1042,-2.15169e-05,1.389e-05,2.92826e-05,3.96263e-05,-1.28467e-05,6.60713e-06
1043,1.29493e-07,1.09513e-05,3.75776e-05,4.0137e-05,-1.32524e-05,1.02424e-05
1044,1.5146e-05,1.42558e-05,4.47051e-05,3.91826e-05,-1.39595e-05,2.02179e-05
1045,9.50398e-06,2.05195e-05,4.3223e-05,3.77864e-05,-1.36704e-05,2.66762e-05
1046,-7.86652e-06,2.09576e-05,3.59902e-05,3.93071e-05,-1.31405e-05,2.38981e-05
1047,-2.23233e-05,1.32116e-05,2.71311e-05,4.65273e-05,-1.2888e-05,1.34832e-05
1048,-1.68852e-05,5.02844e-06,2.51943e-05,5.60368e-05,-9.3398e-06,5.92245e-06
1049,4.49313e-06,1.89325e-06,3.35116e-05,5.85223e-05,-3.91003e-06,8.92042e-06
1050,1.77661e-05,1.99471e-06,4.13704e-05,5.41478e-05,6.8975e-08,1.74871e-05
1051,1.13165e-05,5.04919e-06,3.90384e-05,4.91731e-05,-1.44703e-07,1.94408e-05
1052,-5.28777e-06,7.25767e-06,2.9852e-05,4.54199e-05,-4.26116e-06,1.31537e-05
1053,-2.70771e-05,4.97218e-06,2.02219e-05,4.50093e-05,-8.625e-06,5.53282e-06
1054,-3.46987e-05,3.47746e-06,2.10056e-05,4.93135e-05,-8.51951e-06,4.07973e-06
1055,-1.82521e-05,6.99865e-06,3.04404e-05,5.51236e-05,-4.29971e-06,1.09456e-05
1056,-4.62796e-06,9.25299e-06,3.39533e-05,5.88442e-05,-1.28237e-06,1.52135e-05
1057,8.70814e-07,1.10325e-05,3.41746e-05,6.02813e-05,-2.40506e-06,1.12273e-05
1058,7.14187e-06,1.71811e-05,3.74017e-05,6.14428e-05,-4.70927e-06,8.38645e-06
1059,5.03997e-06,2.2209e-05,4.18272e-05,6.13647e-05,-8.49692e-06,9.82895e-06
1060,-2.26045e-06,2.30146e-05,4.34327e-05,5.75016e-05,-8.50539e-06,1.42489e-05
1061,-1.71549e-05,1.91967e-05,3.72989e-05,5.08993e-05,-4.81541e-06,1.82383e-05
1062,-3.34635e-05,1.31398e-05,3.00615e-05,4.77864e-05,-2.84107e-06,1.72217e-05
1063,-2.85856e-05,1.20539e-05,3.22995e-05,4.85263e-05,9.18262e-07,1.38607e-05
1064,-9.63707e-06,1.32028e-05,4.1193e-05,5.00731e-05,3.66172e-06,1.21659e-05
1065,2.09301e-06,1.26912e-05,4.58606e-05,5.01307e-05,8.32307e-07,1.11271e-05
1066,3.14683e-06,1.31117e-05,4.40283e-05,4.88701e-05,-4.21902e-06,1.26432e-05
1067,-8.4137e-06,1.23868e-05,3.69928e-05,4.88124e-05,-6.01538e-06,1.53367e-05
1068,-2.48778e-05,8.56189e-06,2.74227e-05,5.0616e-05,-4.83622e-06,1.56677e-05
1069,-2.27338e-05,5.31881e-06,2.5146e-05,5.20587e-05,-4.43652e-06,1.49707e-05
1070,-1.5899e-06,5.06809e-06,3.34204e-05,5.09064e-05,-7.59407e-06,1.71078e-05
1071,1.25503e-05,7.84766e-06,4.25374e-05,4.84053e-05,-1.19912e-05,2.06639e-05
1072,9.24392e-06,1.29399e-05,4.23209e-05,4.57798e-05,-1.1636e-05,1.99387e-05
1073,-6.58079e-06,1.79952e-05,3.21814e-05,4.48488e-05,-6.54446e-06,1.62105e-05
1074,-2.59294e-05,1.80764e-05,2.03985e-05,4.7281e-05,-3.56747e-06,1.67314e-05
1075,-2.84477e-05,1.23876e-05,2.16067e-05,5.1185e-05,-4.45804e-06,2.41437e-05
1076,-9.71717e-06,7.72855e-06,3.5317e-05,5.15791e-05,-4.6985e-06,3.26179e-05
1077,7.60816e-06,8.5187e-06,4.521e-05,5.04779e-05,-4.17512e-06,3.56145e-05
1078,8.30563e-06,1.38433e-05,4.5451e-05,5.03055e-05,-5.60997e-06,3.12471e-05
1079,-4.69598e-06,1.66718e-05,3.92537e-05,4.9923e-05,-7.00857e-06,2.21618e-05
1080,-2.44081e-05,1.29883e-05,3.0832e-05,5.14727e-05,-2.66327e-06,1.1662e-05
1081,-2.43513e-05,1.1305e-05,2.99752e-05,5.49067e-05,6.42645e-06,8.85306e-06
1082,2.97691e-07,1.73737e-05,3.72304e-05,5.61633e-05,1.01334e-05,1.32235e-05
1083,9.92514e-06,1.91105e-05,4.08833e-05,5.38687e-05,3.41539e-06,1.66717e-05
1084,3.13096e-06,1.42914e-05,4.07066e-05,5.27887e-05,-4.7845e-06,1.87414e-05
1085,6.02483e-07,1.17541e-05,4.16093e-05,5.31784e-05,-5.4387e-06,1.74282e-05
1086,-1.4894e-07,1.13088e-05,4.24412e-05,4.99082e-05,-2.55461e-06,1.42473e-05
1087,-1.0073e-06,1.26358e-05,4.21668e-05,4.53909e-05,-3.6209e-06,1.03627e-05
1088,-1.26636e-05,1.31755e-05,3.84864e-05,4.29801e-05,-9.27879e-06,1.50029e-06
1089,-2.57734e-05,1.28859e-05,3.3498e-05,4.69327e-05,-1.49221e-05,-6.35032e-06
1090,-1.78443e-05,1.20092e-05,3.49056e-05,5.267e-05,-1.69555e-05,-8.44623e-07
1091,2.05202e-06,9.91525e-06,4.04452e-05,5.42231e-05,-1.56039e-05,2.22076e-05
1092,1.18716e-05,9.61033e-06,4.20707e-05,5.14181e-05,-1.40578e-05,4.57186e-05
1093,1.08216e-05,1.25646e-05,3.92185e-05,4.58936e-05,-1.34082e-05,4.82918e-05
1094,2.17006e-06,1.30612e-05,3.24495e-05,4.35046e-05,-1.30218e-05,2.91961e-05
1095,-9.16876e-06,6.31498e-06,2.57058e-05,4.95347e-05,-1.13665e-05,8.72948e-06
1096,-7.7683e-06,-3.60794e-07,2.68629e-05,5.70551e-05,-8.26387e-06,3.14218e-06
1097,7.3716e-06,-1.05248e-06,3.52008e-05,5.79222e-05,-9.08956e-06,8.14635e-06
1098,1.58807e-05,2.77243e-06,4.02957e-05,5.52977e-05,-1.41832e-05,8.85134e-06
1099,1.07534e-05,6.22395e-06,3.92415e-05,5.31891e-05,-1.59223e-05,2.17781e-06
1100,-3.69874e-07,5.83686e-06,3.60752e-05,5.27755e-05,-1.20833e-05,-3.34908e-06
1101,-1.08323e-05,-6.2839e-08,3.33028e-05,5.31912e-05,-6.83822e-06,2.01952e-06
1102,-6.79433e-06,-3.37564e-06,3.58731e-05,5.62067e-05,-2.83648e-06,2.01183e-05
1103,1.06342e-05,2.92979e-06,4.24599e-05,5.96077e-05,-1.66775e-06,3.40188e-05
1104,2.18686e-05,1.14039e-05,4.57195e-05,5.9881e-05,-3.48968e-06,2.73892e-05
1105,1.72799e-05,1.47875e-05,4.49484e-05,5.68414e-05,-8.07234e-06,1.2295e-05
1106,2.20996e-06,1.30696e-05,4.21715e-05,5.42234e-05,-1.30414e-05,7.96613e-06
1107,-1.89673e-05,7.782e-06,3.57597e-05,5.67172e-05,-1.6823e-05,8.99797e-06
1108,-2.21948e-05,4.58474e-06,3.27374e-05,6.16166e-05,-1.80052e-05,9.6774e-06
1109,4.16753e-06,6.75421e-06,3.9547e-05,6.31764e-05,-1.42345e-05,1.26746e-05
1110,1.58972e-05,1.01425e-05,4.57784e-05,5.99456e-05,-1.11142e-05,1.38193e-05
1111,7.62035e-06,1.13414e-05,4.72831e-05,5.4461e-05,-1.40514e-05,1.36538e-05
1112,3.57189e-06,1.06472e-05,4.97827e-05,5.08063e-05,-1.87621e-05,1.5832e-05
1113,2.81746e-06,1.19312e-05,5.20849e-05,4.67781e-05,-2.08465e-05,1.68939e-05
1114,5.73815e-07,1.50065e-05,4.98303e-05,4.19765e-05,-2.17598e-05,1.85649e-05
1115,-1.62692e-05,1.64999e-05,4.02169e-05,3.80355e-05,-2.15379e-05,1.96352e-05
1116,-3.53926e-05,1.38767e-05,3.06625e-05,3.94507e-05,-1.80033e-05,1.5689e-05
1117,-3.22601e-05,1.04771e-05,3.16094e-05,4.418e-05,-1.21568e-05,1.07893e-05
1118,-1.15432e-05,9.21602e-06,3.78825e-05,4.54095e-05,-8.69115e-06,1.21153e-05
1119,1.02954e-06,9.70486e-06,4.12039e-05,4.2738e-05,-8.22324e-06,1.41154e-05
1120,-1.67896e-06,1.12449e-05,3.89282e-05,3.9793e-05,-9.15174e-06,1.33509e-05
1121,-1.69575e-05,1.1659e-05,3.12893e-05,4.01067e-05,-9.41052e-06,9.50642e-06
1122,-3.12238e-05,9.79614e-06,2.34202e-05,4.33485e-05,-9.32028e-06,5.94228e-06
1123,-2.7766e-05,8.53206e-06,2.36336e-05,4.74445e-05,-8.97117e-06,5.86367e-06
1124,-9.63488e-06,9.61982e-06,3.27965e-05,4.97361e-05,-7.53625e-06,7.62575e-06
1125,3.33658e-06,1.28802e-05,4.13297e-05,4.88156e-05,-6.09729e-06,7.57548e-06
1126,2.42581e-06,1.72724e-05,4.25109e-05,4.39202e-05,-4.02377e-06,4.80225e-06
1127,-9.833e-06,1.84392e-05,3.56825e-05,3.89247e-05,-2.07553e-06,1.95848e-06
1128,-2.6977e-05,1.30639e-05,2.61928e-05,3.93721e-05,-2.92133e-06,8.95661e-07
1129,-2.78725e-05,5.47446e-06,2.4618e-05,4.51733e-05,-4.57983e-06,4.89335e-06
1130,-8.3841e-06,3.59628e-06,3.31873e-05,5.11189e-05,-3.9737e-06,1.13559e-05
1131,7.24299e-06,1.09724e-05,4.07225e-05,5.30181e-05,-5.08453e-06,1.66594e-05
1132,4.81143e-06,2.08646e-05,4.37873e-05,4.94929e-05,-9.10831e-06,1.92848e-05
1133,-7.83823e-06,2.32965e-05,4.23389e-05,4.55094e-05,-1.41857e-05,1.92173e-05
1134,-2.54719e-05,1.7335e-05,3.37724e-05,4.68699e-05,-1.67149e-05,1.32094e-05
1135,-2.55958e-05,9.71036e-06,2.99687e-05,5.2293e-05,-1.49796e-05,8.55748e-06
1136,-4.27192e-06,7.50107e-06,3.6085e-05,5.58137e-05,-1.26535e-05,1.19077e-05
1137,6.83226e-06,8.44718e-06,3.73567e-05,5.53566e-05,-1.1442e-05,1.75883e-05
1138,9.41884e-06,9.95192e-06,3.70376e-05,5.37772e-05,-1.03874e-05,1.83342e-05
1139,1.41024e-05,1.29015e-05,4.0482e-05,5.56616e-05,-7.89276e-06,1.77279e-05
1140,1.38399e-05,1.8212e-05,4.02816e-05,5.97601e-05,-6.3026e-06,1.80918e-05
1141,9.22837e-06,2.4047e-05,3.73741e-05,5.90595e-05,-5.88565e-06,1.53482e-05
1142,-8.32181e-06,2.36707e-05,3.35208e-05,5.54504e-05,-4.80559e-06,1.08557e-05
1143,-3.05647e-05,1.68754e-05,3.14444e-05,5.62072e-05,-4.52669e-06,5.71546e-06
1144,-3.36508e-05,1.24612e-05,3.535e-05,6.04208e-05,-4.79315e-06,6.78568e-06
1145,-1.92678e-05,1.35596e-05,4.1448e-05,6.24625e-05,-8.20986e-06,1.63805e-05
1146,-7.09554e-06,1.67524e-05,4.19302e-05,5.96999e-05,-1.24509e-05,2.75131e-05
1147,-3.9439e-06,1.78637e-05,3.92641e-05,5.49544e-05,-1.48794e-05,3.38241e-05
1148,-1.16258e-05,1.69273e-05,3.35371e-05,5.09367e-05,-1.63026e-05,3.0643e-05
1149,-2.2095e-05,1.43114e-05,2.70062e-05,5.10811e-05,-1.47738e-05,2.15146e-05
1150,-2.04501e-05,9.91043e-06,2.79977e-05,5.53671e-05,-1.07566e-05,1.53107e-05
1151,-7.22766e-06,6.52292e-06,3.60041e-05,5.95441e-05,-9.45448e-06,1.81276e-05
1152,1.37537e-06,6.95417e-06,4.18128e-05,5.87124e-05,-1.23253e-05,2.38693e-05
1153,-2.11589e-06,1.21141e-05,4.15533e-05,5.26569e-05,-1.26567e-05,2.36259e-05
1154,-1.67348e-05,1.78942e-05,3.64483e-05,4.59194e-05,-7.2792e-06,1.47689e-05
1155,-3.54576e-05,1.85378e-05,3.05983e-05,4.40923e-05,-2.12599e-06,-5.15598e-07
1156,-3.6816e-05,1.48714e-05,3.36699e-05,4.692e-05,-1.16841e-06,-1.49871e-05
1157,-1.69837e-05,1.24056e-05,4.37367e-05,4.73638e-05,-4.65822e-06,-1.82984e-05
1158,1.22453e-06,1.06832e-05,4.75925e-05,4.43724e-05,-1.36636e-05,-9.46109e-06
1159,3.30467e-06,7.4738e-06,4.46294e-05,3.79162e-05,-2.19815e-05,1.53666e-06
1160,-7.66715e-06,4.0976e-06,4.12555e-05,3.17371e-05,-2.41674e-05,7.28899e-06
1161,-2.87262e-05,1.00385e-06,3.57708e-05,3.27954e-05,-2.37904e-05,8.66408e-06
1162,-3.34615e-05,1.07383e-06,3.37545e-05,3.83499e-05,-1.92639e-05,1.05178e-05
1163,-8.3415e-06,6.21318e-06,3.99653e-05,4.07887e-05,-7.15794e-06,1.298e-05
1164,9.43384e-06,1.13738e-05,4.51656e-05,4.07442e-05,9.49268e-07,8.24895e-06
1165,9.09684e-06,1.29469e-05,4.6539e-05,4.50006e-05,2.81931e-06,1.52157e-06
1166,3.59924e-06,1.11788e-05,4.42431e-05,5.24575e-05,1.94073e-06,2.38609e-06
1167,-1.69518e-06,8.72361e-06,3.78077e-05,5.73492e-05,-2.39833e-07,5.72237e-06
1168,-2.24611e-06,9.54285e-06,3.40213e-05,5.53453e-05,-2.58497e-06,9.73409e-06
1169,-1.25373e-05,1.31815e-05,3.00384e-05,4.9517e-05,-4.62074e-06,8.30206e-06
1170,-2.72113e-05,1.238e-05,2.684e-05,4.97767e-05,-5.04231e-06,5.95831e-06
1171,-2.48105e-05,9.25963e-06,3.04849e-05,5.51303e-05,-7.42424e-06,1.34795e-05
1172,-6.7681e-06,9.57125e-06,3.80111e-05,5.99394e-05,-1.11411e-05,2.23899e-05
1173,4.59318e-06,1.36605e-05,4.27615e-05,5.85612e-05,-1.43579e-05,2.23861e-05
1174,2.23631e-06,2.06706e-05,4.23828e-05,5.24232e-05,-1.532e-05,1.71336e-05
1175,-1.44242e-05,2.52591e-05,3.73956e-05,4.69995e-05,-1.57655e-05,1.2682e-05
1176,-3.11926e-05,2.31209e-05,3.19235e-05,4.86093e-05,-1.38092e-05,1.20755e-05
1177,-2.77842e-05,2.05169e-05,3.34269e-05,5.30403e-05,-8.69791e-06,1.50333e-05
1178,-7.79945e-06,2.0328e-05,4.06091e-05,5.34737e-05,-5.08235e-06,1.89044e-05
1179,6.5647e-06,1.95858e-05,4.33969e-05,5.13295e-05,-6.90121e-06,1.80187e-05
1180,6.85269e-06,1.95627e-05,3.98929e-05,4.85938e-05,-1.13403e-05,1.57621e-05
1181,-2.26293e-06,2.18821e-05,3.59511e-05,4.72372e-05,-1.35568e-05,1.64782e-05
1182,-1.74238e-05,2.33695e-05,3.50639e-05,5.03725e-05,-1.26224e-05,1.59255e-05
1183,-1.90842e-05,2.2487e-05,4.00352e-05,5.55094e-05,-1.06158e-05,1.48426e-05
1184,-1.03741e-06,2.17378e-05,4.67907e-05,5.57163e-05,-1.14462e-05,1.87697e-05
1185,1.38169e-05,2.25502e-05,4.9004e-05,5.13054e-05,-1.27452e-05,2.54377e-05
1186,1.23706e-05,2.36126e-05,4.68191e-05,4.44654e-05,-7.6944e-06,2.7639e-05
1187,1.6294e-06,2.31936e-05,4.2936e-05,4.15285e-05,4.22207e-07,2.56911e-05
1188,-1.924e-05,2.20106e-05,3.43949e-05,4.5388e-05,2.0186e-06,1.89992e-05
1189,-2.63718e-05,1.76617e-05,3.00525e-05,4.82847e-05,6.45442e-08,1.73741e-05
1190,-6.53377e-06,1.46771e-05,3.70626e-05,4.67765e-05,-7.01596e-07,3.25528e-05
1191,2.44609e-06,1.53358e-05,4.02287e-05,4.79722e-05,-2.61634e-06,3.91627e-05
1192,-5.60348e-07,1.3719e-05,3.64676e-05,5.29727e-05,-4.41474e-06,2.14263e-05
1193,6.35209e-06,8.6633e-06,3.23467e-05,5.6946e-05,-1.42992e-06,6.06074e-06
1194,1.42671e-05,9.94521e-06,2.97178e-05,5.58418e-05,1.05253e-06,5.3037e-06
1195,1.63453e-05,1.68189e-05,3.01052e-05,4.9345e-05,-1.10447e-06,1.09454e-05
1196,3.3333e-06,1.89334e-05,2.92186e-05,4.40841e-05,-6.38984e-06,1.03848e-05
1197,-1.41657e-05,1.415e-05,2.71448e-05,4.67893e-05,-1.0507e-05,4.98508e-06
1198,-9.7415e-06,6.04429e-06,3.20919e-05,4.96631e-05,-9.55267e-06,6.29915e-06
1199,8.74302e-06,-1.148e-07,4.12828e-05,4.86686e-05,-6.39022e-06,1.37812e-05
1200,1.48e-05,-2.3122e-07,4.58949e-05,4.56875e-05,-5.04639e-06,1.68242e-05
1201,7.52551e-06,5.49679e-06,4.5776e-05,4.30106e-05,-7.07907e-06,1.29213e-05
1202,-8.64669e-06,9.45775e-06,3.74221e-05,4.19809e-05,-1.11982e-05,7.46144e-06
1203,-2.36161e-05,7.14239e-06,2.53674e-05,4.3083e-05,-1.56799e-05,3.69051e-06
1204,-1.73431e-05,1.92018e-06,2.38634e-05,4.48463e-05,-1.82981e-05,4.21393e-06
1205,9.52279e-06,-5.36699e-07,3.38746e-05,4.53082e-05,-1.76823e-05,1.00939e-05
1206,2.95249e-05,2.01879e-06,4.19285e-05,4.55368e-05,-1.38165e-05,1.66135e-05
1207,2.71384e-05,6.08485e-06,4.22289e-05,4.50547e-05,-9.21221e-06,1.86308e-05
1208,6.58439e-06,7.44864e-06,3.72855e-05,4.60534e-05,-7.77933e-06,1.42684e-05
1209,-1.9108e-05,5.68488e-06,3.04539e-05,5.21568e-05,-9.44686e-06,8.45513e-06
1210,-2.39238e-05,4.16534e-06,3.06398e-05,5.94023e-05,-1.14622e-05,1.03014e-05
1211,-4.99468e-06,4.8345e-06,3.87351e-05,6.05946e-05,-1.44258e-05,1.77163e-05
1212,9.67735e-06,6.44677e-06,4.26786e-05,5.62852e-05,-1.8989e-05,2.16787e-05
1213,3.16169e-06,9.21501e-06,3.77568e-05,4.98052e-05,-1.94631e-05,2.19424e-05
1214,-1.67327e-05,1.12675e-05,2.89909e-05,4.72129e-05,-1.55364e-05,1.94765e-05
1215,-3.97823e-05,7.61874e-06,2.19553e-05,5.17065e-05,-1.04716e-05,1.38545e-05
1216,-3.88364e-05,1.89104e-06,2.41106e-05,6.06852e-05,-5.92375e-06,1.07825e-05
1217,-9.18338e-06,2.56737e-06,3.19342e-05,6.73519e-05,-6.79926e-06,1.18789e-05
1218,5.63944e-06,7.96199e-06,3.53086e-05,6.71211e-05,-1.11231e-05,1.54183e-05
1219,4.11913e-06,1.36861e-05,3.41502e-05,6.20794e-05,-1.41401e-05,1.87929e-05
1220,5.34577e-06,1.42009e-05,3.19538e-05,6.12106e-05,-1.08566e-05,2.10078e-05
1221,5.23146e-06,1.11563e-05,2.95418e-05,6.04199e-05,-6.39151e-06,2.0871e-05
1222,4.19384e-06,1.07367e-05,2.76641e-05,5.43792e-05,-6.5586e-06,1.90386e-05
1223,-5.88673e-06,9.74153e-06,2.39792e-05,5.13144e-05,-8.41078e-06,1.43451e-05
1224,-1.96801e-05,4.32653e-06,1.8765e-05,5.37967e-05,-9.68571e-06,1.16074e-05
1225,-1.67443e-05,-1.92405e-06,1.98118e-05,5.72631e-05,-8.47698e-06,1.50543e-05
1226,7.24907e-07,-2.24879e-06,2.6764e-05,5.91857e-05,-8.19913e-06,2.03496e-05
1227,8.54183e-06,5.21253e-06,3.26299e-05,5.63811e-05,-8.77811e-06,2.13941e-05
1228,3.15961e-06,1.46295e-05,3.50912e-05,4.91946e-05,-8.75743e-06,1.86923e-05
1229,-1.12405e-05,1.75497e-05,3.29006e-05,4.42548e-05,-9.42619e-06,1.68927e-05
1230,-2.4833e-05,1.31942e-05,2.92499e-05,4.7688e-05,-1.17782e-05,1.62168e-05
1231,-2.28876e-05,8.70657e-06,3.20759e-05,5.47826e-05,-1.29596e-05,1.60196e-05
1232,-6.22088e-06,7.10958e-06,4.2068e-05,5.71327e-05,-1.11824e-05,1.75761e-05
1233,6.6505e-06,8.31533e-06,4.9331e-05,5.44243e-05,-7.4386e-06,2.15064e-05
1234,7.64104e-06,1.22264e-05,4.92273e-05,4.9591e-05,-9.96816e-07,2.6119e-05
1235,-2.66223e-06,1.44069e-05,4.15714e-05,4.65767e-05,4.63481e-06,2.8037e-05
1236,-1.94964e-05,1.11817e-05,3.08046e-05,4.79348e-05,5.24426e-06,2.04535e-05
1237,-1.92845e-05,6.92e-06,2.87883e-05,5.06189e-05,4.19967e-06,5.26985e-06
1238,2.21789e-06,5.77164e-06,3.89342e-05,5.03485e-05,3.21773e-06,-2.70702e-06
1239,2.07316e-05,6.31092e-06,4.87333e-05,4.98537e-05,-2.484e-06,8.9926e-06
1240,2.00273e-05,8.30841e-06,4.90113e-05,5.06558e-05,-1.03255e-05,3.38374e-05
1241,4.30184e-06,9.08358e-06,4.00152e-05,5.10281e-05,-1.1627e-05,4.59805e-05
1242,-1.9907e-05,2.15485e-06,2.78236e-05,5.39307e-05,-4.73289e-06,3.01442e-05
1243,-2.86005e-05,-5.51401e-06,2.55446e-05,5.89755e-05,4.86488e-06,1.03818e-05
1244,-1.06206e-05,-4.16757e-06,3.60209e-05,6.04178e-05,9.63874e-06,1.27883e-05
1245,2.14542e-06,2.60029e-06,4.32695e-05,5.74837e-05,4.86327e-06,2.38786e-05
1246,5.65382e-06,6.85016e-06,4.6617e-05,5.50265e-05,-2.30289e-06,2.81706e-05
1247,1.11948e-05,6.36587e-06,4.9406e-05,5.53854e-05,-5.44144e-06,2.81512e-05
1248,1.21058e-05,7.05784e-06,4.65784e-05,5.14846e-05,-7.48385e-06,2.2935e-05
1249,8.25118e-06,1.08901e-05,4.45376e-05,4.27185e-05,-1.18433e-05,1.72827e-05
1250,-5.97494e-06,1.37183e-05,3.99166e-05,3.67794e-05,-1.41916e-05,1.21482e-05
1251,-2.04011e-05,1.13456e-05,3.43498e-05,3.94436e-05,-9.76077e-06,5.2989e-06
1252,-1.43439e-05,9.69989e-06,3.53805e-05,4.32539e-05,-4.89611e-06,4.97126e-06
1253,4.5599e-06,1.11082e-05,4.15166e-05,4.60432e-05,-5.36894e-06,1.18496e-05
1254,1.20602e-05,1.43448e-05,4.43764e-05,4.78935e-05,-1.13326e-05,1.62151e-05
1255,8.53753e-06,1.72795e-05,4.26539e-05,4.68069e-05,-1.84927e-05,1.9752e-05
1256,-4.78764e-06,1.56652e-05,3.74569e-05,4.58881e-05,-2.3832e-05,2.1067e-05
1257,-1.92708e-05,9.03846e-06,3.2055e-05,4.85063e-05,-2.58443e-05,1.77778e-05
1258,-1.8779e-05,4.1848e-06,3.36569e-05,5.39856e-05,-2.3118e-05,1.31297e-05
1259,-4.99637e-06,5.88962e-06,4.1085e-05,5.71697e-05,-1.64683e-05,1.19304e-05
1260,3.88101e-06,1.09752e-05,4.48348e-05,5.579e-05,-1.08145e-05,1.62405e-05
1261,9.37414e-07,1.55542e-05,4.22358e-05,5.09514e-05,-1.06442e-05,1.92672e-05
1262,-1.14598e-05,1.70277e-05,3.6902e-05,4.83247e-05,-1.41486e-05,1.35179e-05
1263,-2.9011e-05,1.52534e-05,2.87394e-05,5.12034e-05,-1.80329e-05,2.93175e-06
1264,-3.296e-05,1.15837e-05,2.72507e-05,5.67942e-05,-2.02498e-05,2.03238e-06
1265,-1.76966e-05,8.08801e-06,3.72455e-05,5.86665e-05,-1.91588e-05,1.26655e-05
1266,-3.11136e-06,5.37491e-06,4.7783e-05,5.79749e-05,-1.4278e-05,2.21131e-05
1267,-1.24311e-06,4.13056e-06,4.90171e-05,5.55684e-05,-7.27182e-06,2.31154e-05
1268,-1.19369e-05,5.3965e-06,4.2278e-05,5.34838e-05,-2.68099e-06,1.73876e-05
1269,-3.5548e-05,1.10642e-05,3.37154e-05,5.42094e-05,-4.63301e-06,4.61793e-06
1270,-4.23216e-05,1.79113e-05,3.50218e-05,5.78821e-05,-7.10662e-06,-4.3609e-06
1271,-1.6381e-05,1.99977e-05,4.39871e-05,5.8997e-05,-5.33519e-06,3.33271e-06
1272,6.23982e-06,1.51546e-05,4.42344e-05,5.47804e-05,-3.47518e-06,2.32601e-05
1273,8.96962e-06,1.12649e-05,4.15948e-05,5.16409e-05,-3.43823e-06,3.7041e-05
1274,5.36966e-06,1.02918e-05,4.46316e-05,5.11833e-05,-2.05687e-06,3.13167e-05
1275,-1.43793e-06,1.294e-05,4.93263e-05,4.98271e-05,3.34465e-07,1.32148e-05
1276,-4.98735e-06,1.97124e-05,5.14258e-05,4.67513e-05,8.55603e-07,3.243e-06
1277,-1.57251e-05,2.38346e-05,4.38259e-05,4.86599e-05,-2.8285e-06,4.90735e-06
1278,-3.16805e-05,2.30536e-05,3.29305e-05,5.55509e-05,-4.3408e-06,8.32864e-06
1279,-2.81873e-05,2.1987e-05,3.44433e-05,6.01723e-05,4.0089e-06,1.2147e-05
1280,-8.80747e-06,2.47927e-05,4.61995e-05,6.11616e-05,1.06916e-05,1.90506e-05
1281,2.98859e-06,2.75386e-05,5.13502e-05,5.83888e-05,3.88281e-06,2.71368e-05
1282,3.1911e-08,2.58913e-05,4.63557e-05,5.30492e-05,-9.66628e-06,3.20402e-05
1283,-1.71652e-05,2.26922e-05,3.49696e-05,4.79199e-05,-1.88766e-05,2.59574e-05
1284,-3.44905e-05,2.17965e-05,2.56214e-05,4.73395e-05,-2.05655e-05,1.25095e-05
1285,-3.12211e-05,2.29169e-05,2.72364e-05,4.9422e-05,-1.67783e-05,4.76483e-06
1286,-8.02915e-06,2.3455e-05,3.85581e-05,4.9311e-05,-1.27497e-05,7.47358e-06
1287,8.80789e-06,2.36446e-05,4.86333e-05,4.76533e-05,-1.1302e-05,1.4787e-05
1288,4.20957e-06,2.48873e-05,5.00393e-05,4.31701e-05,-1.18028e-05,1.95757e-05
1289,-1.41363e-05,2.45764e-05,4.25796e-05,3.60889e-05,-1.12656e-05,1.76881e-05
1290,-3.23688e-05,2.19954e-05,3.25836e-05,3.38457e-05,-8.04233e-06,8.90905e-06
1291,-3.31699e-05,1.91e-05,3.22236e-05,3.93952e-05,-5.89529e-06,5.19873e-06
1292,-1.58296e-05,1.54949e-05,4.17498e-05,4.61219e-05,-8.99522e-06,1.11523e-05
1293,-1.04938e-06,1.21472e-05,4.88285e-05,4.80221e-05,-1.54429e-05,1.63412e-05
1294,-1.02519e-06,1.3404e-05,4.80143e-05,4.3359e-05,-1.97659e-05,1.52948e-05
1295,-1.31271e-05,1.65189e-05,4.13786e-05,3.74113e-05,-2.18467e-05,1.27977e-05
1296,-3.33207e-05,1.45054e-05,2.99851e-05,3.65524e-05,-2.23101e-05,5.34663e-06
1297,-3.42687e-05,6.94541e-06,2.74283e-05,3.954e-05,-1.92861e-05,-2.44914e-06
1298,-1.1658e-05,8.61974e-07,3.56458e-05,4.38522e-05,-1.36814e-05,4.22413e-07
1299,3.17144e-06,2.38378e-06,3.972e-05,4.66991e-05,-7.74409e-06,9.71232e-06
1300,6.86633e-06,8.5303e-06,4.12869e-05,4.6554e-05,-4.33043e-06,1.84791e-05
1301,8.2271e-06,1.09926e-05,4.40557e-05,4.6896e-05,-6.02925e-06,2.19339e-05
1302,8.24854e-06,1.19803e-05,4.4589e-05,4.73282e-05,-1.15391e-05,1.66948e-05
1303,1.0159e-05,1.4948e-05,4.2393e-05,4.5298e-05,-1.33577e-05,1.10869e-05
1304,1.89732e-06,1.60718e-05,3.33242e-05,4.09945e-05,-1.04447e-05,1.13134e-05
1305,-1.25515e-05,1.38727e-05,2.35907e-05,4.12045e-05,-8.42458e-06,9.50244e-06
1306,-1.10791e-05,1.18124e-05,2.49219e-05,4.47491e-05,-1.05277e-05,7.12602e-06
1307,4.60551e-06,1.0721e-05,3.55824e-05,4.59093e-05,-1.52744e-05,1.08277e-05
1308,1.40472e-05,1.02728e-05,4.06731e-05,4.38674e-05,-1.72417e-05,1.68618e-05
1309,1.25026e-05,1.19416e-05,3.73061e-05,4.13651e-05,-1.67794e-05,2.09348e-05
1310,-3.15475e-07,1.20849e-05,2.93217e-05,4.19095e-05,-1.55026e-05,1.88197e-05
1311,-1.43824e-05,8.25777e-06,2.38477e-05,4.64622e-05,-1.36117e-05,1.20043e-05
1312,-1.47731e-05,4.77079e-06,2.83689e-05,5.16128e-05,-1.17566e-05,8.14832e-06
1313,-2.18878e-06,4.06362e-06,4.0244e-05,5.33916e-05,-1.09408e-05,1.13166e-05
1314,7.28797e-06,5.13471e-06,4.74357e-05,5.32018e-05,-9.69012e-06,1.83422e-05
1315,4.28409e-06,8.49412e-06,4.28532e-05,5.42944e-05,-6.76114e-06,2.38036e-05
1316,-1.00921e-05,1.39271e-05,3.14309e-05,5.60928e-05,-4.07629e-06,2.29116e-05
1317,-2.5965e-05,1.61638e-05,2.27825e-05,5.62885e-05,-2.64435e-06,1.78328e-05
1318,-2.03857e-05,1.26047e-05,2.31633e-05,5.56788e-05,-9.14754e-07,1.83945e-05
1319,7.00349e-06,6.59591e-06,2.94751e-05,5.5679e-05,-1.71897e-06,2.664e-05
1320,2.5719e-05,3.464e-06,3.49937e-05,5.69941e-05,-8.05535e-06,3.36262e-05
1321,2.00577e-05,6.34517e-06,3.47542e-05,5.5995e-05,-1.47447e-05,3.5798e-05
1322,2.56661e-06,1.09122e-05,2.87234e-05,5.45768e-05,-1.63433e-05,3.3929e-05
1323,-2.19138e-05,1.1828e-05,2.1018e-05,5.6536e-05,-1.3122e-05,2.24261e-05
1324,-2.94339e-05,1.13615e-05,2.32113e-05,5.98757e-05,-1.04115e-05,6.71556e-06
1325,-8.55194e-06,1.40886e-05,3.48423e-05,6.13848e-05,-1.02732e-05,-2.14362e-06
1326,5.54434e-06,1.52614e-05,4.06654e-05,5.94802e-05,-1.15368e-05,-6.59697e-06
1327,5.83486e-06,1.19379e-05,3.92353e-05,5.70273e-05,-1.18759e-05,-7.35695e-06
1328,7.00193e-06,8.70877e-06,4.0665e-05,5.81231e-05,-1.15331e-05,-4.16143e-06
1329,5.65235e-06,1.03594e-05,4.46276e-05,6.11343e-05,-1.11528e-05,-6.1317e-06
1330,8.9933e-07,1.57725e-05,4.49227e-05,5.77289e-05,-1.10002e-05,-7.73352e-06
1331,-1.43477e-05,1.85838e-05,3.22866e-05,4.9435e-05,-8.54185e-06,-4.69965e-06
1332,-3.19628e-05,1.55878e-05,2.02556e-05,4.75121e-05,-2.81728e-06,-3.73967e-06
1333,-2.97489e-05,1.21449e-05,2.37511e-05,5.22587e-05,-1.03905e-06,-2.20096e-07
1334,-1.11225e-05,1.04077e-05,3.43796e-05,5.87687e-05,-2.79627e-06,8.20213e-06
1335,2.34154e-06,1.03992e-05,3.87334e-05,5.92085e-05,-3.61309e-06,1.31698e-05
1336,3.10717e-06,1.2801e-05,3.58675e-05,5.40907e-05,-3.43382e-06,1.16736e-05
1337,-8.59809e-06,1.39569e-05,2.82382e-05,5.09632e-05,-6.96167e-06,8.75212e-06
1338,-2.19563e-05,1.18056e-05,2.1711e-05,5.42778e-05,-1.2237e-05,6.6442e-06
1339,-1.96861e-05,8.4422e-06,2.54329e-05,6.04923e-05,-1.31565e-05,8.17642e-06
1340,-2.38635e-06,6.05342e-06,3.73961e-05,6.38619e-05,-1.00313e-05,1.2787e-05
1341,1.01828e-05,4.69745e-06,4.60585e-05,6.32636e-05,-5.98451e-06,1.46277e-05
1342,8.58051e-06,7.21152e-06,4.50779e-05,5.87274e-05,-2.55725e-06,1.34583e-05
1343,-3.98315e-06,1.42926e-05,3.82413e-05,5.40739e-05,-8.08354e-07,1.31802e-05
1344,-2.08649e-05,1.81526e-05,2.89503e-05,5.53694e-05,-2.03345e-06,1.43626e-05
1345,-2.27966e-05,1.46547e-05,2.49269e-05,6.19641e-05,-4.44146e-06,1.54031e-05
1346,-4.00146e-06,1.08689e-05,2.95454e-05,6.66891e-05,-4.69189e-06,1.49843e-05
1347,1.26313e-05,1.17185e-05,3.70499e-05,6.77539e-05,-2.15244e-06,1.29029e-05
1348,9.76983e-06,1.32725e-05,4.00527e-05,6.39881e-05,1.67374e-07,1.23861e-05
1349,-8.35662e-06,8.99572e-06,3.67713e-05,5.88673e-05,-2.11371e-07,1.41527e-05
1350,-3.20484e-05,1.95342e-06,2.89492e-05,5.94369e-05,-4.94989e-06,1.39798e-05
1351,-3.47222e-05,-1.57628e-06,2.92979e-05,6.3991e-05,-1.21129e-05,1.29309e-05
1352,-7.40856e-06,-7.15707e-07,4.15867e-05,6.37701e-05,-1.89527e-05,1.61237e-05
1353,9.86674e-06,4.85548e-06,4.84125e-05,5.62225e-05,-2.47453e-05,1.70179e-05
1354,7.20408e-06,1.33574e-05,4.96045e-05,5.11196e-05,-3.07406e-05,1.48094e-05
1355,7.38668e-06,1.69629e-05,5.18805e-05,5.31767e-05,-3.33579e-05,1.76772e-05
1356,6.92742e-06,1.43146e-05,4.98429e-05,5.53108e-05,-3.14064e-05,2.11385e-05
1357,4.4565e-06,1.56545e-05,4.47178e-05,5.14209e-05,-2.83646e-05,2.31398e-05
1358,-7.81338e-06,2.12581e-05,3.66653e-05,4.3335e-05,-2.62244e-05,1.97124e-05
1359,-2.41228e-05,2.08542e-05,3.12718e-05,4.10505e-05,-2.51883e-05,7.11425e-06
1360,-2.05635e-05,1.32931e-05,3.40522e-05,4.2875e-05,-2.53219e-05,-6.55468e-07
1361,-6.54527e-07,6.82189e-06,4.37143e-05,4.53077e-05,-2.57993e-05,4.3076e-06
1362,1.23534e-05,8.85953e-06,5.04667e-05,4.64556e-05,-2.41757e-05,1.47184e-05
1363,1.1793e-05,1.65211e-05,4.98544e-05,4.4109e-05,-1.90051e-05,2.21313e-05
1364,-1.00606e-06,2.13002e-05,4.03614e-05,4.05911e-05,-1.08857e-05,2.37584e-05
1365,-1.89959e-05,1.96966e-05,2.74082e-05,4.18621e-05,-3.52739e-06,2.05053e-05
1366,-2.48633e-05,1.52796e-05,2.258e-05,4.74959e-05,8.16169e-07,1.69852e-05
1367,-1.4999e-05,1.26278e-05,2.70387e-05,5.08043e-05,2.04902e-06,1.5502e-05
1368,-1.24169e-06,1.22169e-05,3.32405e-05,4.98283e-05,9.86958e-07,1.33914e-05
1369,6.9376e-06,1.19938e-05,3.49007e-05,4.62451e-05,-1.59796e-06,1.05337e-05
1370,1.2378e-06,1.17155e-05,3.19948e-05,4.20891e-05,-4.43642e-06,9.96904e-06
1371,-1.59607e-05,1.17258e-05,2.84401e-05,4.04642e-05,-6.38299e-06,9.60741e-06
1372,-1.88824e-05,1.11578e-05,3.32048e-05,4.36465e-05,-6.98534e-06,9.66402e-06
1373,-2.79251e-07,1.0163e-05,4.31336e-05,4.66354e-05,-5.42837e-06,1.38053e-05
1374,1.44515e-05,1.0568e-05,4.91697e-05,4.65278e-05,-3.47074e-06,2.11601e-05
1375,1.2056e-05,1.38746e-05,4.78737e-05,4.34089e-05,-3.8029e-06,2.66688e-05
1376,-1.84698e-06,1.79192e-05,3.89085e-05,4.08442e-05,-4.03025e-06,2.55967e-05
1377,-2.51742e-05,1.91164e-05,2.67211e-05,4.3898e-05,-2.64701e-06,1.68631e-05
1378,-3.17946e-05,1.57431e-05,2.3978e-05,5.17207e-05,-9.07141e-07,7.49041e-06
1379,-8.57784e-06,1.33543e-05,3.02709e-05,5.47697e-05,-4.01304e-06,1.11721e-05
1380,5.34246e-06,1.50686e-05,3.36827e-05,5.07001e-05,-1.00657e-05,2.15844e-05
1381,2.15978e-06,1.65074e-05,3.33005e-05,4.79645e-05,-1.31949e-05,2.74946e-05
1382,2.89353e-06,1.32726e-05,3.52389e-05,4.91978e-05,-1.25764e-05,2.87297e-05
1383,5.47711e-06,8.65025e-06,3.71224e-05,4.57567e-05,-1.06535e-05,2.64231e-05
1384,3.52417e-06,8.45718e-06,3.8978e-05,4.0774e-05,-1.03785e-05,2.01461e-05
1385,-1.1582e-05,1.20946e-05,3.69091e-05,4.24089e-05,-9.15397e-06,1.10238e-05
1386,-2.56152e-05,1.21198e-05,3.52305e-05,4.84674e-05,-3.58704e-06,6.53411e-06
1387,-1.78197e-05,8.40422e-06,4.18969e-05,5.23533e-05,4.22666e-06,1.05346e-05
1388,3.24368e-06,7.41911e-06,4.95733e-05,5.1505e-05,8.76728e-06,1.79075e-05
1389,1.54887e-05,8.33238e-06,5.01161e-05,4.67846e-05,8.52532e-06,2.4406e-05
1390,1.3993e-05,9.80168e-06,4.40378e-05,4.10137e-05,5.4682e-06,2.68294e-05
1391,6.32986e-09,9.34438e-06,3.59144e-05,3.91339e-05,5.12454e-06,2.33754e-05
1392,-1.91662e-05,6.58896e-06,3.12453e-05,4.27475e-05,5.30677e-06,1.48885e-05
1393,-2.53454e-05,4.70479e-06,3.51178e-05,4.83126e-05,1.72436e-06,8.03798e-06
1394,-1.31507e-05,5.83702e-06,4.36697e-05,5.03544e-05,-4.81074e-06,8.42631e-06
1395,-2.02931e-08,8.98923e-06,4.79445e-05,4.91183e-05,-1.12535e-05,1.46114e-05
1396,-1.46304e-06,1.17276e-05,4.3987e-05,4.56861e-05,-1.47005e-05,2.1067e-05
1397,-1.69353e-05,1.22984e-05,3.53951e-05,4.21014e-05,-1.60965e-05,2.21955e-05
1398,-3.56072e-05,1.15431e-05,2.78866e-05,4.33187e-05,-1.48625e-05,1.95598e-05
1399,-3.42493e-05,9.51705e-06,2.77381e-05,5.1346e-05,-7.09055e-06,1.85169e-05
1400,-1.10682e-05,5.62301e-06,3.47371e-05,5.83018e-05,2.74077e-06,2.13554e-05
1401,7.57835e-06,3.76463e-06,4.06063e-05,5.85611e-05,4.62227e-06,2.2217e-05
1402,8.6373e-06,5.9296e-06,4.04769e-05,5.19187e-05,-2.6437e-07,1.95705e-05
1403,-2.84257e-06,7.77447e-06,3.87136e-05,4.56488e-05,-6.49388e-06,1.54822e-05
1404,-2.43634e-05,3.79619e-06,3.74206e-05,4.78584e-05,-1.24714e-05,1.0219e-05
1405,-3.01359e-05,-3.52567e-06,3.84459e-05,5.33338e-05,-1.36008e-05,1.05375e-05
1406,-6.58638e-06,-5.32747e-06,4.23038e-05,5.49786e-05,-9.74017e-06,1.61714e-05
1407,7.33245e-06,1.0374e-06,4.35646e-05,5.17952e-05,-6.04041e-06,1.45922e-05
1408,3.83977e-06,7.49894e-06,4.37196e-05,4.90427e-05,-7.27092e-07,9.11074e-06
1409,4.50775e-06,9.04206e-06,4.85968e-05,5.02849e-05,2.55959e-06,1.00059e-05
1410,8.79837e-06,9.38553e-06,5.23041e-05,5.39172e-05,1.96839e-06,1.66225e-05
1411,1.0163e-05,1.0084e-05,4.97352e-05,5.60759e-05,1.37906e-07,2.10206e-05
1412,-4.56843e-06,9.30879e-06,4.0105e-05,5.7375e-05,-1.20488e-06,1.68121e-05
1413,-2.72947e-05,7.70162e-06,2.95882e-05,6.10069e-05,-3.23899e-06,9.77456e-06
1414,-3.13282e-05,5.00297e-06,2.89524e-05,6.35112e-05,-5.79693e-06,6.91527e-06
1415,-1.44061e-05,3.53992e-06,3.59616e-05,6.39637e-05,-8.19572e-06,7.50028e-06
1416,1.55812e-06,5.04287e-06,3.99256e-05,6.24268e-05,-1.15357e-05,6.70785e-06
1417,6.8415e-06,6.74698e-06,3.82737e-05,5.82119e-05,-1.28857e-05,3.89422e-06
1418,-4.0772e-06,7.11498e-06,3.26568e-05,5.34979e-05,-1.06081e-05,3.12881e-06
1419,-2.05516e-05,7.20912e-06,2.63927e-05,5.21214e-05,-7.91506e-06,5.30348e-06
1420,-1.97018e-05,9.23271e-06,2.64193e-05,5.42031e-05,-9.83083e-06,9.61259e-06
1421,-1.22015e-06,1.19371e-05,3.35847e-05,5.57205e-05,-1.3451e-05,1.39972e-05
1422,1.26611e-05,1.58315e-05,3.94445e-05,5.33985e-05,-1.46738e-05,1.41075e-05
1423,9.36697e-06,1.94442e-05,4.03425e-05,4.88597e-05,-1.18753e-05,9.55863e-06
1424,-6.42766e-06,1.7384e-05,3.81865e-05,4.69358e-05,-7.90941e-06,5.45664e-06
1425,-2.34807e-05,9.26227e-06,3.37345e-05,4.81963e-05,-4.30678e-06,4.66286e-06
1426,-1.98225e-05,2.99746e-06,3.35978e-05,5.05634e-05,-1.33572e-06,9.36071e-06
1427,5.35655e-06,2.50554e-06,4.0148e-05,5.41646e-05,-9.72759e-07,1.88661e-05
1428,2.32696e-05,5.60531e-06,4.48135e-05,5.63263e-05,-2.78497e-06,1.97839e-05
1429,1.75677e-05,1.17459e-05,4.26895e-05,5.35704e-05,-2.47286e-06,6.96015e-06
1430,-3.34873e-06,1.87601e-05,3.72141e-05,4.93463e-05,-3.54242e-06,-2.80472e-06
1431,-2.89071e-05,1.96128e-05,3.13272e-05,4.82619e-05,-9.35516e-06,-8.65686e-07
1432,-3.12952e-05,1.67485e-05,3.33223e-05,5.01045e-05,-1.18397e-05,6.1864e-06
1433,-8.28219e-06,1.73083e-05,4.2435e-05,5.10078e-05,-7.99877e-06,1.34999e-05
1434,8.92648e-07,2.03759e-05,4.59904e-05,4.94178e-05,-4.42256e-06,1.95768e-05
1435,1.42671e-09,2.1809e-05,4.54828e-05,4.93259e-05,-8.2663e-06,2.46825e-05
1436,3.72765e-06,2.04366e-05,4.71204e-05,5.15058e-05,-1.31977e-05,2.75979e-05
1437,3.73908e-06,2.20646e-05,4.77392e-05,5.14169e-05,-1.30025e-05,2.2533e-05
1438,1.63173e-06,2.57328e-05,4.6066e-05,4.82365e-05,-1.39346e-05,1.08932e-05
1439,-1.01123e-05,2.47753e-05,4.04925e-05,4.73602e-05,-1.89631e-05,4.42981e-06
1440,-2.21729e-05,1.53319e-05,3.29761e-05,5.40214e-05,-2.08865e-05,3.89367e-06
1441,-1.53038e-05,5.6485e-06,3.169e-05,6.08567e-05,-1.68218e-05,6.58867e-06
1442,4.46579e-06,3.28406e-06,3.5964e-05,6.32911e-05,-1.47469e-05,1.58091e-05
1443,1.51185e-05,5.42067e-06,3.80618e-05,6.06536e-05,-1.82669e-05,2.44805e-05
1444,1.08979e-05,9.37838e-06,3.73044e-05,5.46931e-05,-1.98516e-05,1.90736e-05
1445,-4.89506e-06,1.5959e-05,3.39918e-05,5.24462e-05,-1.51991e-05,3.58374e-06
1446,-1.87569e-05,2.1656e-05,3.02835e-05,5.66937e-05,-8.20156e-06,-4.8317e-06
1447,-1.57804e-05,2.19159e-05,3.37495e-05,6.23455e-05,-5.39459e-06,8.51512e-07
1448,3.72661e-07,1.81317e-05,4.29527e-05,6.37551e-05,-7.98289e-06,1.10764e-05
1449,1.05544e-05,1.70314e-05,4.71254e-05,6.00816e-05,-1.31606e-05,1.53721e-05
1450,6.9875e-06,2.01694e-05,4.39167e-05,5.23884e-05,-1.61194e-05,1.54482e-05
1451,-3.08091e-06,2.27838e-05,3.6866e-05,4.53035e-05,-1.38836e-05,1.3609e-05
1452,-1.50141e-05,2.09828e-05,2.86153e-05,4.37847e-05,-8.89226e-06,9.63713e-06
1453,-1.42409e-05,1.55426e-05,2.58242e-05,4.63454e-05,-7.31916e-06,7.21716e-06
1454,1.29134e-06,1.21176e-05,3.14094e-05,4.72501e-05,-1.17158e-05,9.19941e-06
1455,1.216e-05,1.22277e-05,3.89282e-05,4.6327e-05,-1.59599e-05,1.16167e-05
1456,7.9949e-06,1.25535e-05,4.10829e-05,4.28683e-05,-1.44535e-05,1.15692e-05
1457,-5.83779e-06,1.16976e-05,3.72076e-05,3.92109e-05,-8.69956e-06,1.18301e-05
1458,-2.49433e-05,1.0026e-05,3.04195e-05,4.18788e-05,-3.53527e-06,1.28044e-05
1459,-2.62288e-05,8.78891e-06,3.18237e-05,4.7088e-05,-1.14714e-06,1.4926e-05
1460,-3.85432e-06,6.44216e-06,4.05482e-05,4.82805e-05,-1.6337e-07,1.94863e-05
1461,5.78101e-06,1.32984e-07,4.18043e-05,4.62459e-05,-2.15541e-07,2.01795e-05
1462,2.67241e-06,-4.56707e-06,4.01524e-05,4.48304e-05,-2.87584e-06,1.6304e-05
1463,5.92964e-06,-6.51084e-06,4.01413e-05,4.65744e-05,-4.85366e-06,1.62748e-05
1464,6.04109e-06,-3.27598e-06,3.96614e-05,4.79859e-05,-5.37703e-06,2.07007e-05
1465,2.71052e-06,3.29225e-06,3.99453e-05,4.79095e-05,-4.04667e-06,2.13856e-05
1466,-6.5662e-06,7.90567e-06,3.44979e-05,4.64697e-05,-2.72825e-06,1.23062e-05
1467,-1.63911e-05,8.79536e-06,2.87359e-05,4.75772e-05,-5.08715e-06,4.10788e-07
1468,-1.15752e-05,7.8139e-06,3.21251e-05,5.07399e-05,-8.04905e-06,-4.36073e-06
1469,3.52382e-06,6.66728e-06,4.03443e-05,5.06521e-05,-9.83169e-06,-4.24073e-07
1470,1.29976e-05,9.69498e-06,4.47146e-05,4.62553e-05,-1.39169e-05,5.90889e-06
1471,1.26513e-05,1.81103e-05,4.29941e-05,4.01514e-05,-1.89895e-05,9.47276e-06
1472,3.00261e-07,2.26568e-05,3.6749e-05,3.8164e-05,-1.82286e-05,9.63864e-06
1473,-1.65404e-05,1.72944e-05,3.06809e-05,4.22902e-05,-1.11165e-05,8.80443e-06
1474,-1.79371e-05,8.11375e-06,3.34965e-05,4.83901e-05,-4.00205e-06,1.11137e-05
1475,-3.86987e-06,3.76821e-06,4.41625e-05,5.14579e-05,-1.25185e-06,1.57918e-05
1476,3.52401e-06,6.02356e-06,5.15043e-05,5.11384e-05,-1.40248e-06,1.7269e-05
1477,-4.239e-06,1.0108e-05,4.71821e-05,4.91776e-05,-2.60295e-06,1.19009e-05
1478,-1.97731e-05,9.8388e-06,3.36377e-05,4.95492e-05,-8.88871e-06,3.92553e-06
1479,-3.37459e-05,6.71075e-06,2.20133e-05,5.34762e-05,-1.71588e-05,-2.28465e-06
1480,-3.05514e-05,6.48739e-06,2.25285e-05,5.75954e-05,-1.80458e-05,-1.27645e-06
1481,-1.15614e-05,1.07421e-05,3.31785e-05,5.72017e-05,-1.45023e-05,1.06995e-05
1482,7.79016e-08,1.40491e-05,4.20664e-05,5.38939e-05,-1.48392e-05,2.88891e-05
1483,-5.80234e-06,1.3876e-05,4.23161e-05,5.00863e-05,-1.59323e-05,4.31239e-05
1484,-1.89398e-05,1.27763e-05,3.6611e-05,4.79542e-05,-1.16948e-05,3.72846e-05
1485,-3.474e-05,1.05543e-05,2.95035e-05,5.20283e-05,-7.32434e-06,9.68711e-06
1486,-3.37991e-05,4.84465e-06,3.04426e-05,6.0328e-05,-6.44725e-06,-1.11625e-05
1487,-9.91506e-06,9.11584e-07,4.03653e-05,6.58628e-05,-7.31999e-06,-1.95329e-06
1488,-1.65215e-06,-7.83279e-07,4.45095e-05,6.5203e-05,-9.97192e-06,1.88844e-05
1489,-7.98734e-06,-2.83274e-07,4.30173e-05,6.1198e-05,-1.41184e-05,2.90586e-05
1490,-5.85294e-06,1.87255e-06,4.51695e-05,5.74745e-05,-1.64991e-05,2.81569e-05
1491,-1.52531e-06,5.71317e-06,4.924e-05,5.31968e-05,-1.6377e-05,2.41227e-05
1492,1.44692e-07,1.07019e-05,4.687e-05,4.76849e-05,-1.53253e-05,2.5677e-05
1493,-1.11202e-05,1.25121e-05,3.50421e-05,4.5738e-05,-1.41624e-05,2.51777e-05
1494,-2.66276e-05,1.05565e-05,2.68263e-05,5.01299e-05,-1.31717e-05,1.7973e-05
1495,-2.41791e-05,8.50217e-06,3.22245e-05,5.62197e-05,-1.44854e-05,1.36695e-05
1496,-5.71203e-06,9.79165e-06,4.39349e-05,5.92321e-05,-1.79496e-05,1.78483e-05
1497,6.15696e-06,1.32473e-05,4.85566e-05,5.50955e-05,-1.99943e-05,2.48261e-05
1498,5.34092e-06,1.6885e-05,4.38995e-05,4.68235e-05,-1.94682e-05,3.05511e-05
1499,-8.664e-06,1.60814e-05,3.68627e-05,4.39087e-05,-1.67512e-05,3.24526e-05
1500,-2.75895e-05,1.07432e-05,3.30155e-05,4.70629e-05,-1.28377e-05,2.89623e-05
1501,-3.012e-05,7.71987e-06,3.59866e-05,5.03011e-05,-8.06246e-06,2.55746e-05
1502,-1.3202e-05,8.97777e-06,4.30181e-05,5.09276e-05,-5.42218e-06,2.64964e-05
1503,2.99814e-06,1.20159e-05,4.4674e-05,4.97563e-05,-6.18647e-06,2.9285e-05
1504,4.72021e-06,1.69759e-05,3.82476e-05,4.79011e-05,-6.42468e-06,3.20418e-05
1505,-8.22211e-06,2.3147e-05,2.88972e-05,4.61179e-05,-1.99542e-06,3.15673e-05
1506,-2.73852e-05,2.56168e-05,2.10987e-05,4.56567e-05,3.53643e-06,2.23631e-05
1507,-2.8653e-05,2.09298e-05,2.20082e-05,4.91436e-05,1.87561e-06,1.23727e-05
1508,-7.64391e-06,1.41518e-05,3.30931e-05,5.36488e-05,-1.07216e-05,1.20275e-05
1509,9.69249e-06,1.39322e-05,4.27571e-05,5.32923e-05,-2.61986e-05,1.80653e-05
1510,6.82751e-06,2.10335e-05,4.36043e-05,4.70313e-05,-2.90987e-05,1.93559e-05
1511,-8.11625e-06,2.5683e-05,3.99464e-05,4.34528e-05,-2.21796e-05,1.43598e-05
1512,-2.86679e-05,2.07053e-05,3.48993e-05,5.16032e-05,-1.50966e-05,8.53389e-06
1513,-3.19164e-05,1.54305e-05,3.5683e-05,6.01951e-05,-6.84095e-06,1.05268e-05
1514,-7.66284e-06,1.83292e-05,4.24322e-05,5.93433e-05,-1.41227e-06,2.03822e-05
1515,6.34029e-06,2.43118e-05,4.41134e-05,5.51452e-05,-2.81285e-06,2.50035e-05
1516,5.03389e-06,2.75558e-05,4.35138e-05,5.40743e-05,-4.70196e-06,2.4269e-05
1517,7.68392e-06,2.31531e-05,4.17291e-05,5.52213e-05,-5.03052e-06,2.45986e-05
1518,8.47594e-06,1.89835e-05,3.91414e-05,5.25956e-05,-7.71551e-06,2.54273e-05
1519,5.8556e-06,2.26501e-05,3.65367e-05,4.83879e-05,-6.64631e-06,2.44535e-05
1520,-8.70047e-06,2.70722e-05,2.93687e-05,4.55718e-05,-4.18707e-07,2.03162e-05
1521,-2.562e-05,2.56392e-05,2.33583e-05,4.47029e-05,3.83532e-06,1.48886e-05
1522,-2.10098e-05,2.0093e-05,2.5859e-05,4.632e-05,5.82274e-07,1.36652e-05
1523,-2.17617e-06,1.49843e-05,3.30162e-05,4.82959e-05,-8.9978e-06,1.71866e-05
1524,8.1176e-06,1.36531e-05,3.57781e-05,4.66611e-05,-1.81953e-05,1.87297e-05
1525,7.21828e-06,1.65274e-05,3.45054e-05,4.05214e-05,-2.26185e-05,1.6503e-05
1526,-4.11572e-06,1.66072e-05,3.02596e-05,3.5184e-05,-2.04334e-05,9.83992e-06
1527,-1.95909e-05,1.25084e-05,2.6409e-05,3.75527e-05,-1.4231e-05,3.41288e-06
1528,-2.29762e-05,9.49212e-06,2.95331e-05,4.58567e-05,-6.99632e-06,3.82443e-06
1529,-1.15405e-05,9.19031e-06,3.74569e-05,5.11723e-05,-2.19751e-06,8.93069e-06
1530,2.38014e-06,1.22987e-05,4.14509e-05,4.89709e-05,-1.33756e-06,1.29767e-05
1531,7.58318e-06,1.65959e-05,4.18453e-05,4.06998e-05,-6.56118e-06,1.48655e-05
1532,-2.25797e-06,1.70143e-05,3.93449e-05,3.34639e-05,-1.36467e-05,1.51942e-05
1533,-2.15526e-05,1.32344e-05,3.27659e-05,3.37173e-05,-1.46382e-05,1.35864e-05
1534,-2.48201e-05,9.15171e-06,3.09971e-05,3.98167e-05,-8.82211e-06,1.16452e-05
1535,-4.78911e-06,8.62813e-06,3.92015e-05,4.61714e-05,-2.15044e-06,1.06662e-05
1536,1.43343e-05,1.34173e-05,4.77026e-05,4.86785e-05,-1.44499e-08,1.15796e-05
1537,1.40418e-05,1.87477e-05,4.66917e-05,4.57796e-05,-3.00326e-06,1.30492e-05
1538,-2.55469e-06,1.71455e-05,3.92165e-05,4.05826e-05,-5.8608e-06,1.21933e-05
1539,-2.79856e-05,8.20469e-06,2.95281e-05,3.97421e-05,-3.97008e-06,5.92371e-06
1540,-2.99325e-05,1.24191e-06,2.48417e-05,4.23328e-05,-9.65274e-07,1.07483e-06
1541,7.09633e-07,4.01387e-06,2.77602e-05,4.43014e-05,3.8774e-07,3.58663e-06
1542,1.9185e-05,9.72331e-06,3.1831e-05,4.45708e-05,3.16248e-07,5.73773e-06
1543,1.88532e-05,8.05635e-06,3.41104e-05,4.42088e-05,-4.19012e-06,5.76349e-06
1544,1.53121e-05,-4.55503e-07,3.5333e-05,4.74422e-05,-1.03459e-05,7.08645e-06
1545,1.05639e-05,-4.9556e-06,3.73077e-05,4.98164e-05,-1.18418e-05,8.61027e-06
1546,8.20675e-06,-1.05284e-06,4.07175e-05,4.77717e-05,-1.12562e-05,8.29667e-06
1547,-4.13732e-06,4.30886e-06,4.01909e-05,4.42129e-05,-1.07306e-05,3.39131e-06
1548,-2.20115e-05,6.56611e-06,3.66752e-05,4.70221e-05,-1.21965e-05,-2.34656e-06
1549,-1.88139e-05,8.78326e-06,3.86377e-05,5.39719e-05,-1.5903e-05,-2.46712e-06
1550,6.20757e-06,1.14918e-05,4.29681e-05,5.87572e-05,-2.08722e-05,3.36636e-06
1551,2.06742e-05,1.1771e-05,4.32832e-05,6.06538e-05,-2.38684e-05,1.08599e-05
1552,1.51944e-05,1.29663e-05,4.14821e-05,5.82914e-05,-2.22879e-05,1.60405e-05
