Time_Index,DELTOID_Affected,DELTOID_NonAffected,BICEPS_Affected,BICEPS_NonAffected,FOREARM_Affected,FOREARM_NonAffected
1,-2.39563e-05,9.57752e-06,2.95459e-05,5.67655e-05,-6.97409e-06,4.90546e-06
2,-1.26837e-05,8.77004e-06,3.30692e-05,6.10673e-05,-9.89731e-06,6.05598e-06
3,6.72521e-06,8.80263e-06,3.77698e-05,6.22207e-05,-1.2446e-05,9.20863e-06
4,1.66038e-05,1.05728e-05,3.86003e-05,6.08654e-05,-1.40575e-05,1.21859e-05
5,1.166e-05,1.21662e-05,3.40942e-05,5.759e-05,-1.51405e-05,9.80809e-06
6,-6.31826e-06,1.04782e-05,2.50888e-05,5.40167e-05,-1.46812e-05,3.76511e-06
7,-2.23304e-05,7.83766e-06,1.92889e-05,5.35053e-05,-1.32403e-05,6.05248e-07
8,-2.01831e-05,8.01467e-06,2.29679e-05,5.66644e-05,-1.27212e-05,1.95878e-06
9,-4.67538e-06,1.03471e-05,3.1206e-05,5.98981e-05,-1.21589e-05,3.93633e-06
10,5.93241e-06,1.36525e-05,3.5524e-05,5.94786e-05,-9.0365e-06,5.05583e-06
11,2.16716e-06,1.6439e-05,3.25097e-05,5.50421e-05,-4.21283e-06,8.15985e-06
12,-1.26084e-05,1.6464e-05,2.34337e-05,5.09374e-05,-1.29512e-06,1.34902e-05
13,-2.27414e-05,1.4975e-05,1.55879e-05,5.31334e-05,-2.92448e-06,1.7989e-05
14,-1.42061e-05,1.49014e-05,1.83554e-05,6.0737e-05,-9.28317e-06,2.0004e-05
15,2.51364e-06,1.47084e-05,3.09444e-05,6.56678e-05,-1.55505e-05,1.93289e-05
16,7.47523e-06,1.33023e-05,4.0897e-05,6.3046e-05,-1.58208e-05,1.76455e-05
17,-1.00705e-06,1.30134e-05,3.82165e-05,5.61564e-05,-1.16174e-05,1.95018e-05
18,-1.83814e-05,1.26328e-05,2.75375e-05,5.23278e-05,-8.24949e-06,2.19496e-05
19,-3.35999e-05,9.87653e-06,2.3705e-05,5.36033e-05,-7.21999e-06,1.9161e-05
20,-2.51369e-05,9.60783e-06,3.25129e-05,5.66715e-05,-7.34764e-06,1.65686e-05
21,-4.37934e-06,1.24468e-05,4.24788e-05,5.85347e-05,-8.12232e-06,1.87559e-05
22,4.79204e-06,1.12408e-05,4.44491e-05,5.87513e-05,-9.64533e-06,2.31889e-05
23,8.36414e-06,6.93467e-06,4.26112e-05,5.97624e-05,-1.09524e-05,2.63779e-05
24,9.99765e-06,6.18221e-06,3.97279e-05,6.1247e-05,-1.23284e-05,2.31816e-05
25,5.85622e-06,1.16226e-05,3.60664e-05,5.94464e-05,-1.53942e-05,1.07637e-05
26,-5.82704e-06,1.83089e-05,3.24082e-05,5.53583e-05,-1.71846e-05,-6.18175e-06
27,-2.35483e-05,1.95389e-05,2.80777e-05,5.47971e-05,-1.506e-05,-1.68267e-05
28,-3.05509e-05,1.41533e-05,2.80331e-05,5.86665e-05,-1.0679e-05,-1.3403e-05
29,-1.55207e-05,9.12113e-06,3.53977e-05,6.18678e-05,-6.66593e-06,5.50396e-07
30,6.10477e-06,1.03092e-05,4.35747e-05,6.02377e-05,-5.39969e-06,1.5357e-05
31,1.46218e-05,1.45573e-05,4.65618e-05,5.34828e-05,-5.93773e-06,2.37555e-05
32,7.67292e-06,1.69388e-05,4.35039e-05,4.68753e-05,-5.15767e-06,2.30988e-05
33,-5.81054e-06,1.55084e-05,3.4975e-05,4.62941e-05,-2.61212e-06,1.64665e-05
34,-1.32019e-05,1.16599e-05,2.81983e-05,5.12113e-05,-2.15443e-07,1.03335e-05
35,-8.41198e-06,8.38828e-06,3.07586e-05,5.61298e-05,8.37982e-08,8.81224e-06
36,3.15166e-06,8.86e-06,3.88081e-05,5.59117e-05,-3.66275e-06,1.25597e-05
37,1.12422e-05,1.47687e-05,4.4386e-05,5.0209e-05,-1.00145e-05,1.96027e-05
38,8.08007e-06,2.30478e-05,4.33958e-05,4.48643e-05,-1.33284e-05,2.44291e-05
39,-7.03383e-06,2.53171e-05,3.53362e-05,4.527e-05,-1.02848e-05,2.07483e-05
40,-1.88571e-05,1.89866e-05,2.8602e-05,5.02038e-05,-4.55206e-06,1.335e-05
41,-1.05963e-05,1.08496e-05,3.36192e-05,5.44608e-05,-2.01354e-06,1.49479e-05
42,8.61344e-06,6.04632e-06,4.34938e-05,5.49378e-05,-3.78999e-06,2.59113e-05
43,1.75036e-05,5.60758e-06,4.59465e-05,5.28498e-05,-6.9883e-06,3.13445e-05
44,1.09406e-05,7.72407e-06,4.2252e-05,4.97694e-05,-9.65483e-06,2.08144e-05
45,-7.90727e-06,8.85936e-06,3.68124e-05,4.88872e-05,-1.00517e-05,1.79563e-06
46,-2.68775e-05,8.26341e-06,3.27968e-05,5.07802e-05,-8.61055e-06,-8.65678e-06
47,-2.24002e-05,5.99371e-06,3.53717e-05,5.11324e-05,-1.03522e-05,-1.44642e-06
48,-1.57588e-06,1.79282e-06,3.94169e-05,4.96657e-05,-1.68456e-05,9.09919e-06
49,8.28543e-06,-7.63416e-07,3.74722e-05,5.03253e-05,-2.24016e-05,4.59103e-06
50,5.92746e-06,9.66584e-07,3.55406e-05,5.37628e-05,-2.19715e-05,-8.03141e-06
51,3.62272e-06,6.32903e-06,3.71862e-05,5.53695e-05,-1.78689e-05,-1.2289e-05
52,4.9077e-06,1.24245e-05,3.81918e-05,5.2484e-05,-1.36322e-05,-4.90755e-06
53,1.18763e-07,1.52387e-05,3.51031e-05,4.83293e-05,-1.13455e-05,8.32606e-07
54,-1.53852e-05,1.42006e-05,2.82462e-05,4.81873e-05,-1.21896e-05,-3.26138e-06
55,-2.34222e-05,1.17433e-05,2.65395e-05,5.18964e-05,-1.31689e-05,-6.84866e-06
56,-1.02082e-05,1.12341e-05,3.47233e-05,5.4971e-05,-1.24425e-05,-8.99221e-07
57,9.00054e-06,1.20369e-05,4.43637e-05,5.37357e-05,-1.10543e-05,1.24915e-05
58,1.5353e-05,1.2985e-05,4.66465e-05,4.78145e-05,-9.50542e-06,2.51525e-05
59,5.99862e-06,1.49794e-05,4.10833e-05,4.09865e-05,-8.04963e-06,2.75222e-05
60,-1.31037e-05,1.56792e-05,3.34844e-05,3.76323e-05,-8.11101e-06,1.84233e-05
61,-2.64657e-05,1.39618e-05,3.16748e-05,3.80975e-05,-1.02318e-05,9.70925e-06
62,-2.20901e-05,1.20169e-05,3.79343e-05,3.93192e-05,-1.137e-05,1.12547e-05
63,-7.85487e-06,1.16512e-05,4.6398e-05,4.03126e-05,-9.3288e-06,1.92336e-05
64,3.11446e-07,1.22423e-05,5.10599e-05,4.10518e-05,-5.92465e-06,2.38733e-05
65,-4.16957e-06,1.26821e-05,4.90964e-05,4.19679e-05,-4.49519e-06,2.22114e-05
66,-1.83311e-05,1.3858e-05,4.05468e-05,4.49472e-05,-5.80922e-06,1.68416e-05
67,-2.78136e-05,1.78808e-05,3.36223e-05,4.94192e-05,-7.93446e-06,1.1767e-05
68,-1.78463e-05,2.30327e-05,3.79118e-05,5.08979e-05,-8.70249e-06,1.27064e-05
69,1.32315e-06,2.42379e-05,4.72893e-05,4.86395e-05,-8.0489e-06,2.0022e-05
70,8.79909e-06,2.1373e-05,4.92656e-05,4.66344e-05,-9.0229e-06,2.4826e-05
71,2.08974e-06,1.80808e-05,4.37063e-05,4.50314e-05,-1.30308e-05,2.3758e-05
72,-1.43306e-05,1.484e-05,3.49468e-05,4.2995e-05,-1.62014e-05,2.18377e-05
73,-2.92223e-05,1.07423e-05,2.76928e-05,4.41589e-05,-1.39732e-05,2.11552e-05
74,-2.22763e-05,7.53681e-06,2.94164e-05,4.80683e-05,-8.01704e-06,2.08565e-05
75,-4.16366e-06,8.05486e-06,3.44519e-05,4.79342e-05,-5.26518e-06,2.02117e-05
76,1.66146e-06,1.10645e-05,3.5218e-05,4.44852e-05,-9.05182e-06,1.90193e-05
77,1.1342e-07,1.21081e-05,3.7673e-05,4.48735e-05,-1.54249e-05,1.61101e-05
78,-7.51575e-07,1.15271e-05,4.09222e-05,4.68279e-05,-1.81744e-05,1.32962e-05
79,3.25288e-07,1.05738e-05,3.94159e-05,4.39133e-05,-1.63252e-05,1.31193e-05
80,-2.44009e-06,1.069e-05,3.34057e-05,3.68425e-05,-1.21637e-05,1.37763e-05
81,-1.52319e-05,1.26283e-05,2.52068e-05,3.26609e-05,-7.03728e-06,1.36187e-05
82,-2.43658e-05,1.28087e-05,2.28377e-05,3.67163e-05,-2.92595e-06,1.46965e-05
83,-1.6597e-05,1.16428e-05,3.14181e-05,4.45722e-05,-1.86325e-06,2.00243e-05
84,-8.6401e-07,1.30636e-05,4.24857e-05,4.86833e-05,-4.64697e-06,2.71263e-05
85,9.50471e-06,1.84444e-05,4.66984e-05,4.73202e-05,-7.81044e-06,3.12862e-05
86,8.97627e-06,2.30527e-05,4.25886e-05,4.39515e-05,-7.74952e-06,2.83946e-05
87,-2.43467e-06,2.11055e-05,3.40054e-05,4.31504e-05,-5.83846e-06,1.69517e-05
88,-1.25844e-05,1.4669e-05,3.0109e-05,4.72994e-05,-5.27298e-06,5.86966e-06
89,-8.83487e-06,9.55803e-06,3.49546e-05,5.35296e-05,-6.08973e-06,5.61245e-06
90,3.45541e-06,7.95373e-06,4.17609e-05,5.6554e-05,-5.66542e-06,1.41201e-05
91,8.28467e-06,9.23823e-06,4.44743e-05,5.38279e-05,-4.69656e-06,2.13587e-05
92,-4.38e-07,1.11016e-05,4.28587e-05,4.84574e-05,-6.96678e-06,2.17666e-05
93,-1.73069e-05,1.01631e-05,3.67716e-05,4.74803e-05,-1.19202e-05,1.833e-05
94,-2.94146e-05,5.84724e-06,3.07487e-05,5.32353e-05,-1.46719e-05,1.83141e-05
95,-2.42942e-05,1.46501e-06,3.2799e-05,5.88037e-05,-1.45366e-05,2.3191e-05
96,-9.1699e-06,4.66984e-07,3.99906e-05,5.8409e-05,-1.46904e-05,2.56316e-05
97,-2.37474e-06,3.73552e-06,4.22679e-05,5.45605e-05,-1.42385e-05,2.02553e-05
98,-7.27317e-06,1.02017e-05,3.75406e-05,5.0077e-05,-1.12266e-05,1.22333e-05
99,-2.22335e-05,1.48589e-05,2.93213e-05,4.84418e-05,-9.09354e-06,7.51518e-06
100,-3.96001e-05,1.29687e-05,2.35839e-05,5.30755e-05,-9.3714e-06,6.9856e-06
101,-3.61162e-05,8.76338e-06,2.75608e-05,5.96735e-05,-8.01329e-06,1.38051e-05
102,-1.40839e-05,8.34853e-06,3.72294e-05,6.27404e-05,-6.30433e-06,2.1872e-05
103,2.35932e-06,9.66337e-06,4.34699e-05,6.22763e-05,-9.62214e-06,2.06717e-05
104,9.49944e-06,8.22427e-06,4.49491e-05,6.07101e-05,-1.40957e-05,1.5396e-05
105,1.08125e-05,6.47527e-06,4.4208e-05,5.87259e-05,-1.28884e-05,1.3238e-05
106,5.80272e-06,1.01786e-05,4.29594e-05,5.52759e-05,-8.07755e-06,1.53495e-05
107,-5.85445e-06,1.69517e-05,4.02164e-05,5.18051e-05,-5.63673e-06,1.90448e-05
108,-2.08869e-05,1.79966e-05,3.46903e-05,5.28637e-05,-5.74112e-06,1.91207e-05
109,-2.38468e-05,1.11198e-05,3.1314e-05,5.89081e-05,-5.573e-06,1.58333e-05
110,-7.41133e-06,4.13186e-06,3.38819e-05,6.51673e-05,-4.95127e-06,1.42919e-05
111,1.14626e-05,4.50529e-06,3.81997e-05,6.62626e-05,-5.85732e-06,1.62647e-05
112,1.63941e-05,1.04604e-05,4.13913e-05,6.04864e-05,-8.71534e-06,1.84759e-05
113,6.41367e-06,1.45335e-05,4.07833e-05,5.3459e-05,-1.09274e-05,1.79454e-05
114,-1.17852e-05,1.25292e-05,3.37333e-05,5.22907e-05,-1.13687e-05,1.43661e-05
115,-2.38341e-05,6.45963e-06,2.67206e-05,5.7608e-05,-1.05751e-05,1.05202e-05
116,-1.76569e-05,2.22489e-06,2.80204e-05,6.28696e-05,-1.01522e-05,9.13943e-06
117,-1.47441e-07,4.07964e-06,3.48615e-05,6.2588e-05,-1.09311e-05,1.07467e-05
118,9.13151e-06,1.09538e-05,3.93003e-05,5.6787e-05,-1.08344e-05,1.37545e-05
119,5.05974e-07,1.76422e-05,3.75535e-05,4.99591e-05,-8.2662e-06,1.57435e-05
120,-1.91768e-05,1.79611e-05,2.96429e-05,4.78547e-05,-5.23893e-06,1.63247e-05
121,-3.05991e-05,1.16824e-05,2.31037e-05,5.13095e-05,-3.79416e-06,1.72592e-05
122,-2.02196e-05,6.68825e-06,2.70402e-05,5.53822e-05,-4.49553e-06,1.87428e-05
123,2.56609e-07,8.14945e-06,3.69979e-05,5.63433e-05,-7.27229e-06,1.97952e-05
124,1.07593e-05,1.27878e-05,4.20173e-05,5.49667e-05,-1.13739e-05,1.76815e-05
125,5.85989e-06,1.78977e-05,3.99478e-05,5.38313e-05,-1.60488e-05,1.17843e-05
126,-1.31157e-05,2.1479e-05,3.33941e-05,5.47394e-05,-1.90873e-05,5.92743e-06
127,-3.19435e-05,2.04589e-05,2.87424e-05,5.66598e-05,-1.74692e-05,4.92362e-06
128,-2.52054e-05,1.90438e-05,3.28596e-05,5.71327e-05,-1.10483e-05,1.01519e-05
129,-2.22394e-06,1.95084e-05,3.79021e-05,5.57597e-05,-6.97262e-06,1.46749e-05
130,8.66895e-06,1.69177e-05,3.71665e-05,5.43312e-05,-1.0164e-05,1.37902e-05
131,6.75632e-06,1.29396e-05,3.85491e-05,5.40381e-05,-1.44477e-05,1.16469e-05
132,2.49985e-06,1.23908e-05,4.43476e-05,5.33357e-05,-1.44439e-05,1.45433e-05
133,1.80598e-07,1.48358e-05,4.75656e-05,5.15029e-05,-1.25065e-05,2.53179e-05
134,-5.09618e-06,1.59244e-05,4.35121e-05,5.12581e-05,-1.24704e-05,3.46515e-05
135,-1.8125e-05,1.25514e-05,3.44376e-05,5.33586e-05,-1.30837e-05,2.79462e-05
136,-2.51582e-05,8.99323e-06,2.99658e-05,5.52527e-05,-1.08084e-05,1.05547e-05
137,-1.40065e-05,1.01728e-05,3.57692e-05,5.55452e-05,-6.3987e-06,1.72922e-06
138,3.70964e-06,1.40312e-05,4.41177e-05,5.37361e-05,-3.48662e-06,5.14577e-06
139,1.35637e-05,1.72233e-05,4.58591e-05,4.94177e-05,-3.97576e-06,1.02131e-05
140,1.07856e-05,1.84405e-05,4.09964e-05,4.49366e-05,-7.66999e-06,1.08804e-05
141,-4.56248e-06,1.69109e-05,3.45048e-05,4.37769e-05,-1.23951e-05,8.34448e-06
142,-1.81411e-05,1.42615e-05,3.33476e-05,4.55364e-05,-1.35836e-05,6.71782e-06
143,-1.40559e-05,1.24724e-05,4.06908e-05,4.62721e-05,-9.87038e-06,8.86331e-06
144,9.05825e-07,1.19186e-05,4.83827e-05,4.55386e-05,-6.01856e-06,1.43317e-05
145,7.54395e-06,1.31564e-05,4.72499e-05,4.46781e-05,-6.3252e-06,2.18684e-05
146,-4.54348e-07,1.55473e-05,3.93741e-05,4.22892e-05,-9.26599e-06,2.78815e-05
147,-1.64448e-05,1.63615e-05,3.11616e-05,4.03814e-05,-1.20093e-05,2.52637e-05
148,-2.62696e-05,1.43446e-05,2.73001e-05,4.38066e-05,-1.33324e-05,1.34447e-05
149,-1.74741e-05,1.08853e-05,3.10248e-05,4.96005e-05,-1.29677e-05,1.15083e-06
150,1.01576e-06,8.10879e-06,3.8356e-05,5.19696e-05,-1.17616e-05,-3.39063e-06
151,8.93644e-06,8.16584e-06,4.27671e-05,5.03475e-05,-8.59858e-06,1.62046e-06
152,2.10282e-06,1.04806e-05,4.16128e-05,4.59369e-05,-3.78296e-06,1.1041e-05
153,-1.47256e-05,1.09738e-05,3.36152e-05,4.2888e-05,-9.66811e-07,1.69216e-05
154,-3.11116e-05,8.21071e-06,2.724e-05,4.5741e-05,-1.75189e-06,1.81226e-05
155,-2.62447e-05,6.65368e-06,3.27583e-05,5.20395e-05,-3.92317e-06,1.95889e-05
156,-7.36309e-06,7.74155e-06,3.95938e-05,5.58183e-05,-2.47648e-06,2.33434e-05
157,2.25439e-06,8.27431e-06,3.64522e-05,5.47661e-05,1.81435e-06,2.74194e-05
158,4.42916e-06,8.30123e-06,3.34857e-05,5.20849e-05,3.52376e-06,2.78306e-05
159,5.64912e-06,1.06482e-05,3.82929e-05,5.15726e-05,2.83547e-06,2.24247e-05
160,4.99504e-06,1.52175e-05,4.27815e-05,5.23803e-05,2.5327e-06,1.60158e-05
161,-3.88874e-06,1.79624e-05,3.85606e-05,5.22143e-05,2.08661e-06,1.43848e-05
162,-2.16662e-05,1.50625e-05,2.85251e-05,5.22914e-05,1.34382e-06,1.39007e-05
163,-2.90244e-05,8.33336e-06,2.36346e-05,5.43422e-05,-8.33733e-07,9.22831e-06
164,-1.32934e-05,3.53586e-06,2.89997e-05,5.72498e-05,-7.02304e-06,1.85551e-06
165,8.29429e-06,4.13563e-06,3.76519e-05,5.81408e-05,-1.32694e-05,-2.66782e-06
166,1.57301e-05,9.63959e-06,4.28803e-05,5.47485e-05,-1.40323e-05,7.66248e-07
167,6.69881e-06,1.48681e-05,4.2442e-05,4.94697e-05,-1.15045e-05,1.55471e-05
168,-1.12244e-05,1.4207e-05,3.69939e-05,4.78383e-05,-1.15382e-05,3.37458e-05
169,-2.17983e-05,8.88484e-06,3.41421e-05,5.15797e-05,-1.35953e-05,3.76764e-05
170,-1.33752e-05,6.41376e-06,3.93416e-05,5.66172e-05,-1.36634e-05,2.57881e-05
171,4.7452e-06,9.71329e-06,4.64469e-05,5.91479e-05,-1.15986e-05,1.40142e-05
172,1.41373e-05,1.3073e-05,4.71257e-05,5.8191e-05,-1.00789e-05,1.25637e-05
173,7.81421e-06,1.17821e-05,4.16772e-05,5.4937e-05,-1.02503e-05,1.6385e-05
174,-9.46491e-06,7.37834e-06,3.32002e-05,5.26185e-05,-1.09091e-05,1.76685e-05
175,-2.12679e-05,4.31247e-06,2.71808e-05,5.44379e-05,-1.17633e-05,1.63028e-05
176,-1.29725e-05,5.62951e-06,3.04081e-05,6.01257e-05,-1.34194e-05,1.65709e-05
177,4.74143e-06,9.26061e-06,3.86689e-05,6.56927e-05,-1.5603e-05,1.87276e-05
178,1.15751e-05,1.3034e-05,4.23225e-05,6.64204e-05,-1.84987e-05,1.86438e-05
179,4.12878e-06,1.6154e-05,3.97745e-05,6.03053e-05,-1.85469e-05,1.56446e-05
180,-1.44715e-05,1.60067e-05,3.29567e-05,5.00735e-05,-1.31218e-05,1.26227e-05
181,-3.22797e-05,1.27536e-05,2.66719e-05,4.2151e-05,-7.69409e-06,1.12627e-05
182,-2.7284e-05,8.42624e-06,2.82909e-05,4.01977e-05,-6.74769e-06,1.15042e-05
183,-9.75764e-06,2.99144e-06,3.19536e-05,3.99638e-05,-8.39816e-06,1.24892e-05
184,-4.52429e-06,-1.59601e-07,2.98626e-05,3.81787e-05,-9.48685e-06,1.3199e-05
185,-5.74675e-06,4.99024e-06,3.0329e-05,3.88117e-05,-8.96304e-06,1.20169e-05
186,-2.43709e-06,1.37856e-05,3.65104e-05,4.11429e-05,-7.01505e-06,1.01305e-05
187,2.56994e-06,1.80582e-05,4.09211e-05,3.86912e-05,-4.65053e-06,1.1756e-05
188,1.19576e-07,1.77563e-05,4.01235e-05,3.28708e-05,-2.88071e-06,1.43282e-05
189,-1.2886e-05,1.47158e-05,3.55168e-05,3.18224e-05,-3.44109e-06,1.29477e-05
190,-2.13632e-05,1.14954e-05,3.35727e-05,3.68934e-05,-7.59947e-06,8.67467e-06
191,-1.22999e-05,1.09145e-05,3.84098e-05,4.26858e-05,-1.4332e-05,5.63028e-06
192,4.29165e-06,1.21307e-05,4.45752e-05,4.64117e-05,-1.8714e-05,7.40926e-06
193,1.1848e-05,1.36299e-05,4.53452e-05,4.64307e-05,-1.80414e-05,1.317e-05
194,4.47996e-06,1.47278e-05,3.94645e-05,4.31355e-05,-1.60049e-05,1.83525e-05
195,-1.30271e-05,1.40298e-05,3.03807e-05,4.0445e-05,-1.45287e-05,1.88254e-05
196,-2.30647e-05,1.26115e-05,2.51921e-05,4.0587e-05,-1.28701e-05,1.53837e-05
197,-1.21339e-05,1.21413e-05,2.77e-05,4.25473e-05,-1.17255e-05,1.37851e-05
198,9.00205e-06,1.16151e-05,3.26621e-05,4.57168e-05,-1.06555e-05,1.68662e-05
199,1.95259e-05,1.14048e-05,3.43006e-05,4.87983e-05,-8.50384e-06,2.1511e-05
200,1.12168e-05,1.2156e-05,3.33642e-05,4.9806e-05,-6.70797e-06,2.25341e-05
201,-1.08205e-05,1.18037e-05,3.04344e-05,5.053e-05,-6.12601e-06,1.65187e-05
202,-2.79532e-05,9.38486e-06,2.7366e-05,5.40284e-05,-5.66413e-06,5.26317e-06
203,-2.26321e-05,7.23763e-06,2.99441e-05,5.8311e-05,-5.15743e-06,-5.66532e-06
204,-2.44692e-06,7.40712e-06,3.64789e-05,5.96076e-05,-7.15662e-06,-1.07395e-05
205,1.1501e-05,1.01323e-05,3.876e-05,5.73855e-05,-1.3382e-05,-6.61687e-06
206,8.61e-06,1.54194e-05,3.42993e-05,5.25718e-05,-1.8858e-05,3.87848e-06
207,-1.00385e-05,2.1431e-05,2.5318e-05,4.84688e-05,-1.62137e-05,1.14407e-05
208,-2.82487e-05,2.29269e-05,1.8424e-05,4.82562e-05,-6.6683e-06,9.99088e-06
209,-2.06654e-05,1.96229e-05,2.09783e-05,5.04856e-05,-1.27436e-06,9.55875e-06
210,1.71899e-06,1.78728e-05,2.63428e-05,5.22807e-05,-4.9964e-06,1.54302e-05
211,9.4755e-06,1.84268e-05,2.77285e-05,5.19141e-05,-9.33166e-06,1.49208e-05
212,7.59493e-06,1.75881e-05,3.09686e-05,5.16711e-05,-7.72095e-06,9.04836e-06
213,7.72497e-06,1.66406e-05,3.74696e-05,5.35921e-05,-3.0307e-06,1.05248e-05
214,7.84897e-06,1.91124e-05,4.24126e-05,5.2092e-05,-3.26037e-07,2.12105e-05
215,3.12827e-07,2.44761e-05,4.05273e-05,4.52601e-05,3.15324e-07,3.10423e-05
216,-1.73788e-05,2.6607e-05,3.1871e-05,4.13721e-05,5.64203e-07,2.98119e-05
217,-2.60922e-05,2.15944e-05,2.70355e-05,4.56287e-05,-2.25539e-06,1.99927e-05
218,-1.29384e-05,1.41225e-05,3.25406e-05,5.24595e-05,-8.14809e-06,1.22663e-05
219,4.84206e-06,9.16556e-06,4.06337e-05,5.44639e-05,-1.26504e-05,1.31128e-05
220,9.92425e-06,8.34774e-06,4.33623e-05,5.12799e-05,-1.30267e-05,1.893e-05
221,1.56475e-06,1.075e-05,4.11757e-05,4.8344e-05,-1.11079e-05,2.16713e-05
222,-1.33923e-05,1.26146e-05,3.73043e-05,5.04688e-05,-1.05462e-05,1.97514e-05
223,-1.98138e-05,1.17718e-05,3.57732e-05,5.72678e-05,-1.07813e-05,1.8968e-05
224,-8.47172e-06,1.02583e-05,3.86548e-05,6.33608e-05,-1.02475e-05,2.50945e-05
225,8.4577e-06,1.11846e-05,4.30206e-05,6.35412e-05,-9.61907e-06,3.56233e-05
226,1.41136e-05,1.39277e-05,4.43386e-05,5.82814e-05,-8.8189e-06,3.82973e-05
227,5.21013e-06,1.46276e-05,4.07278e-05,5.42603e-05,-6.86696e-06,2.61725e-05
228,-1.34224e-05,1.12306e-05,3.351e-05,5.65796e-05,-4.89955e-06,7.69059e-06
229,-2.79073e-05,6.33948e-06,3.02013e-05,6.24711e-05,-4.6141e-06,-3.27991e-06
230,-2.28881e-05,3.9119e-06,3.689e-05,6.72679e-05,-5.68323e-06,-1.04573e-06
231,-5.94767e-06,4.58194e-06,4.57203e-05,6.97025e-05,-6.48043e-06,7.3516e-06
232,3.56832e-06,8.42985e-06,4.63506e-05,6.89008e-05,-6.26554e-06,9.82688e-06
233,4.40114e-07,1.49458e-05,4.11999e-05,6.39451e-05,-6.61987e-06,6.2268e-06
234,-1.30441e-05,1.70611e-05,3.46492e-05,5.88183e-05,-9.18517e-06,6.01629e-06
235,-2.54257e-05,1.17329e-05,2.94946e-05,5.72288e-05,-9.68555e-06,1.2845e-05
236,-1.83357e-05,5.85169e-06,3.14889e-05,5.66613e-05,-5.02878e-06,2.05837e-05
237,-2.32549e-06,2.88065e-06,3.64974e-05,5.44073e-05,-9.98449e-07,2.07018e-05
238,1.7178e-06,1.46982e-06,3.77687e-05,5.26995e-05,3.47421e-07,1.51977e-05
239,-5.39539e-07,1.79333e-06,3.79797e-05,5.47799e-05,-3.04124e-07,1.2112e-05
240,-1.03359e-06,2.38829e-06,4.06078e-05,5.71563e-05,-4.0427e-06,1.33951e-05
241,-1.66995e-06,1.82065e-06,4.49258e-05,5.59971e-05,-7.00438e-06,1.50803e-05
242,-9.24119e-06,1.87769e-06,4.37758e-05,5.2525e-05,-6.36565e-06,1.28053e-05
243,-2.44683e-05,1.32751e-06,3.45797e-05,4.90197e-05,-4.89973e-06,7.76041e-06
244,-3.06172e-05,6.95009e-07,2.93159e-05,4.6894e-05,-4.51876e-06,5.92941e-06
245,-1.71375e-05,3.61262e-06,3.5505e-05,4.69468e-05,-5.01738e-06,9.42975e-06
246,2.36956e-06,7.91705e-06,4.33821e-05,4.77936e-05,-7.21368e-06,1.42242e-05
247,1.03419e-05,1.08038e-05,4.43622e-05,4.61656e-05,-1.04834e-05,1.77171e-05
248,1.97836e-06,1.25373e-05,3.94799e-05,4.4235e-05,-1.09215e-05,1.84197e-05
249,-1.57763e-05,1.1535e-05,3.07307e-05,4.57227e-05,-7.5644e-06,1.39416e-05
250,-2.5413e-05,7.08132e-06,2.46778e-05,4.96841e-05,-5.40114e-06,8.38905e-06
251,-1.80378e-05,2.64728e-06,2.85641e-05,5.27966e-05,-8.61727e-06,8.69991e-06
252,-5.24887e-06,1.18134e-06,3.70668e-05,5.27775e-05,-1.39275e-05,1.39024e-05
253,-1.58445e-07,1.87653e-06,4.00907e-05,4.91995e-05,-1.50509e-05,1.87617e-05
254,-4.78636e-06,2.67228e-06,3.71297e-05,4.42671e-05,-1.20093e-05,2.05753e-05
255,-1.79403e-05,2.53162e-06,3.20633e-05,4.30342e-05,-1.04605e-05,1.62835e-05
256,-2.92863e-05,2.13417e-06,2.88769e-05,4.83877e-05,-1.24027e-05,7.04591e-06
257,-2.29472e-05,2.89684e-06,3.23508e-05,5.60223e-05,-1.38991e-05,1.37127e-06
258,-5.0442e-06,5.18476e-06,4.02584e-05,5.96599e-05,-1.36943e-05,2.96206e-06
259,6.55536e-06,8.94732e-06,4.43633e-05,5.80433e-05,-1.32436e-05,6.43589e-06
260,8.461e-06,1.42595e-05,4.08316e-05,5.3027e-05,-1.28476e-05,7.65368e-06
261,-3.35925e-06,1.88058e-05,3.02352e-05,4.83222e-05,-1.18941e-05,7.2825e-06
262,-2.18643e-05,1.90753e-05,2.11591e-05,4.75874e-05,-8.13938e-06,9.51605e-06
263,-1.89167e-05,1.73636e-05,2.45859e-05,4.98071e-05,-4.02371e-06,1.78584e-05
264,-9.8502e-07,1.74837e-05,3.19611e-05,5.07885e-05,-6.43818e-06,2.27901e-05
265,5.64803e-06,1.90561e-05,3.31103e-05,4.98218e-05,-1.14118e-05,1.90915e-05
266,6.69845e-06,2.02048e-05,3.42621e-05,5.08699e-05,-9.33758e-06,1.80874e-05
267,1.03241e-05,2.00804e-05,3.74465e-05,5.50396e-05,-4.58542e-06,1.92569e-05
268,1.20901e-05,2.01567e-05,3.89707e-05,5.68539e-05,-4.10157e-06,1.49035e-05
269,6.46138e-06,2.04946e-05,3.52047e-05,5.27796e-05,-5.38976e-06,7.00533e-06
270,-8.47889e-06,1.91715e-05,2.69879e-05,4.80858e-05,-6.1498e-06,-3.55619e-07
271,-1.74704e-05,1.76168e-05,2.56198e-05,4.80737e-05,-7.52054e-06,-2.16621e-06
272,-8.23023e-06,1.7788e-05,3.51024e-05,5.02393e-05,-9.09546e-06,6.25812e-06
273,6.9894e-06,1.83426e-05,4.45274e-05,5.05993e-05,-9.3899e-06,2.22823e-05
274,1.30998e-05,1.83716e-05,4.71912e-05,4.91941e-05,-8.19972e-06,3.52014e-05
275,8.0742e-06,1.69477e-05,4.36423e-05,4.75946e-05,-6.033e-06,3.35144e-05
276,-3.79755e-06,1.31316e-05,3.47051e-05,4.72433e-05,-4.47192e-06,1.77517e-05
277,-1.22535e-05,1.01408e-05,2.84751e-05,4.84312e-05,-4.3686e-06,5.82166e-06
278,-8.97486e-06,1.13892e-05,3.34619e-05,4.86638e-05,-5.89315e-06,1.19034e-05
279,1.53383e-07,1.50955e-05,4.37458e-05,4.69688e-05,-8.19578e-06,2.80659e-05
280,4.63846e-06,1.84573e-05,4.80778e-05,4.36413e-05,-9.02462e-06,3.71253e-05
281,1.14553e-06,2.01879e-05,4.4224e-05,3.85047e-05,-8.01353e-06,3.22155e-05
282,-1.02063e-05,1.9717e-05,3.52268e-05,3.49337e-05,-7.80023e-06,1.77756e-05
283,-2.10659e-05,1.90992e-05,2.90484e-05,3.66049e-05,-9.70973e-06,4.35807e-06
284,-1.80311e-05,2.01046e-05,3.47843e-05,4.03589e-05,-1.24378e-05,2.30929e-06
285,-5.83564e-06,2.02075e-05,4.68761e-05,4.18212e-05,-1.33753e-05,1.18917e-05
286,-2.32493e-07,1.94248e-05,5.22639e-05,4.09581e-05,-1.08006e-05,2.21416e-05
287,-4.06589e-06,2.00132e-05,4.89033e-05,3.94244e-05,-6.39097e-06,2.3986e-05
288,-1.67375e-05,1.94195e-05,4.17046e-05,4.00121e-05,-4.27935e-06,1.6246e-05
289,-3.15782e-05,1.45777e-05,3.60558e-05,4.29874e-05,-7.77149e-06,5.58605e-06
290,-2.88233e-05,8.17121e-06,3.88342e-05,4.50846e-05,-1.25527e-05,3.71438e-06
291,-1.43343e-05,5.06531e-06,4.53541e-05,4.3853e-05,-1.2141e-05,1.01779e-05
292,-8.68627e-06,5.53515e-06,4.44609e-05,4.11922e-05,-7.87491e-06,1.59884e-05
293,-7.11248e-06,5.69788e-06,3.98005e-05,4.17314e-05,-5.7069e-06,1.9325e-05
294,-1.26151e-06,4.9377e-06,3.90052e-05,4.43112e-05,-7.62718e-06,2.17902e-05
295,4.60005e-06,7.31441e-06,4.36435e-05,4.44729e-05,-9.71757e-06,2.36437e-05
296,-1.23011e-06,1.26322e-05,4.60407e-05,4.1325e-05,-1.05363e-05,1.99665e-05
297,-2.06246e-05,1.52866e-05,3.93937e-05,3.93237e-05,-1.14229e-05,9.24231e-06
298,-3.28248e-05,1.42214e-05,3.35196e-05,4.2416e-05,-1.21978e-05,4.31764e-06
299,-2.43904e-05,1.36416e-05,3.62976e-05,4.9139e-05,-1.31945e-05,1.57309e-05
300,-7.76614e-06,1.41715e-05,4.24848e-05,5.55539e-05,-1.53604e-05,3.31975e-05
301,1.22541e-06,1.5108e-05,4.54972e-05,5.6617e-05,-1.72264e-05,3.59512e-05
302,-1.95263e-06,1.57605e-05,4.33444e-05,5.33468e-05,-1.71966e-05,1.94863e-05
303,-1.41293e-05,1.33492e-05,3.65541e-05,5.32434e-05,-1.64852e-05,2.43413e-07
304,-2.32801e-05,9.11666e-06,3.12037e-05,5.91404e-05,-1.56206e-05,-5.23049e-06
305,-1.76062e-05,8.36133e-06,3.39259e-05,6.48274e-05,-1.44894e-05,3.38527e-06
306,-2.1568e-06,1.14601e-05,4.14877e-05,6.49606e-05,-1.39348e-05,1.54541e-05
307,7.53986e-06,1.40668e-05,4.65477e-05,5.96102e-05,-1.52105e-05,2.30493e-05
308,4.41965e-06,1.5195e-05,4.59395e-05,5.28575e-05,-1.81919e-05,2.62019e-05
309,-8.69144e-06,1.62421e-05,3.8914e-05,4.9797e-05,-2.0348e-05,2.73107e-05
310,-1.97829e-05,1.59535e-05,3.22035e-05,5.10809e-05,-1.90231e-05,2.83078e-05
311,-1.43035e-05,1.49917e-05,3.49534e-05,5.35879e-05,-1.63633e-05,3.07708e-05
312,2.75543e-06,1.70379e-05,4.16226e-05,5.45489e-05,-1.56193e-05,3.14824e-05
313,1.26406e-05,2.12316e-05,4.26328e-05,5.24029e-05,-1.56126e-05,2.5639e-05
314,9.41624e-06,2.31256e-05,3.89519e-05,4.79664e-05,-1.43355e-05,1.60717e-05
315,-5.03212e-06,2.11156e-05,3.22307e-05,4.66905e-05,-1.22496e-05,9.34641e-06
316,-2.02147e-05,1.76003e-05,2.47659e-05,5.10708e-05,-1.06273e-05,7.37543e-06
317,-1.33279e-05,1.5506e-05,2.6641e-05,5.6401e-05,-8.62238e-06,1.03995e-05
318,7.98788e-06,1.57872e-05,3.5417e-05,5.78957e-05,-6.10731e-06,1.51281e-05
319,1.44537e-05,1.62049e-05,3.87439e-05,5.52532e-05,-4.10873e-06,1.58333e-05
320,7.81118e-06,1.45227e-05,4.00838e-05,5.28774e-05,-4.866e-06,1.39085e-05
321,4.83774e-06,1.25692e-05,4.38239e-05,5.52455e-05,-9.77756e-06,1.25198e-05
322,7.37658e-06,1.27723e-05,4.58078e-05,5.84944e-05,-1.42969e-05,1.10236e-05
323,2.69957e-06,1.44421e-05,4.25323e-05,5.61234e-05,-1.35347e-05,8.46604e-06
324,-1.5814e-05,1.29128e-05,3.52628e-05,5.28581e-05,-7.96989e-06,4.72626e-06
325,-2.86234e-05,7.23591e-06,3.11053e-05,5.36684e-05,-3.25048e-06,2.04991e-06
326,-1.94124e-05,2.73343e-06,3.40385e-05,5.46483e-05,-3.89351e-06,2.94756e-06
327,1.57195e-07,2.18986e-06,4.09448e-05,5.34329e-05,-7.0033e-06,5.61169e-06
328,1.25405e-05,5.72706e-06,4.55735e-05,5.10885e-05,-7.99714e-06,7.16612e-06
329,9.32441e-06,1.20359e-05,4.34995e-05,5.04618e-05,-8.93875e-06,7.96218e-06
330,-6.10478e-06,1.73031e-05,3.44319e-05,5.29944e-05,-1.31778e-05,8.92461e-06
331,-1.79976e-05,1.75254e-05,2.73788e-05,5.68899e-05,-1.78072e-05,1.06771e-05
332,-1.55259e-05,1.27519e-05,3.15718e-05,5.93026e-05,-1.93944e-05,1.34749e-05
333,-5.60474e-06,6.42775e-06,4.15388e-05,6.00945e-05,-1.80953e-05,1.60208e-05
334,1.8534e-08,2.91593e-06,4.52212e-05,5.97946e-05,-1.57309e-05,1.77437e-05
335,-3.14961e-06,4.64011e-06,3.9435e-05,5.73636e-05,-1.39315e-05,1.83036e-05
336,-1.54353e-05,8.55554e-06,2.98873e-05,5.45758e-05,-1.41792e-05,1.43804e-05
337,-2.64234e-05,1.033e-05,2.59485e-05,5.45799e-05,-1.70337e-05,8.31238e-06
338,-1.9979e-05,9.58675e-06,3.21599e-05,5.50863e-05,-1.93686e-05,9.22538e-06
339,-1.79226e-06,6.95251e-06,3.95031e-05,5.24306e-05,-1.77409e-05,1.74137e-05
340,6.83026e-06,3.82203e-06,3.99807e-05,4.77085e-05,-1.26738e-05,2.38618e-05
341,-1.65071e-06,3.84248e-06,3.76248e-05,4.2737e-05,-7.63072e-06,2.24196e-05
342,-2.32244e-05,6.47228e-06,3.40787e-05,3.97186e-05,-6.21384e-06,1.26828e-05
343,-4.29287e-05,7.88651e-06,2.93783e-05,4.21874e-05,-7.18269e-06,2.33422e-06
344,-3.66511e-05,6.03816e-06,2.97841e-05,4.91927e-05,-6.43388e-06,2.50877e-06
345,-1.39648e-05,3.45734e-06,3.35185e-05,5.3798e-05,-3.93227e-06,1.15241e-05
346,-5.16884e-06,3.79689e-06,3.58861e-05,5.23773e-05,-3.36422e-06,1.8173e-05
347,-7.74494e-06,4.82199e-06,3.99829e-05,4.9886e-05,-5.29694e-06,1.65253e-05
348,-8.27288e-06,5.32756e-06,4.35793e-05,5.14818e-05,-6.96705e-06,1.11097e-05
349,-5.37026e-06,7.82772e-06,4.21312e-05,5.47022e-05,-7.49132e-06,9.81861e-06
350,-6.16491e-06,9.88026e-06,3.61549e-05,5.65958e-05,-7.88425e-06,1.29153e-05
351,-1.56457e-05,7.16075e-06,2.9424e-05,5.87215e-05,-8.10705e-06,1.62227e-05
352,-1.90804e-05,2.41304e-06,2.84499e-05,5.99463e-05,-8.61429e-06,1.78008e-05
353,-4.90528e-06,8.32091e-07,3.40845e-05,5.80306e-05,-1.03042e-05,1.60637e-05
354,1.32689e-05,3.5906e-06,4.0694e-05,5.49931e-05,-1.11303e-05,1.02641e-05
355,1.84724e-05,1.00946e-05,4.40687e-05,5.29746e-05,-1.13731e-05,5.89951e-06
356,7.48399e-06,1.74785e-05,4.29355e-05,5.25146e-05,-1.25958e-05,6.23386e-06
357,-1.18763e-05,1.99981e-05,3.72718e-05,5.36045e-05,-1.24159e-05,7.00261e-06
358,-2.25768e-05,1.55747e-05,3.27024e-05,5.58435e-05,-9.31007e-06,7.24614e-06
359,-1.49309e-05,9.14534e-06,3.45789e-05,5.82993e-05,-6.80182e-06,9.90167e-06
360,5.2123e-07,5.92985e-06,3.90718e-05,5.98126e-05,-7.69857e-06,1.37957e-05
361,7.93775e-06,6.95813e-06,4.04867e-05,5.87747e-05,-9.59894e-06,1.52742e-05
362,2.46506e-06,1.09403e-05,3.78203e-05,5.53947e-05,-8.81682e-06,1.47685e-05
363,-1.24295e-05,1.43762e-05,3.22067e-05,5.30679e-05,-5.98878e-06,1.44368e-05
364,-2.36588e-05,1.51524e-05,2.85774e-05,5.33435e-05,-4.9016e-06,1.54946e-05
365,-1.71455e-05,1.60512e-05,3.33349e-05,5.47507e-05,-6.6245e-06,1.7926e-05
366,-8.36916e-07,1.76305e-05,4.11119e-05,5.5388e-05,-9.07523e-06,1.95872e-05
367,5.54965e-06,1.81662e-05,4.13367e-05,5.23488e-05,-1.06751e-05,1.81847e-05
368,-7.18423e-07,1.95169e-05,3.49398e-05,4.68254e-05,-1.17721e-05,1.34571e-05
369,-1.52465e-05,2.12135e-05,2.80447e-05,4.54892e-05,-1.24342e-05,4.56822e-06
370,-2.96127e-05,1.84203e-05,2.28434e-05,4.98947e-05,-1.07439e-05,-3.0269e-06
371,-2.36071e-05,1.22388e-05,2.16372e-05,5.36378e-05,-5.7484e-06,2.82776e-06
372,-4.26953e-06,8.53141e-06,2.50074e-05,5.13357e-05,-1.1083e-06,1.526e-05
373,3.97712e-06,8.01784e-06,3.0112e-05,4.5722e-05,-2.25954e-07,1.64224e-05
374,4.24932e-06,7.84811e-06,3.55854e-05,4.40839e-05,-1.44746e-06,8.94241e-06
375,5.53176e-06,6.32026e-06,3.89248e-05,4.68294e-05,-2.61165e-06,3.63506e-06
376,8.40344e-06,5.48167e-06,3.90452e-05,4.72432e-05,-4.99572e-06,4.21803e-06
377,7.61372e-06,5.30118e-06,3.56078e-05,4.45089e-05,-8.56724e-06,1.02154e-05
378,-5.12075e-06,2.8223e-06,2.76825e-05,4.37152e-05,-9.824e-06,1.69628e-05
379,-1.67473e-05,1.57323e-06,2.2828e-05,4.51072e-05,-7.74072e-06,2.24669e-05
380,-9.23222e-06,4.46649e-06,2.66383e-05,4.55851e-05,-5.81709e-06,3.07909e-05
381,8.17525e-06,7.61657e-06,3.37175e-05,4.38564e-05,-7.10646e-06,3.96821e-05
382,1.72433e-05,9.15642e-06,3.66229e-05,3.93064e-05,-9.26671e-06,3.76357e-05
383,1.21612e-05,1.00158e-05,3.27976e-05,3.40599e-05,-8.86016e-06,2.34577e-05
384,-2.03903e-06,9.19959e-06,2.42864e-05,3.26321e-05,-5.98029e-06,1.06513e-05
385,-1.00529e-05,6.89032e-06,1.82769e-05,3.73845e-05,-2.37662e-06,9.96893e-06
386,-3.36052e-06,5.59949e-06,2.09859e-05,4.51213e-05,-7.49664e-08,1.75903e-05
387,7.32003e-06,5.8207e-06,2.89349e-05,5.00218e-05,-2.93713e-07,2.19001e-05
388,9.24523e-06,5.9926e-06,3.51524e-05,4.90295e-05,-1.65929e-06,1.65448e-05
389,5.15108e-07,5.87417e-06,3.60231e-05,4.44649e-05,-2.29993e-06,3.86514e-06
390,-1.5744e-05,5.66673e-06,3.18746e-05,4.33904e-05,-3.52868e-06,-6.77976e-06
391,-2.76981e-05,4.59266e-06,2.94877e-05,4.86747e-05,-4.96921e-06,-5.65176e-06
392,-2.18167e-05,2.55882e-06,3.57e-05,5.30589e-05,-3.70255e-06,4.41807e-06
393,-4.96225e-06,1.07185e-06,4.58614e-05,5.1499e-05,-5.82511e-07,1.19547e-05
394,4.7672e-06,2.48853e-06,5.0949e-05,4.73763e-05,-1.81707e-06,1.28592e-05
395,-5.71524e-07,6.93538e-06,4.82218e-05,4.39167e-05,-1.03423e-05,9.54339e-06
396,-2.00021e-05,1.04323e-05,4.07849e-05,4.3423e-05,-1.76008e-05,7.04122e-06
397,-3.90566e-05,9.86308e-06,3.5352e-05,4.64597e-05,-1.54472e-05,1.30212e-05
398,-3.21122e-05,7.55291e-06,3.72245e-05,5.0392e-05,-7.46816e-06,2.50489e-05
399,-9.73508e-06,7.07788e-06,4.04913e-05,5.27584e-05,-3.77383e-06,2.78092e-05
400,-2.63234e-06,8.11093e-06,3.79451e-05,5.44018e-05,-6.70577e-06,1.69976e-05
401,-4.97928e-06,6.27854e-06,3.55706e-05,5.56586e-05,-8.15067e-06,6.314e-06
402,-4.3703e-06,1.53383e-06,3.90738e-05,5.5232e-05,-7.67757e-06,6.14642e-06
403,-2.62319e-06,7.85247e-07,4.31653e-05,5.39469e-05,-6.64539e-06,1.38736e-05
404,-7.78327e-06,6.92706e-06,3.96643e-05,5.30003e-05,-3.71573e-06,2.13968e-05
405,-2.3448e-05,1.38141e-05,3.114e-05,5.43457e-05,-2.41343e-06,2.21097e-05
406,-3.14474e-05,1.53351e-05,3.00515e-05,5.78056e-05,-3.99099e-06,1.72451e-05
407,-1.91897e-05,1.26309e-05,3.7946e-05,6.04382e-05,-7.55093e-06,1.57367e-05
408,-2.61015e-06,9.68945e-06,4.3873e-05,5.89773e-05,-1.08059e-05,2.07864e-05
409,1.23355e-06,1.03758e-05,4.34966e-05,5.33264e-05,-1.12e-05,2.62224e-05
410,-6.40401e-06,1.38181e-05,3.88422e-05,4.87008e-05,-8.51415e-06,2.73496e-05
411,-1.88167e-05,1.4856e-05,3.16349e-05,4.956e-05,-5.60103e-06,2.46996e-05
412,-2.55228e-05,1.44749e-05,2.7905e-05,5.42027e-05,-5.00644e-06,2.20349e-05
413,-1.8163e-05,1.66407e-05,3.2055e-05,5.58339e-05,-6.84625e-06,2.25029e-05
414,-3.7089e-06,1.92413e-05,3.82878e-05,5.19275e-05,-9.41991e-06,2.35347e-05
415,3.46315e-06,1.88087e-05,3.9349e-05,4.63586e-05,-1.05736e-05,1.97478e-05
416,-1.46508e-06,1.72161e-05,3.59062e-05,4.25066e-05,-9.98103e-06,1.14731e-05
417,-1.47368e-05,1.69409e-05,3.12446e-05,4.21247e-05,-9.07034e-06,3.43685e-06
418,-2.42722e-05,1.7257e-05,2.8966e-05,4.6734e-05,-8.6202e-06,5.38286e-07
419,-1.71293e-05,1.8744e-05,3.41134e-05,5.45084e-05,-9.35339e-06,9.52454e-06
420,6.32799e-07,2.10186e-05,4.26069e-05,6.15954e-05,-1.25265e-05,3.01659e-05
421,1.13807e-05,2.07136e-05,4.40989e-05,6.27431e-05,-1.48307e-05,4.41159e-05
422,8.14288e-06,1.79974e-05,3.863e-05,5.67227e-05,-1.19805e-05,3.34323e-05
423,-6.44711e-06,1.6601e-05,3.21194e-05,5.18691e-05,-7.62438e-06,7.85882e-06
424,-1.88978e-05,1.66264e-05,2.94935e-05,5.3032e-05,-6.21261e-06,-7.20768e-06
425,-1.03814e-05,1.67378e-05,3.40179e-05,5.77172e-05,-4.78883e-06,2.12378e-06
426,6.63453e-06,1.87319e-05,3.92776e-05,6.28469e-05,-2.77993e-06,2.18923e-05
427,1.18685e-05,2.03709e-05,3.94547e-05,6.33721e-05,-2.47671e-06,2.75459e-05
428,1.10519e-05,1.72207e-05,3.86356e-05,5.82323e-05,-4.43489e-06,2.02234e-05
429,1.14718e-05,1.25751e-05,3.71921e-05,5.22369e-05,-9.29138e-06,1.42334e-05
430,1.11883e-05,1.15689e-05,3.34578e-05,4.79442e-05,-1.23914e-05,1.53939e-05
431,1.56281e-06,1.36423e-05,3.04975e-05,4.5718e-05,-8.63404e-06,1.86159e-05
432,-1.82084e-05,1.449e-05,2.91995e-05,4.72751e-05,-2.15815e-06,1.64731e-05
433,-2.96366e-05,1.25441e-05,2.99117e-05,5.16837e-05,-4.59484e-07,1.3122e-05
434,-2.0656e-05,1.11965e-05,3.399e-05,5.43674e-05,-6.48325e-06,1.51982e-05
435,-3.70494e-06,1.23639e-05,3.79116e-05,5.33692e-05,-1.59153e-05,1.9876e-05
436,5.31437e-06,1.61097e-05,3.77446e-05,4.97158e-05,-1.95031e-05,2.51871e-05
437,1.42237e-06,2.10613e-05,3.30686e-05,4.69544e-05,-1.45967e-05,3.32128e-05
438,-1.1007e-05,2.35504e-05,2.55118e-05,4.74397e-05,-8.7395e-06,3.32072e-05
439,-1.69633e-05,2.19074e-05,2.25797e-05,5.02414e-05,-7.63283e-06,1.66113e-05
440,-6.73042e-06,1.78612e-05,2.95439e-05,5.30958e-05,-9.93556e-06,-1.72586e-06
441,9.48304e-06,1.39092e-05,3.90836e-05,5.54607e-05,-1.32884e-05,-4.44675e-06
442,1.45616e-05,1.19315e-05,4.13285e-05,5.7432e-05,-1.63362e-05,5.40152e-06
443,4.57173e-06,1.18064e-05,3.64146e-05,5.73513e-05,-1.65936e-05,1.47374e-05
444,-1.30221e-05,1.09864e-05,2.98247e-05,5.60329e-05,-1.41726e-05,1.76973e-05
445,-2.43831e-05,9.03205e-06,2.70241e-05,5.69987e-05,-1.15866e-05,1.55143e-05
446,-1.8216e-05,9.26331e-06,3.18388e-05,6.00417e-05,-9.53139e-06,1.12643e-05
447,-2.46033e-06,1.30736e-05,3.98318e-05,5.97825e-05,-9.11742e-06,8.29439e-06
448,6.35089e-06,1.67884e-05,4.17721e-05,5.41988e-05,-1.03364e-05,8.26473e-06
449,3.85202e-06,1.51855e-05,3.67832e-05,4.77128e-05,-9.11746e-06,8.92383e-06
450,-1.05084e-05,8.20421e-06,3.02728e-05,4.51506e-05,-4.50366e-06,7.79354e-06
451,-2.72913e-05,3.4869e-07,2.74917e-05,4.74482e-05,-1.38252e-06,6.55061e-06
452,-2.25106e-05,-3.79834e-06,3.17049e-05,5.28071e-05,-3.69648e-06,7.8185e-06
453,-1.90293e-06,-1.21309e-06,3.49853e-05,5.74728e-05,-9.7092e-06,9.51553e-06
454,7.27421e-06,5.92158e-06,3.16954e-05,5.84807e-05,-1.61734e-05,1.11721e-05
455,5.58618e-06,1.14361e-05,3.216e-05,5.88294e-05,-1.97666e-05,1.60828e-05
456,5.05359e-06,1.17717e-05,4.0709e-05,6.21115e-05,-1.89848e-05,2.22789e-05
457,6.69216e-06,1.13147e-05,4.8762e-05,6.56552e-05,-1.82591e-05,2.47317e-05
458,2.32862e-06,1.47162e-05,4.79623e-05,6.46208e-05,-1.88104e-05,2.27756e-05
459,-1.31451e-05,1.72603e-05,3.8562e-05,5.97505e-05,-1.866e-05,1.76386e-05
460,-2.21643e-05,1.54534e-05,3.18862e-05,5.5675e-05,-1.67352e-05,1.08986e-05
461,-1.15654e-05,1.28954e-05,3.44965e-05,5.35466e-05,-1.22381e-05,8.04496e-06
462,2.89382e-06,1.24094e-05,4.08513e-05,5.17521e-05,-7.18667e-06,1.07951e-05
463,5.92355e-06,1.55632e-05,4.6026e-05,4.98716e-05,-5.69945e-06,1.32912e-05
464,-1.75206e-06,2.09195e-05,4.72618e-05,4.88265e-05,-8.8362e-06,1.06605e-05
465,-1.42795e-05,2.28058e-05,4.2132e-05,4.98485e-05,-1.29584e-05,2.6936e-06
466,-2.05745e-05,1.95262e-05,3.75305e-05,5.25024e-05,-1.47912e-05,-4.96961e-06
467,-1.25179e-05,1.44439e-05,4.1368e-05,5.4169e-05,-1.44465e-05,-5.54141e-06
468,2.66078e-06,1.1299e-05,4.78944e-05,5.37029e-05,-1.41082e-05,3.87299e-07
469,1.12443e-05,1.17983e-05,4.83481e-05,5.03557e-05,-1.39044e-05,7.25025e-06
470,6.29557e-06,1.29709e-05,4.33297e-05,4.34595e-05,-1.18697e-05,1.21593e-05
471,-1.06847e-05,1.06718e-05,3.63947e-05,3.64671e-05,-8.95529e-06,1.28168e-05
472,-2.45903e-05,5.67606e-06,3.1841e-05,3.52644e-05,-6.29135e-06,9.29573e-06
473,-1.94506e-05,1.71149e-06,3.56835e-05,3.93346e-05,-1.37359e-06,9.51118e-06
474,-3.1319e-06,1.08348e-06,4.45087e-05,4.34179e-05,3.07237e-06,1.73204e-05
475,5.85802e-06,4.99769e-06,4.7494e-05,4.35534e-05,1.1079e-06,2.47042e-05
476,2.21017e-06,1.17115e-05,4.14926e-05,3.86479e-05,-4.04552e-06,2.37561e-05
477,-1.29509e-05,1.54149e-05,3.0623e-05,3.48845e-05,-6.62429e-06,1.37475e-05
478,-2.87107e-05,1.31695e-05,2.44999e-05,3.64152e-05,-6.28147e-06,2.73508e-06
479,-2.2467e-05,1.04276e-05,3.23188e-05,3.75662e-05,-3.1203e-06,2.61608e-06
480,-1.92649e-06,9.84781e-06,4.16469e-05,3.45914e-05,7.20883e-07,1.28826e-05
481,6.71425e-06,8.99827e-06,3.99769e-05,3.21009e-05,1.99452e-07,2.21309e-05
482,5.39045e-06,9.09026e-06,3.64317e-05,3.47088e-05,-5.44735e-06,2.55008e-05
483,3.93254e-06,1.08748e-05,3.75934e-05,3.96171e-05,-1.06197e-05,2.64001e-05
484,4.5518e-06,1.45782e-05,4.13117e-05,4.06554e-05,-1.09779e-05,2.72324e-05
485,1.0909e-06,1.94952e-05,4.04482e-05,3.85155e-05,-6.99588e-06,2.84881e-05
486,-1.25203e-05,2.19682e-05,3.40441e-05,4.1306e-05,-2.92425e-06,2.49947e-05
487,-2.04029e-05,2.09782e-05,3.18389e-05,5.0326e-05,-2.68845e-06,1.49629e-05
488,-1.08252e-05,2.02319e-05,3.70508e-05,5.77267e-05,-5.81833e-06,9.6412e-06
489,2.62101e-06,1.97546e-05,4.37934e-05,5.81292e-05,-1.16483e-05,1.47674e-05
490,6.71723e-06,1.78579e-05,4.6749e-05,5.35235e-05,-1.71636e-05,2.18771e-05
491,7.17452e-07,1.57515e-05,4.36943e-05,4.95929e-05,-1.93151e-05,2.15932e-05
492,-1.21894e-05,1.25094e-05,3.46493e-05,4.94858e-05,-1.94668e-05,1.43818e-05
493,-2.07969e-05,7.94842e-06,2.65887e-05,5.33904e-05,-1.95379e-05,7.58674e-06
494,-1.44018e-05,5.49645e-06,2.68355e-05,5.83775e-05,-1.93942e-05,6.31092e-06
495,5.62209e-08,8.44345e-06,3.32742e-05,6.08641e-05,-1.9475e-05,9.14169e-06
496,8.0591e-06,1.53077e-05,3.94152e-05,5.8582e-05,-2.12923e-05,1.22306e-05
497,4.82236e-06,2.03506e-05,4.08434e-05,5.36434e-05,-2.30345e-05,1.33726e-05
498,-7.77571e-06,1.8783e-05,3.58694e-05,5.18545e-05,-2.20438e-05,1.12399e-05
499,-1.85575e-05,1.30197e-05,3.05504e-05,5.3292e-05,-1.8632e-05,6.85681e-06
500,-1.07606e-05,9.67239e-06,3.37755e-05,5.30207e-05,-1.46271e-05,4.62569e-06
501,9.74678e-06,1.09882e-05,4.25608e-05,5.09533e-05,-1.13763e-05,7.11618e-06
502,1.94217e-05,1.41086e-05,4.69258e-05,5.00648e-05,-8.58924e-06,1.24649e-05
503,9.82739e-06,1.52444e-05,4.27375e-05,5.0507e-05,-6.57753e-06,1.59446e-05
504,-1.14549e-05,1.31052e-05,3.2977e-05,5.24662e-05,-7.71505e-06,1.21495e-05
505,-2.65951e-05,9.87533e-06,2.78076e-05,5.64777e-05,-1.07682e-05,4.83289e-06
506,-1.53976e-05,8.9589e-06,3.52839e-05,5.88248e-05,-1.11169e-05,4.37102e-06
507,7.42257e-06,9.43998e-06,4.54527e-05,5.62384e-05,-7.33325e-06,1.03544e-05
508,1.33828e-05,9.49984e-06,4.65625e-05,5.3888e-05,-2.45999e-06,1.76216e-05
509,8.80677e-06,1.14777e-05,4.48301e-05,5.48064e-05,-1.40124e-06,2.29479e-05
510,6.4961e-06,1.39425e-05,4.7165e-05,5.52907e-05,-3.69751e-06,2.3851e-05
511,5.60293e-06,1.37248e-05,5.0384e-05,5.32113e-05,-4.44285e-06,2.53766e-05
512,-1.21825e-06,1.18968e-05,4.78492e-05,4.90592e-05,-4.93024e-06,2.889e-05
513,-1.93562e-05,1.04932e-05,3.8363e-05,4.76023e-05,-7.19895e-06,3.06291e-05
514,-3.36117e-05,1.22179e-05,3.04514e-05,5.25785e-05,-9.15366e-06,3.02859e-05
515,-2.66341e-05,1.68369e-05,3.01798e-05,5.9333e-05,-1.08064e-05,2.75629e-05
516,-8.43654e-06,2.04588e-05,3.38127e-05,6.11942e-05,-1.14966e-05,2.28183e-05
517,1.13526e-06,2.2162e-05,3.53789e-05,5.66067e-05,-9.00469e-06,2.01632e-05
518,-4.99208e-06,2.2567e-05,3.29541e-05,5.05004e-05,-4.88209e-06,2.10137e-05
519,-2.33266e-05,2.00685e-05,2.79254e-05,4.82703e-05,-2.44895e-06,1.89083e-05
520,-3.77222e-05,1.52328e-05,2.67259e-05,5.04577e-05,-2.76259e-06,8.63664e-06
521,-3.38336e-05,1.05098e-05,3.34805e-05,5.46255e-05,-4.7471e-06,-5.49518e-06
522,-1.80591e-05,7.7783e-06,4.24266e-05,5.65451e-05,-6.14844e-06,-1.27176e-05
523,-7.18466e-06,9.148e-06,4.64343e-05,5.27233e-05,-5.89973e-06,-7.23747e-06
524,-9.47481e-06,1.35866e-05,4.36074e-05,4.52232e-05,-5.71968e-06,4.6907e-06
525,-2.31168e-05,1.49479e-05,3.51974e-05,4.02059e-05,-6.15386e-06,1.05101e-05
526,-3.44254e-05,1.05444e-05,2.887e-05,4.10426e-05,-6.0642e-06,6.75895e-06
527,-2.71301e-05,6.92247e-06,3.38261e-05,4.56895e-05,-6.20886e-06,3.46322e-06
528,-7.72435e-06,9.76549e-06,4.56529e-05,5.10794e-05,-7.07705e-06,7.80802e-06
529,2.97889e-06,1.63625e-05,5.14175e-05,5.53998e-05,-7.60082e-06,1.62872e-05
530,-1.90457e-06,2.06847e-05,4.66898e-05,5.57792e-05,-7.96125e-06,2.29476e-05
531,-1.77762e-05,1.90942e-05,3.57289e-05,5.32716e-05,-9.05921e-06,2.07168e-05
532,-3.06332e-05,1.38707e-05,2.75317e-05,5.40081e-05,-1.03521e-05,1.09407e-05
533,-2.1392e-05,1.00807e-05,3.07828e-05,5.65057e-05,-1.134e-05,4.81161e-06
534,-1.53003e-06,9.59363e-06,3.80475e-05,5.51415e-05,-1.1755e-05,6.47712e-06
535,6.03075e-06,1.10129e-05,4.09566e-05,5.19221e-05,-1.17448e-05,9.44946e-06
536,6.12736e-06,1.26207e-05,4.30656e-05,5.05826e-05,-1.07596e-05,8.45819e-06
537,8.06675e-06,1.2452e-05,4.36484e-05,5.04268e-05,-9.50812e-06,8.19919e-06
538,9.43512e-06,1.07477e-05,4.23062e-05,4.87224e-05,-1.08967e-05,1.26623e-05
539,2.33236e-06,1.13465e-05,3.88626e-05,4.58136e-05,-1.26863e-05,1.6579e-05
540,-1.47707e-05,1.28283e-05,3.10336e-05,4.50648e-05,-1.10153e-05,1.30172e-05
541,-2.60625e-05,1.44293e-05,2.59715e-05,4.73148e-05,-8.19147e-06,7.37853e-06
542,-1.71638e-05,1.7985e-05,3.15839e-05,5.19226e-05,-9.0418e-06,8.70326e-06
543,8.40254e-07,1.97625e-05,4.3249e-05,5.72131e-05,-1.26499e-05,1.34856e-05
544,9.04799e-06,1.789e-05,5.1034e-05,5.80792e-05,-1.30801e-05,1.61599e-05
545,2.84026e-06,1.4569e-05,4.90534e-05,5.43176e-05,-7.8733e-06,1.53314e-05
546,-1.26668e-05,1.13916e-05,3.84452e-05,5.18177e-05,-1.4997e-06,1.02888e-05
547,-2.21686e-05,9.03625e-06,2.9675e-05,5.31715e-05,-6.08126e-07,5.38478e-06
548,-1.35358e-05,7.61724e-06,3.12785e-05,5.60682e-05,-5.79307e-06,6.25122e-06
549,5.09502e-06,6.82792e-06,3.78867e-05,5.85286e-05,-1.13039e-05,1.16631e-05
550,1.61284e-05,7.22502e-06,3.97971e-05,6.03336e-05,-1.21628e-05,1.9269e-05
551,1.20748e-05,7.94303e-06,3.49787e-05,6.05119e-05,-8.78734e-06,2.85748e-05
552,-3.25469e-06,5.80887e-06,2.58849e-05,5.94262e-05,-4.39307e-06,3.23374e-05
553,-1.48035e-05,1.80666e-06,1.9469e-05,5.94279e-05,-8.94432e-07,2.16327e-05
554,-8.92189e-06,-3.11595e-07,2.25361e-05,6.01449e-05,1.87198e-06,2.43092e-06
555,5.05274e-06,-1.2959e-06,3.07323e-05,5.93164e-05,2.70387e-06,-7.75505e-06
556,8.22865e-06,-3.26316e-06,3.58304e-05,5.59669e-05,-1.19884e-06,-1.52088e-06
557,-1.97509e-06,-4.70899e-06,3.5845e-05,5.00614e-05,-6.34589e-06,1.08567e-05
558,-2.04233e-05,-3.59097e-06,3.10745e-05,4.61822e-05,-6.66195e-06,1.71302e-05
559,-3.72084e-05,-1.88422e-06,2.62889e-05,4.81014e-05,-3.22799e-06,1.6273e-05
560,-3.09952e-05,-1.24277e-06,2.94162e-05,5.262e-05,-2.2808e-06,1.5996e-05
561,-8.28818e-06,5.05637e-07,3.4766e-05,5.48038e-05,-5.17391e-06,2.08663e-05
562,5.57577e-06,3.55848e-06,3.45215e-05,5.31076e-05,-6.73806e-06,2.64128e-05
563,1.02602e-05,6.27078e-06,3.39128e-05,5.17083e-05,-7.39545e-06,2.8559e-05
564,1.26789e-05,7.58956e-06,3.44524e-05,5.28295e-05,-9.33133e-06,2.64439e-05
565,1.35235e-05,8.17257e-06,3.37714e-05,5.28922e-05,-9.61668e-06,2.18233e-05
566,6.32764e-06,8.25384e-06,3.24453e-05,5.0297e-05,-8.40889e-06,1.84484e-05
567,-1.32432e-05,6.31229e-06,2.92751e-05,4.98796e-05,-7.80849e-06,1.47217e-05
568,-2.58379e-05,3.62848e-06,2.81923e-05,5.39148e-05,-7.13488e-06,1.12007e-05
569,-1.48385e-05,2.84225e-07,3.36943e-05,5.90977e-05,-6.54001e-06,1.17372e-05
570,5.11707e-06,-4.36654e-06,3.92059e-05,6.27709e-05,-8.17288e-06,1.39484e-05
571,1.38565e-05,-3.61105e-06,4.02111e-05,6.17217e-05,-1.16845e-05,1.53575e-05
572,6.99076e-06,6.83503e-06,3.95356e-05,5.56823e-05,-1.46063e-05,1.63026e-05
573,-9.21156e-06,1.74983e-05,3.54537e-05,5.05977e-05,-1.48999e-05,1.59561e-05
574,-1.83322e-05,1.99591e-05,3.00264e-05,5.16065e-05,-1.30147e-05,1.48136e-05
575,-9.26851e-06,1.75229e-05,3.14171e-05,5.58311e-05,-1.26805e-05,1.48108e-05
576,7.56851e-06,1.62831e-05,3.83873e-05,5.81787e-05,-1.63576e-05,1.53844e-05
577,1.35762e-05,1.68891e-05,4.24004e-05,5.62376e-05,-2.10423e-05,1.49708e-05
578,2.40922e-06,1.57396e-05,3.99217e-05,5.01144e-05,-2.08861e-05,1.38653e-05
579,-1.74609e-05,1.2253e-05,3.2773e-05,4.45342e-05,-1.52379e-05,1.263e-05
580,-2.74941e-05,9.74065e-06,2.78258e-05,4.39905e-05,-1.01391e-05,1.29084e-05
581,-1.60716e-05,9.90891e-06,3.23372e-05,4.54616e-05,-9.55192e-06,1.68079e-05
582,1.80996e-06,1.19572e-05,4.18583e-05,4.44459e-05,-1.1641e-05,2.24864e-05
583,4.38959e-06,1.48803e-05,4.65901e-05,4.14007e-05,-1.45889e-05,2.80336e-05
584,-6.7117e-06,1.67982e-05,4.4767e-05,3.73549e-05,-1.70273e-05,3.32473e-05
585,-2.37517e-05,1.58074e-05,3.74268e-05,3.53785e-05,-1.70386e-05,3.02128e-05
586,-3.84779e-05,1.14026e-05,2.9179e-05,3.77118e-05,-1.46141e-05,1.52807e-05
587,-3.09294e-05,8.6123e-06,3.1358e-05,3.91038e-05,-1.23293e-05,3.08912e-06
588,-7.38808e-06,1.47462e-05,4.02634e-05,3.60972e-05,-1.2718e-05,9.26093e-06
589,5.3628e-06,2.36449e-05,4.29353e-05,3.41432e-05,-1.33486e-05,3.00002e-05
590,6.93029e-06,2.52723e-05,4.17597e-05,3.64651e-05,-1.11994e-05,4.28801e-05
591,7.31287e-06,2.1563e-05,4.24367e-05,3.92908e-05,-6.47827e-06,3.35744e-05
592,7.63105e-06,1.82903e-05,4.4321e-05,3.97683e-05,-3.06428e-06,1.22098e-05
593,2.0129e-06,1.96094e-05,4.20054e-05,3.86508e-05,-5.44189e-06,-1.77547e-06
594,-1.48825e-05,2.1373e-05,3.41674e-05,4.00578e-05,-1.00574e-05,5.94923e-07
595,-2.71883e-05,1.78067e-05,2.94455e-05,4.51416e-05,-1.12315e-05,1.73714e-05
596,-1.88782e-05,1.16787e-05,3.16786e-05,4.89579e-05,-9.48764e-06,3.78835e-05
597,-8.49802e-07,7.27727e-06,3.62569e-05,4.78331e-05,-8.40497e-06,4.45381e-05
598,9.05217e-06,7.511e-06,3.90763e-05,4.19863e-05,-1.02468e-05,3.27559e-05
599,3.66252e-06,1.19124e-05,3.92088e-05,3.653e-05,-1.51552e-05,1.44643e-05
600,-1.33798e-05,1.62619e-05,3.63185e-05,3.72422e-05,-1.88728e-05,3.08344e-06
601,-2.52306e-05,1.85941e-05,3.54647e-05,4.32623e-05,-1.57254e-05,5.72031e-06
602,-1.83383e-05,2.08791e-05,4.21392e-05,4.86356e-05,-7.60411e-06,1.7272e-05
603,-2.91301e-06,2.25349e-05,5.10715e-05,5.05728e-05,-2.59171e-06,2.13105e-05
604,2.32328e-06,2.18309e-05,5.36923e-05,4.98225e-05,-5.7609e-06,7.85376e-06
605,-7.54666e-06,2.04749e-05,4.78441e-05,4.74827e-05,-1.40915e-05,-1.25149e-05
606,-2.59541e-05,1.9407e-05,3.71225e-05,4.75494e-05,-1.94955e-05,-2.15824e-05
607,-3.74351e-05,1.72596e-05,3.0783e-05,5.28273e-05,-1.67317e-05,-1.51987e-05
608,-2.86562e-05,1.55351e-05,3.57847e-05,5.9798e-05,-9.09587e-06,-3.28812e-06
609,-8.33666e-06,1.60348e-05,4.59579e-05,6.28961e-05,-5.79643e-06,5.78002e-06
610,5.23042e-06,1.79593e-05,5.10299e-05,5.84767e-05,-1.03835e-05,1.00461e-05
611,5.03038e-06,1.99357e-05,4.74115e-05,4.83988e-05,-1.58786e-05,1.06512e-05
612,-1.10723e-05,1.90953e-05,3.58718e-05,4.19568e-05,-1.72636e-05,9.32857e-06
613,-3.17152e-05,1.53384e-05,2.45548e-05,4.47523e-05,-1.65043e-05,6.57245e-06
614,-3.04373e-05,1.25397e-05,2.58461e-05,5.06314e-05,-1.55209e-05,4.12374e-06
615,-1.24595e-05,1.20351e-05,3.62897e-05,5.27538e-05,-1.28241e-05,3.93694e-06
616,-2.667e-06,1.36663e-05,4.27206e-05,5.22815e-05,-7.42888e-06,4.36025e-06
617,1.64434e-06,1.77059e-05,4.26479e-05,5.30177e-05,-3.20326e-06,5.09504e-06
618,7.55999e-06,2.06981e-05,4.01907e-05,5.47593e-05,-2.78658e-06,8.3578e-06
619,1.06465e-05,1.98295e-05,3.80787e-05,5.35273e-05,-5.31754e-06,1.42066e-05
620,4.14546e-06,1.66365e-05,3.39424e-05,4.99063e-05,-9.27424e-06,1.76887e-05
621,-1.30701e-05,1.10741e-05,2.64145e-05,4.85833e-05,-1.36022e-05,1.41211e-05
622,-2.48735e-05,4.10246e-06,2.44546e-05,5.10309e-05,-1.63089e-05,9.31646e-06
623,-1.55799e-05,-3.15366e-07,3.28878e-05,5.56322e-05,-1.59138e-05,1.09547e-05
624,4.63781e-06,6.5909e-07,4.13231e-05,5.95012e-05,-1.36265e-05,1.40908e-05
625,1.4277e-05,6.20007e-06,4.11101e-05,6.04643e-05,-1.07382e-05,9.76804e-06
626,6.36194e-06,1.23421e-05,3.45955e-05,5.95757e-05,-9.89413e-06,1.41902e-06
627,-1.18221e-05,1.59364e-05,2.71342e-05,5.93709e-05,-1.16517e-05,-1.30621e-06
628,-2.20909e-05,1.51873e-05,2.47102e-05,5.96368e-05,-1.15277e-05,3.71879e-06
629,-1.08907e-05,1.10378e-05,2.97822e-05,5.90968e-05,-7.51244e-06,1.26431e-05
630,1.12441e-05,6.48867e-06,3.75969e-05,5.90393e-05,-4.03876e-06,2.11491e-05
631,2.3415e-05,4.53293e-06,4.16502e-05,5.96394e-05,-3.45322e-06,2.60929e-05
632,1.8104e-05,5.02604e-06,3.98764e-05,5.77474e-05,-4.24609e-06,2.70559e-05
633,-3.27645e-07,5.2116e-06,3.22688e-05,5.38903e-05,-6.62117e-06,2.46462e-05
634,-1.62053e-05,3.79357e-06,2.4043e-05,5.3557e-05,-9.86163e-06,1.99284e-05
635,-1.20122e-05,2.14544e-06,2.58239e-05,5.68382e-05,-1.00946e-05,1.69939e-05
636,5.85473e-06,2.82764e-06,3.6211e-05,5.92574e-05,-5.45208e-06,2.00965e-05
637,1.64381e-05,6.46861e-06,4.28314e-05,5.75937e-05,8.12548e-07,2.84077e-05
638,1.06921e-05,1.12308e-05,4.00502e-05,5.26129e-05,4.21237e-06,3.49499e-05
639,-1.00304e-05,1.26057e-05,3.05998e-05,5.12862e-05,3.47555e-06,3.29468e-05
640,-3.08277e-05,8.5678e-06,2.39104e-05,5.54294e-05,3.74797e-07,2.61855e-05
641,-2.8547e-05,4.11949e-06,2.88977e-05,5.79758e-05,-1.80599e-06,2.56438e-05
642,-1.10993e-05,2.4007e-06,3.61192e-05,5.4502e-05,-1.75209e-06,2.77892e-05
643,-1.36023e-06,2.56162e-06,3.36827e-05,4.88517e-05,-2.38969e-06,2.55331e-05
644,1.77676e-06,3.76051e-06,2.95078e-05,4.8072e-05,-3.9907e-06,2.75545e-05
645,4.83608e-06,5.79383e-06,3.18139e-05,5.13072e-05,-3.66505e-06,3.06606e-05
646,6.08865e-06,8.62388e-06,3.73071e-05,5.17818e-05,-3.08901e-06,2.21432e-05
647,-1.16801e-06,9.58042e-06,3.71625e-05,4.94057e-05,-5.12183e-06,5.96882e-06
648,-1.9757e-05,6.49369e-06,2.95411e-05,4.95999e-05,-8.21054e-06,-4.49458e-06
649,-3.43419e-05,1.91869e-06,2.56141e-05,5.42929e-05,-1.10157e-05,-3.60906e-06
650,-2.88227e-05,-7.08849e-07,2.9624e-05,6.20526e-05,-1.36942e-05,3.47202e-06
651,-1.12717e-05,-2.35474e-07,3.48494e-05,6.91333e-05,-1.34619e-05,1.22677e-05
652,3.23047e-07,3.03455e-06,3.67918e-05,6.9176e-05,-8.99872e-06,1.91995e-05
653,-6.75706e-07,5.58239e-06,3.4761e-05,6.26888e-05,-6.09753e-06,1.93504e-05
654,-1.133e-05,4.86977e-06,2.84924e-05,5.77677e-05,-7.6525e-06,1.31723e-05
655,-1.9266e-05,2.9152e-06,2.42794e-05,5.79244e-05,-9.21673e-06,7.8597e-06
656,-1.35364e-05,3.22272e-06,2.94187e-05,5.99204e-05,-7.71654e-06,7.96154e-06
657,-9.72765e-07,5.36713e-06,3.81278e-05,5.94078e-05,-5.31792e-06,1.15204e-05
658,4.45223e-06,7.42054e-06,3.98162e-05,5.43803e-05,-5.04559e-06,1.57362e-05
659,-4.2073e-07,9.80007e-06,3.39479e-05,4.80104e-05,-6.53678e-06,1.8816e-05
660,-1.25558e-05,1.25978e-05,2.55064e-05,4.56822e-05,-6.88996e-06,1.79297e-05
661,-2.25477e-05,1.54538e-05,2.11437e-05,4.7049e-05,-3.78862e-06,1.39096e-05
662,-1.63189e-05,1.76745e-05,2.76353e-05,4.84303e-05,5.8931e-07,1.39118e-05
663,2.07614e-06,1.76397e-05,4.02028e-05,4.93077e-05,-1.65086e-07,1.92221e-05
664,1.38558e-05,1.69768e-05,4.69527e-05,4.70961e-05,-6.26726e-06,2.27591e-05
665,1.18305e-05,1.6001e-05,4.35178e-05,3.98555e-05,-9.81891e-06,2.22259e-05
666,-4.14615e-06,1.21242e-05,3.44315e-05,3.47605e-05,-9.12151e-06,1.8943e-05
667,-2.38427e-05,9.24715e-06,2.87546e-05,3.83069e-05,-8.38679e-06,1.34284e-05
668,-2.2095e-05,1.34029e-05,3.24034e-05,4.64126e-05,-7.01375e-06,1.21972e-05
669,-3.15731e-06,2.15128e-05,3.84481e-05,5.13694e-05,-4.41854e-06,1.7772e-05
670,7.20574e-06,2.43806e-05,4.1472e-05,5.12775e-05,-5.04094e-06,2.32859e-05
671,7.8105e-06,2.0869e-05,4.56736e-05,5.03513e-05,-9.81929e-06,2.39646e-05
672,7.18316e-06,1.76764e-05,4.82927e-05,5.11117e-05,-1.42187e-05,2.16772e-05
673,7.01152e-06,1.80564e-05,4.58343e-05,5.00994e-05,-1.49683e-05,1.96462e-05
674,2.77997e-06,1.8938e-05,3.95671e-05,4.60346e-05,-1.30259e-05,1.69755e-05
675,-1.02226e-05,1.62414e-05,3.06832e-05,4.45912e-05,-1.01461e-05,1.25258e-05
676,-1.92442e-05,1.03536e-05,2.63979e-05,4.71615e-05,-7.72358e-06,8.89243e-06
677,-1.14032e-05,6.51218e-06,3.17575e-05,4.93591e-05,-7.93982e-06,9.25759e-06
678,3.41331e-06,9.33208e-06,4.06572e-05,5.11049e-05,-1.05203e-05,1.05635e-05
679,1.05391e-05,1.78266e-05,4.47854e-05,5.24464e-05,-1.14248e-05,9.4176e-06
680,4.68491e-06,2.47517e-05,4.15306e-05,5.2059e-05,-8.02063e-06,7.74538e-06
681,-1.12463e-05,2.44767e-05,3.30343e-05,5.16264e-05,-2.91601e-06,5.5941e-06
682,-2.26426e-05,1.96145e-05,2.72631e-05,5.32578e-05,2.25953e-07,3.43721e-06
683,-1.76685e-05,1.51489e-05,3.12149e-05,5.56839e-05,5.74872e-07,6.59011e-06
684,-3.38042e-06,1.22544e-05,4.04292e-05,5.60512e-05,-1.00715e-06,1.68375e-05
685,5.23559e-06,1.13333e-05,4.6444e-05,5.26049e-05,-3.47936e-06,2.85788e-05
686,6.95994e-07,1.29399e-05,4.67999e-05,4.64329e-05,-6.0667e-06,3.49097e-05
687,-1.50887e-05,1.49278e-05,4.16473e-05,4.34527e-05,-7.95483e-06,2.98031e-05
688,-2.6176e-05,1.43244e-05,3.48062e-05,4.6842e-05,-7.27679e-06,1.48642e-05
689,-1.71503e-05,1.07106e-05,3.52913e-05,5.18505e-05,-4.8953e-06,2.96134e-06
690,1.11911e-06,7.40919e-06,4.40015e-05,5.39931e-05,-5.65514e-06,1.79523e-06
691,9.19577e-06,7.7575e-06,5.11461e-05,5.27098e-05,-1.00761e-05,7.26137e-06
692,3.5873e-06,9.09259e-06,5.0879e-05,4.92047e-05,-1.23345e-05,1.16263e-05
693,-1.30309e-05,7.87738e-06,4.41924e-05,4.68985e-05,-9.59507e-06,8.71273e-06
694,-2.66084e-05,5.20169e-06,3.71717e-05,4.93595e-05,-5.1007e-06,2.90539e-06
695,-1.54864e-05,4.2448e-06,3.82556e-05,5.21083e-05,-2.71703e-06,4.8656e-06
696,6.6995e-06,6.07959e-06,4.25444e-05,4.90261e-05,-3.19048e-06,1.35944e-05
697,1.51342e-05,7.89577e-06,3.9641e-05,4.44661e-05,-5.92276e-06,1.87392e-05
698,1.61646e-05,8.49462e-06,3.32571e-05,4.42344e-05,-1.08551e-05,1.76407e-05
699,1.68443e-05,1.01064e-05,3.22187e-05,4.75136e-05,-1.47325e-05,1.49596e-05
700,1.33195e-05,1.3825e-05,3.71284e-05,4.8603e-05,-1.52327e-05,1.41908e-05
701,4.87658e-07,1.70485e-05,3.93218e-05,4.53411e-05,-1.39569e-05,1.37071e-05
702,-1.98072e-05,1.73601e-05,3.46265e-05,4.23478e-05,-1.14672e-05,1.01205e-05
703,-2.9575e-05,1.48703e-05,3.18388e-05,4.28873e-05,-9.2456e-06,5.83644e-06
704,-1.88624e-05,1.16771e-05,3.66337e-05,4.43276e-05,-1.06681e-05,6.57903e-06
705,-2.87147e-06,9.53151e-06,4.30936e-05,4.42676e-05,-1.52759e-05,1.27131e-05
706,2.31524e-06,9.77675e-06,4.47866e-05,4.3226e-05,-1.77543e-05,1.83671e-05
707,-3.84939e-06,1.18378e-05,4.02249e-05,4.21772e-05,-1.49999e-05,1.9659e-05
708,-1.51261e-05,1.30013e-05,3.13072e-05,4.37762e-05,-9.88696e-06,1.49275e-05
709,-1.99553e-05,1.3359e-05,2.69729e-05,4.82263e-05,-6.45971e-06,5.24033e-06
710,-1.17442e-05,1.43825e-05,3.39666e-05,5.16335e-05,-5.61168e-06,-2.70748e-06
711,1.08742e-06,1.65634e-05,4.5452e-05,5.23125e-05,-6.04123e-06,-1.66236e-06
712,7.70064e-06,2.00886e-05,5.05988e-05,5.17918e-05,-6.05168e-06,9.25316e-06
713,5.90366e-06,2.28646e-05,4.69471e-05,5.04819e-05,-7.13282e-06,2.33745e-05
714,-4.53032e-06,2.08727e-05,3.8338e-05,4.97744e-05,-1.161e-05,2.86236e-05
715,-1.50338e-05,1.5201e-05,3.18168e-05,5.14621e-05,-1.79897e-05,1.71587e-05
716,-8.47189e-06,1.11835e-05,3.45399e-05,5.35415e-05,-2.26932e-05,4.49563e-09
717,1.04417e-05,9.89306e-06,4.30193e-05,5.33763e-05,-2.24943e-05,-2.59876e-06
718,1.88549e-05,1.08299e-05,4.68431e-05,4.99347e-05,-1.87938e-05,1.17812e-05
719,9.46945e-06,1.4651e-05,4.39273e-05,4.47211e-05,-1.69225e-05,2.52604e-05
720,-1.08275e-05,1.68388e-05,3.75082e-05,4.20801e-05,-1.83223e-05,2.46475e-05
721,-2.81354e-05,1.23884e-05,3.23509e-05,4.3472e-05,-1.90299e-05,1.56406e-05
722,-2.46366e-05,5.39597e-06,3.70624e-05,4.72163e-05,-1.74748e-05,1.11165e-05
723,-1.14841e-05,5.54752e-06,4.63627e-05,4.97079e-05,-1.61777e-05,1.53662e-05
724,-9.3667e-06,1.31587e-05,4.7895e-05,4.86472e-05,-1.58084e-05,2.19904e-05
725,-1.00752e-05,1.71249e-05,4.43504e-05,4.70398e-05,-1.5764e-05,2.60747e-05
726,-8.63815e-06,1.39925e-05,4.1244e-05,4.60689e-05,-1.61424e-05,2.93666e-05
727,-1.02006e-05,1.00599e-05,3.98847e-05,4.41622e-05,-1.65599e-05,3.57799e-05
728,-1.85271e-05,8.2442e-06,3.8424e-05,4.18744e-05,-1.47938e-05,4.09475e-05
729,-3.53852e-05,6.31761e-06,3.48901e-05,4.35643e-05,-9.48155e-06,3.0965e-05
730,-4.47217e-05,3.51797e-06,3.49418e-05,4.93512e-05,-3.3452e-06,8.71026e-06
731,-3.21578e-05,1.88834e-06,4.04664e-05,5.26504e-05,-1.61501e-06,-7.3311e-06
732,-1.00362e-05,2.71556e-06,4.31856e-05,5.15816e-05,-6.57212e-06,-1.0876e-05
733,1.42785e-06,7.5109e-06,3.84271e-05,4.88656e-05,-1.26305e-05,-7.01831e-06
734,-3.84407e-06,1.39841e-05,2.9899e-05,4.69847e-05,-1.40984e-05,4.76291e-07
735,-2.04058e-05,1.58478e-05,2.27093e-05,4.77156e-05,-1.19145e-05,8.07776e-06
736,-3.22847e-05,1.14711e-05,2.19566e-05,5.09926e-05,-9.74757e-06,1.27434e-05
737,-2.78441e-05,6.50475e-06,2.84219e-05,5.38153e-05,-9.80292e-06,1.57907e-05
738,-1.544e-05,6.05197e-06,3.57808e-05,5.47158e-05,-1.24133e-05,1.97429e-05
739,-9.1891e-06,9.02789e-06,3.90746e-05,5.44364e-05,-1.49647e-05,2.35081e-05
740,-1.27481e-05,1.11483e-05,3.77077e-05,5.16821e-05,-1.36335e-05,2.36988e-05
741,-2.3413e-05,9.42037e-06,3.10683e-05,4.74438e-05,-9.98899e-06,1.8807e-05
742,-3.00526e-05,4.80332e-06,2.44293e-05,4.62789e-05,-7.87225e-06,1.16194e-05
743,-1.82485e-05,1.48809e-06,2.70511e-05,4.90816e-05,-6.12892e-06,7.88362e-06
744,3.29751e-06,3.01141e-06,3.58851e-05,5.13253e-05,-3.50941e-06,1.00787e-05
745,1.27805e-05,8.15375e-06,3.95918e-05,4.83066e-05,-1.41924e-06,1.35153e-05
746,5.87261e-06,1.26964e-05,3.71363e-05,4.18659e-05,8.73474e-07,1.3531e-05
747,-1.25966e-05,1.42108e-05,3.0978e-05,3.98736e-05,1.65164e-06,8.80087e-06
748,-2.96735e-05,1.33562e-05,2.2607e-05,4.57697e-05,-2.4531e-06,1.71564e-06
749,-2.15336e-05,1.27053e-05,2.37556e-05,5.41809e-05,-7.85172e-06,-1.77934e-08
750,1.63649e-06,1.50602e-05,3.29275e-05,5.87563e-05,-9.78128e-06,2.53955e-06
751,1.03114e-05,1.84638e-05,3.57899e-05,5.90445e-05,-8.68215e-06,2.04363e-06
752,7.00895e-06,1.90771e-05,3.54769e-05,5.85669e-05,-8.57753e-06,2.03447e-06
753,3.52985e-06,1.94523e-05,3.9469e-05,5.94335e-05,-1.11e-05,7.64053e-06
754,1.66432e-06,2.18991e-05,4.3527e-05,5.85347e-05,-1.18461e-05,1.49778e-05
755,-3.82562e-06,2.44561e-05,4.07347e-05,5.48429e-05,-1.07585e-05,1.85481e-05
756,-1.76247e-05,2.5092e-05,3.20819e-05,5.49593e-05,-1.26426e-05,1.73828e-05
757,-2.49344e-05,2.25928e-05,2.72329e-05,5.9711e-05,-1.60616e-05,1.54827e-05
758,-1.27292e-05,1.86452e-05,3.08361e-05,6.32449e-05,-1.70704e-05,1.64233e-05
759,3.71024e-06,1.48298e-05,3.58435e-05,6.35329e-05,-1.76882e-05,1.88079e-05
760,6.23804e-06,1.18266e-05,3.62183e-05,6.1231e-05,-1.90699e-05,1.97561e-05
761,-4.42171e-06,9.88526e-06,3.09786e-05,5.75861e-05,-1.7448e-05,1.77001e-05
762,-1.93226e-05,8.20617e-06,2.21855e-05,5.48153e-05,-1.34204e-05,1.31864e-05
763,-2.52867e-05,8.11174e-06,1.62515e-05,5.51641e-05,-1.12781e-05,1.02434e-05
764,-1.50588e-05,1.05912e-05,1.91682e-05,5.74894e-05,-1.08923e-05,1.09981e-05
765,8.25117e-07,1.31896e-05,2.8842e-05,5.92994e-05,-1.00184e-05,1.30258e-05
766,7.57822e-06,1.34702e-05,3.67356e-05,5.90966e-05,-8.25543e-06,1.43357e-05
767,1.83001e-06,1.22192e-05,3.69966e-05,5.72617e-05,-6.56718e-06,1.50091e-05
768,-1.24863e-05,9.99895e-06,3.03639e-05,5.66746e-05,-6.3994e-06,1.35311e-05
769,-2.19142e-05,7.35033e-06,2.64905e-05,5.85868e-05,-8.05265e-06,1.07605e-05
770,-1.16008e-05,7.05487e-06,3.2878e-05,6.13819e-05,-1.01299e-05,1.25005e-05
771,8.68222e-06,9.3889e-06,4.1516e-05,6.37793e-05,-9.88062e-06,1.86813e-05
772,1.68523e-05,1.30966e-05,4.26444e-05,6.31562e-05,-7.39859e-06,2.20243e-05
773,8.52228e-06,1.61489e-05,3.86404e-05,5.75268e-05,-7.52954e-06,1.9814e-05
774,-1.15932e-05,1.45542e-05,3.29435e-05,5.32648e-05,-1.22737e-05,1.55142e-05
775,-3.06979e-05,8.78976e-06,2.84847e-05,5.57233e-05,-1.72559e-05,1.19163e-05
776,-2.66697e-05,5.89152e-06,3.16637e-05,5.9015e-05,-1.67623e-05,1.04127e-05
777,-5.98999e-06,1.01617e-05,3.89956e-05,5.86202e-05,-1.27696e-05,1.04007e-05
778,8.05893e-06,1.56176e-05,4.21435e-05,5.74851e-05,-1.11233e-05,1.15571e-05
779,1.43812e-05,1.57198e-05,4.30524e-05,5.78622e-05,-1.06035e-05,1.43416e-05
780,1.63195e-05,1.19421e-05,4.42542e-05,5.74953e-05,-9.4803e-06,1.55468e-05
781,1.11827e-05,1.06792e-05,4.46414e-05,5.22565e-05,-8.49076e-06,1.39652e-05
782,-6.67393e-07,1.60564e-05,4.19624e-05,4.48484e-05,-7.625e-06,1.20109e-05
783,-1.64877e-05,2.219e-05,3.53401e-05,4.30132e-05,-6.02446e-06,9.06713e-06
784,-2.29772e-05,2.25587e-05,3.17553e-05,4.6651e-05,-3.00033e-06,6.68565e-06
785,-1.04732e-05,1.94374e-05,3.5871e-05,4.87709e-05,3.54129e-08,9.39134e-06
786,6.98342e-06,1.67275e-05,4.06699e-05,4.68612e-05,1.77288e-06,1.54325e-05
787,1.35955e-05,1.57347e-05,3.92512e-05,4.21541e-05,1.6954e-06,2.02304e-05
788,7.67039e-06,1.6339e-05,3.465e-05,3.67551e-05,5.93805e-07,2.21285e-05
789,-6.2935e-06,1.61926e-05,3.11023e-05,3.48656e-05,-2.89897e-07,2.04812e-05
790,-1.51759e-05,1.36656e-05,3.12793e-05,3.94002e-05,-1.34389e-06,1.69873e-05
791,-8.27492e-06,1.07287e-05,3.74956e-05,4.60508e-05,-2.96535e-06,1.60192e-05
792,5.29664e-06,8.83995e-06,4.57215e-05,4.75427e-05,-3.9699e-06,1.93995e-05
793,9.96453e-06,8.27307e-06,4.86227e-05,4.16902e-05,-3.25863e-06,2.35465e-05
794,2.48392e-06,8.3301e-06,4.55687e-05,3.35728e-05,-9.34294e-07,2.45601e-05
795,-1.23911e-05,6.5793e-06,4.05498e-05,3.20329e-05,2.55782e-06,2.27415e-05
796,-2.1702e-05,3.73394e-06,3.74692e-05,3.96471e-05,5.86848e-06,2.07308e-05
797,-1.20423e-05,3.48728e-06,3.90887e-05,4.88096e-05,6.43563e-06,2.13581e-05
798,6.88249e-06,4.87241e-06,4.2898e-05,5.14821e-05,3.09135e-06,2.53249e-05
799,1.49804e-05,7.49429e-06,4.35256e-05,4.79245e-05,-8.63912e-07,2.8823e-05
800,8.32553e-06,1.36464e-05,4.0155e-05,4.37634e-05,-1.34967e-06,2.87468e-05
801,-9.12459e-06,1.95102e-05,3.31552e-05,4.45746e-05,-1.43549e-07,2.19389e-05
802,-2.36637e-05,1.95343e-05,2.61115e-05,5.04144e-05,-1.47751e-06,8.60939e-06
803,-1.43735e-05,1.55227e-05,2.82677e-05,5.79555e-05,-4.84867e-06,8.15644e-07
804,6.76845e-06,1.25922e-05,3.61854e-05,6.36081e-05,-8.58386e-06,1.52734e-06
805,1.53222e-05,1.1269e-05,3.95465e-05,6.42275e-05,-1.05852e-05,1.8052e-06
806,1.61872e-05,1.04902e-05,3.93259e-05,6.28786e-05,-1.00285e-05,4.61754e-06
807,1.695e-05,1.12033e-05,3.9261e-05,6.25446e-05,-1.06659e-05,1.28596e-05
808,1.58941e-05,1.33148e-05,3.92897e-05,6.12788e-05,-1.30614e-05,1.79452e-05
809,9.02307e-06,1.48249e-05,3.69226e-05,5.97443e-05,-1.4569e-05,1.50729e-05
810,-5.96064e-06,1.45111e-05,3.07389e-05,6.07192e-05,-1.31301e-05,9.42405e-06
811,-1.49659e-05,1.23557e-05,2.75957e-05,6.39396e-05,-1.01101e-05,8.43503e-06
812,-8.0104e-06,9.63171e-06,3.27056e-05,6.61632e-05,-8.72216e-06,1.1843e-05
813,4.58327e-06,8.055e-06,4.05137e-05,6.62808e-05,-9.09347e-06,1.11384e-05
814,1.14335e-05,8.21461e-06,4.51816e-05,6.47177e-05,-1.08294e-05,2.50392e-06
815,6.99816e-06,9.22344e-06,4.42772e-05,6.23672e-05,-1.27746e-05,-4.97353e-06
816,-8.26663e-06,1.00982e-05,3.73165e-05,6.22486e-05,-1.15719e-05,-7.98558e-07
817,-2.00199e-05,1.09798e-05,3.05877e-05,6.46549e-05,-6.21761e-06,1.53364e-05
818,-1.49694e-05,1.18909e-05,3.30534e-05,6.479e-05,-1.02444e-06,2.95042e-05
819,-1.26697e-06,1.36967e-05,4.17897e-05,5.96752e-05,5.38914e-08,2.6875e-05
820,3.9812e-06,1.80469e-05,4.60183e-05,5.17178e-05,-2.40805e-06,1.23099e-05
821,-3.59794e-06,2.20314e-05,4.27379e-05,4.59309e-05,-6.01336e-06,3.48479e-06
822,-1.82391e-05,1.96033e-05,3.57339e-05,4.68035e-05,-7.75016e-06,7.29218e-06
823,-2.7701e-05,1.13892e-05,3.05168e-05,5.23817e-05,-6.43457e-06,1.57738e-05
824,-1.90581e-05,5.24147e-06,3.26119e-05,5.54647e-05,-3.81667e-06,2.10031e-05
825,6.5013e-07,4.76983e-06,3.97561e-05,5.48428e-05,-7.33165e-07,2.1771e-05
826,1.05751e-05,6.67522e-06,4.28495e-05,5.30887e-05,4.57112e-07,2.11436e-05
827,4.1384e-06,7.30036e-06,3.88205e-05,5.00835e-05,-5.04886e-06,2.08186e-05
828,-1.38716e-05,6.06614e-06,3.01562e-05,4.81864e-05,-1.50346e-05,1.91647e-05
829,-2.98792e-05,4.45311e-06,2.22974e-05,5.04055e-05,-2.04456e-05,1.62803e-05
830,-2.33315e-05,3.82965e-06,2.48746e-05,5.39952e-05,-1.66761e-05,1.56021e-05
831,-2.89908e-06,5.47133e-06,3.48954e-05,5.38972e-05,-8.97709e-06,1.67407e-05
832,7.13137e-06,9.10241e-06,4.05351e-05,5.13663e-05,-6.86386e-06,1.79634e-05
833,7.22077e-06,1.17988e-05,4.25618e-05,4.89025e-05,-1.10553e-05,2.43319e-05
834,6.25407e-06,1.06287e-05,4.36137e-05,4.64629e-05,-1.48745e-05,3.29496e-05
835,5.09149e-06,8.01298e-06,4.22535e-05,4.39745e-05,-1.41955e-05,3.25847e-05
836,-2.43146e-06,8.15899e-06,3.7066e-05,4.07681e-05,-1.0352e-05,2.40175e-05
837,-2.00294e-05,7.88764e-06,2.79854e-05,4.09174e-05,-8.12501e-06,1.21659e-05
838,-3.18014e-05,4.19484e-06,2.33993e-05,4.55765e-05,-8.33524e-06,1.40226e-06
839,-2.32163e-05,9.41164e-07,3.00963e-05,4.86103e-05,-7.38711e-06,-8.65644e-07
840,-3.36392e-06,2.50219e-06,4.07394e-05,4.82618e-05,-4.58176e-06,4.77043e-06
841,1.0793e-05,8.75844e-06,4.41572e-05,4.77972e-05,-3.52868e-06,1.25206e-05
842,9.67058e-06,1.42822e-05,3.80731e-05,4.85004e-05,-6.16025e-06,1.83864e-05
843,-5.79732e-06,1.51599e-05,2.81008e-05,5.02215e-05,-1.04237e-05,1.81117e-05
844,-2.04113e-05,1.32763e-05,2.28839e-05,5.36948e-05,-1.43621e-05,1.14534e-05
845,-1.77863e-05,1.16623e-05,2.78279e-05,5.71941e-05,-1.89889e-05,4.44563e-06
846,-2.97355e-06,1.15234e-05,3.73104e-05,5.78525e-05,-2.469e-05,2.07574e-06
847,6.14893e-06,1.43363e-05,4.13214e-05,5.51264e-05,-2.88868e-05,3.78439e-06
848,8.45126e-07,1.78761e-05,3.78574e-05,5.16575e-05,-2.90763e-05,6.20813e-06
849,-1.67628e-05,1.57791e-05,3.05236e-05,5.05898e-05,-2.5832e-05,6.05941e-06
850,-3.24291e-05,8.83732e-06,2.63334e-05,5.12071e-05,-2.19231e-05,3.13622e-06
851,-2.74729e-05,5.46064e-06,3.16282e-05,5.0301e-05,-2.03493e-05,2.20736e-06
852,-7.09516e-06,6.81014e-06,4.16789e-05,4.69374e-05,-2.02341e-05,5.54651e-06
853,5.25824e-06,8.22824e-06,4.68823e-05,4.30266e-05,-1.77097e-05,7.28727e-06
854,-6.00239e-07,9.60086e-06,4.5115e-05,3.9672e-05,-1.3739e-05,4.87208e-06
855,-2.00629e-05,9.89245e-06,3.72467e-05,3.94278e-05,-1.10923e-05,4.1458e-06
856,-3.54191e-05,8.03219e-06,2.90127e-05,4.45143e-05,-9.33943e-06,7.72907e-06
857,-2.38105e-05,7.56909e-06,2.96704e-05,5.02888e-05,-7.85079e-06,1.53774e-05
858,-1.27923e-06,8.65566e-06,3.38276e-05,5.26572e-05,-7.85848e-06,2.11674e-05
859,2.22286e-06,8.91108e-06,3.3596e-05,5.36312e-05,-9.97896e-06,1.7229e-05
860,-3.4067e-06,8.15131e-06,3.5203e-05,5.58476e-05,-1.21176e-05,1.05071e-05
861,-5.34285e-06,8.33692e-06,4.18215e-05,5.74665e-05,-1.23973e-05,7.42548e-06
862,-5.00269e-06,9.82949e-06,4.95927e-05,5.56378e-05,-1.11607e-05,6.5197e-06
863,-9.35332e-06,6.25275e-06,5.17702e-05,5.16531e-05,-7.54919e-06,7.99328e-06
864,-2.33702e-05,-2.99393e-06,4.37047e-05,4.96091e-05,-2.88405e-07,1.22478e-05
865,-3.00346e-05,-9.45826e-06,3.61734e-05,4.96192e-05,3.17783e-06,1.90707e-05
866,-1.58797e-05,-9.61641e-06,3.92683e-05,4.82559e-05,-5.14146e-06,2.4794e-05
867,3.82455e-06,-7.149e-06,4.64003e-05,4.55183e-05,-1.90713e-05,2.6751e-05
868,1.1016e-05,-2.96957e-06,4.94971e-05,4.1511e-05,-2.62319e-05,2.57814e-05
869,3.91121e-06,2.93934e-06,4.70763e-05,3.77619e-05,-2.26361e-05,2.04994e-05
870,-1.17967e-05,5.38864e-06,4.04203e-05,3.89031e-05,-1.53846e-05,9.92919e-06
871,-2.19483e-05,2.00347e-06,3.58575e-05,4.64784e-05,-1.10573e-05,2.90133e-06
872,-1.63165e-05,-2.00958e-06,3.77045e-05,5.4064e-05,-1.03137e-05,9.64026e-06
873,-4.1244e-06,-1.46467e-06,4.13702e-05,5.50005e-05,-1.10198e-05,2.28242e-05
874,4.11516e-07,3.29423e-06,4.24864e-05,5.00576e-05,-1.2275e-05,2.42719e-05
875,-5.11226e-06,9.24494e-06,4.08689e-05,4.35465e-05,-1.43288e-05,1.13527e-05
876,-1.73403e-05,1.28456e-05,3.62904e-05,3.97767e-05,-1.49491e-05,-2.1561e-07
877,-2.55088e-05,1.23272e-05,3.28643e-05,4.01681e-05,-1.22051e-05,3.52218e-07
878,-1.7201e-05,9.76503e-06,3.75572e-05,4.13858e-05,-8.49998e-06,9.63781e-06
879,-1.04641e-06,9.58647e-06,4.74141e-05,4.08835e-05,-6.40182e-06,1.92721e-05
880,4.35977e-06,1.32525e-05,5.19872e-05,3.90128e-05,-4.30582e-06,2.44883e-05
881,-3.92491e-06,1.69457e-05,4.7463e-05,3.60785e-05,-2.7964e-06,2.40656e-05
882,-2.06625e-05,1.84699e-05,3.68809e-05,3.52782e-05,-6.47859e-06,1.64376e-05
883,-3.54065e-05,1.94044e-05,2.63528e-05,3.96572e-05,-1.20513e-05,7.26086e-06
884,-2.86475e-05,2.05284e-05,2.58599e-05,4.55502e-05,-9.23933e-06,7.87659e-06
885,-7.27949e-06,2.16748e-05,3.4046e-05,4.78565e-05,-9.46671e-07,1.61105e-05
886,5.32217e-06,2.11775e-05,4.08163e-05,4.63103e-05,2.02005e-07,2.11984e-05
887,8.72904e-06,1.75423e-05,4.4932e-05,4.43038e-05,-6.00533e-06,2.19185e-05
888,7.28785e-06,1.38711e-05,4.69789e-05,4.43666e-05,-1.20339e-05,2.45574e-05
889,1.73674e-06,1.41398e-05,4.55979e-05,4.37599e-05,-1.50324e-05,3.0263e-05
890,-8.06367e-06,1.74771e-05,3.94614e-05,4.24825e-05,-1.46066e-05,3.1008e-05
891,-2.33424e-05,1.82409e-05,2.88358e-05,4.25332e-05,-1.3037e-05,2.16027e-05
892,-3.06809e-05,1.4588e-05,2.23913e-05,4.20666e-05,-1.22735e-05,1.01634e-05
893,-1.81107e-05,1.22734e-05,2.73299e-05,4.09931e-05,-1.00683e-05,7.04278e-06
894,1.52151e-06,1.39137e-05,3.6689e-05,4.12992e-05,-5.3228e-06,1.20938e-05
895,1.01552e-05,1.68973e-05,4.15791e-05,4.25273e-05,-2.86861e-06,1.8525e-05
896,4.29423e-06,1.92199e-05,3.87918e-05,4.28077e-05,-5.72555e-06,2.09179e-05
897,-1.00291e-05,1.8635e-05,2.98334e-05,4.40404e-05,-9.49966e-06,1.81519e-05
898,-1.8985e-05,1.54104e-05,2.48144e-05,4.83499e-05,-9.05382e-06,1.33412e-05
899,-1.21925e-05,1.30144e-05,3.14568e-05,5.31436e-05,-5.00165e-06,1.10426e-05
900,3.05314e-06,1.26363e-05,4.25956e-05,5.5491e-05,-1.31733e-06,1.33424e-05
901,1.19236e-05,1.4311e-05,4.74475e-05,5.50808e-05,-6.47174e-07,1.88391e-05
902,8.53358e-06,1.6385e-05,4.45605e-05,5.36466e-05,-3.64499e-06,2.46494e-05
903,-5.05322e-06,1.57863e-05,3.65527e-05,5.50162e-05,-6.46457e-06,2.87144e-05
904,-1.54985e-05,1.2978e-05,2.9541e-05,6.01776e-05,-3.97788e-06,3.12915e-05
905,-6.75445e-06,1.06421e-05,3.21986e-05,6.41902e-05,6.5925e-07,3.40345e-05
906,1.29467e-05,1.00484e-05,4.13214e-05,6.39952e-05,-3.08664e-07,3.59875e-05
907,2.21085e-05,1.22309e-05,4.55247e-05,6.14083e-05,-5.36337e-06,3.4718e-05
908,1.48726e-05,1.732e-05,4.28945e-05,5.75821e-05,-5.43672e-06,3.12985e-05
909,-5.66368e-06,2.05478e-05,3.59894e-05,5.5974e-05,5.06037e-07,2.49516e-05
910,-2.53062e-05,1.72367e-05,2.86993e-05,6.07305e-05,6.11571e-06,1.39177e-05
911,-1.9692e-05,1.31478e-05,2.91515e-05,6.72066e-05,8.51197e-06,-5.16889e-08
912,1.06369e-06,1.57927e-05,3.38497e-05,6.85822e-05,6.77309e-06,-1.47664e-05
913,9.3632e-06,2.01577e-05,3.41337e-05,6.68472e-05,1.24e-06,-2.18064e-05
914,7.26306e-06,1.97515e-05,3.45719e-05,6.54408e-05,-5.89455e-06,-1.37923e-05
915,6.59735e-06,1.84543e-05,3.79429e-05,6.27899e-05,-1.21775e-05,3.75497e-06
916,8.40444e-06,2.14388e-05,3.96881e-05,5.80676e-05,-1.52006e-05,1.69759e-05
917,2.76398e-06,2.62406e-05,3.59086e-05,5.27816e-05,-1.50891e-05,1.63731e-05
918,-1.47448e-05,2.58858e-05,2.75953e-05,4.97054e-05,-1.42731e-05,6.89441e-06
919,-2.69544e-05,1.79662e-05,2.38856e-05,4.95818e-05,-1.43905e-05,1.81202e-06
920,-2.08081e-05,9.56383e-06,2.96226e-05,5.02546e-05,-1.44632e-05,5.19853e-06
921,-6.11587e-06,8.79119e-06,3.82209e-05,5.09678e-05,-1.327e-05,1.0182e-05
922,3.3787e-06,1.44445e-05,4.2311e-05,5.05107e-05,-1.19549e-05,1.36136e-05
923,2.13614e-06,2.07787e-05,4.05817e-05,4.79781e-05,-1.27176e-05,1.51113e-05
924,-9.78e-06,2.33903e-05,3.48426e-05,4.79104e-05,-1.59396e-05,1.26972e-05
925,-1.94733e-05,2.14554e-05,3.12865e-05,5.42719e-05,-1.94377e-05,7.97146e-06
926,-1.33118e-05,1.97253e-05,3.57095e-05,6.34013e-05,-2.1399e-05,5.5508e-06
927,1.75147e-06,2.07827e-05,4.43363e-05,6.91218e-05,-2.13727e-05,7.7463e-06
928,8.68829e-06,2.20462e-05,4.79687e-05,6.80608e-05,-1.98028e-05,1.36501e-05
929,-3.19473e-07,2.11195e-05,4.26341e-05,6.09699e-05,-1.83982e-05,1.86735e-05
930,-2.19414e-05,1.7943e-05,3.17123e-05,5.42395e-05,-1.9285e-05,1.72761e-05
931,-3.72204e-05,1.31409e-05,2.37018e-05,5.35824e-05,-1.97509e-05,1.18076e-05
932,-2.66051e-05,1.00543e-05,2.58327e-05,5.59626e-05,-1.5431e-05,1.08493e-05
933,-1.4596e-06,1.17518e-05,3.40203e-05,5.55532e-05,-8.90025e-06,1.52779e-05
934,1.30098e-05,1.68558e-05,3.85274e-05,5.07536e-05,-6.00858e-06,1.82607e-05
935,1.02804e-05,2.0178e-05,3.67911e-05,4.55961e-05,-8.34051e-06,1.82363e-05
936,-7.95483e-06,1.64887e-05,2.98403e-05,4.55592e-05,-1.41079e-05,1.7364e-05
937,-2.88002e-05,1.00415e-05,2.23023e-05,5.04432e-05,-2.00112e-05,1.69306e-05
938,-2.55889e-05,1.04144e-05,2.40303e-05,5.64591e-05,-2.13969e-05,1.89057e-05
939,-5.16091e-06,1.69417e-05,3.07827e-05,5.81778e-05,-1.86897e-05,1.94213e-05
940,5.07999e-06,2.04704e-05,3.33321e-05,5.31406e-05,-1.57231e-05,1.5605e-05
941,5.34608e-06,1.68968e-05,3.57112e-05,4.79889e-05,-1.34679e-05,1.45551e-05
942,4.31405e-06,1.04528e-05,3.86287e-05,4.63533e-05,-1.29513e-05,1.82396e-05
943,4.3678e-06,9.5635e-06,3.9523e-05,4.56854e-05,-1.45283e-05,2.1981e-05
944,1.384e-06,1.51841e-05,3.70845e-05,4.42749e-05,-1.61092e-05,2.24583e-05
945,-1.22063e-05,1.75986e-05,3.03223e-05,4.3274e-05,-1.58755e-05,1.92669e-05
946,-2.3901e-05,1.29818e-05,2.59406e-05,4.49257e-05,-1.4177e-05,1.74514e-05
947,-1.73705e-05,9.18211e-06,3.01866e-05,4.70456e-05,-1.31707e-05,2.09517e-05
948,-1.31762e-06,1.08914e-05,3.83097e-05,4.52902e-05,-1.39755e-05,2.61829e-05
949,7.70243e-06,1.34687e-05,4.10053e-05,3.84363e-05,-1.55704e-05,2.65704e-05
950,3.28026e-06,1.24504e-05,3.62157e-05,3.27402e-05,-1.66703e-05,1.85329e-05
951,-1.16411e-05,9.76172e-06,2.78954e-05,3.41365e-05,-1.70699e-05,4.1664e-06
952,-2.18803e-05,8.81944e-06,2.34566e-05,3.97022e-05,-1.58282e-05,-8.07932e-06
953,-1.49272e-05,8.87362e-06,2.81598e-05,4.34606e-05,-1.24063e-05,-8.99278e-06
954,8.87677e-07,7.07782e-06,3.69421e-05,4.53062e-05,-8.9822e-06,2.92051e-06
955,8.21666e-06,4.54763e-06,4.11135e-05,4.70831e-05,-8.6963e-06,2.03641e-05
956,2.23631e-06,4.62927e-06,3.91597e-05,4.8968e-05,-1.04551e-05,3.15876e-05
957,-1.17408e-05,6.30159e-06,3.24156e-05,5.2557e-05,-1.06503e-05,2.60479e-05
958,-2.20009e-05,6.52237e-06,2.43027e-05,5.79953e-05,-7.9599e-06,9.44853e-06
959,-1.55797e-05,7.46277e-06,2.31583e-05,6.13762e-05,-4.24289e-06,2.54294e-06
960,3.74193e-07,1.18513e-05,3.05702e-05,6.10563e-05,-2.61659e-06,1.21213e-05
961,6.46669e-06,1.65358e-05,3.7142e-05,5.82951e-05,-2.29851e-06,2.2427e-05
962,-3.07849e-06,1.86206e-05,3.64599e-05,5.44754e-05,-1.57689e-06,2.12114e-05
963,-2.25969e-05,1.61058e-05,3.08155e-05,5.41797e-05,-1.62181e-06,1.4754e-05
964,-3.75349e-05,9.24655e-06,2.59978e-05,5.94191e-05,-1.87706e-06,1.28103e-05
965,-2.95959e-05,5.56583e-06,2.85168e-05,6.44138e-05,4.94109e-07,1.62177e-05
966,-1.07469e-05,8.32342e-06,3.39728e-05,6.16904e-05,5.01973e-06,1.99327e-05
967,-4.00933e-06,1.07262e-05,3.40866e-05,5.42299e-05,5.70185e-06,2.18147e-05
968,-3.10775e-06,8.0442e-06,3.23945e-05,5.20621e-05,6.17545e-07,2.49911e-05
969,-1.50906e-06,2.50878e-06,3.23237e-05,5.4514e-05,-4.71158e-06,2.8561e-05
970,-1.03339e-06,-1.00028e-06,3.27582e-05,5.40836e-05,-6.1665e-06,2.82442e-05
971,-4.96468e-06,-3.672e-07,3.07297e-05,4.98124e-05,-4.0055e-06,2.32197e-05
972,-1.87728e-05,1.54865e-06,2.50477e-05,4.7225e-05,-9.95953e-07,1.75734e-05
973,-2.99041e-05,5.943e-07,2.37456e-05,4.86615e-05,1.27326e-07,1.66538e-05
974,-2.3193e-05,-9.02503e-07,3.2097e-05,4.9322e-05,-1.89829e-06,2.05741e-05
975,-7.18099e-06,1.85021e-06,4.35439e-05,4.74719e-05,-4.71615e-06,2.44046e-05
976,1.38037e-06,6.95566e-06,4.90343e-05,4.48591e-05,-4.60261e-06,2.57515e-05
977,-2.12731e-06,1.07978e-05,4.50425e-05,4.35195e-05,-1.88769e-06,2.54421e-05
978,-1.31186e-05,1.22393e-05,3.59989e-05,4.46207e-05,-4.56568e-07,2.28595e-05
979,-1.76307e-05,1.18959e-05,3.23268e-05,4.72973e-05,-1.86056e-06,1.93975e-05
980,-6.85983e-06,1.01149e-05,3.74345e-05,4.96787e-05,-5.32315e-06,1.80888e-05
981,8.33564e-06,7.85246e-06,4.3311e-05,5.08999e-05,-8.86007e-06,1.96175e-05
982,1.35478e-05,6.93112e-06,4.37038e-05,5.0041e-05,-9.48531e-06,2.32037e-05
983,6.93215e-06,7.61473e-06,4.0187e-05,4.7088e-05,-7.04143e-06,2.76634e-05
984,-7.49332e-06,8.5475e-06,3.40161e-05,4.56947e-05,-4.43344e-06,2.91517e-05
985,-1.94834e-05,9.48303e-06,2.87484e-05,4.75666e-05,-3.00151e-06,2.58477e-05
986,-1.33251e-05,1.13909e-05,3.17425e-05,4.89463e-05,-4.1725e-06,2.05876e-05
987,7.7385e-06,1.29898e-05,4.03706e-05,4.77706e-05,-9.50066e-06,1.68557e-05
988,2.16629e-05,1.48442e-05,4.5095e-05,4.67627e-05,-1.36088e-05,1.72862e-05
989,1.60148e-05,1.89944e-05,4.47195e-05,4.74043e-05,-1.1767e-05,1.99425e-05
990,-7.74532e-06,2.18056e-05,4.00133e-05,4.91912e-05,-6.87092e-06,1.97176e-05
991,-3.08706e-05,1.9462e-05,3.33932e-05,5.16663e-05,-9.63394e-07,1.54912e-05
992,-2.33155e-05,1.40736e-05,3.52242e-05,5.44387e-05,3.78419e-06,4.81524e-06
993,2.86058e-06,9.95084e-06,4.32239e-05,5.6157e-05,3.08837e-06,-1.15722e-05
994,1.2618e-05,1.01869e-05,4.59514e-05,5.69147e-05,-2.67712e-06,-1.81886e-05
995,9.24787e-06,1.28882e-05,4.46936e-05,5.63147e-05,-9.47863e-06,-7.32894e-06
996,6.92552e-06,1.43337e-05,4.46418e-05,5.11708e-05,-1.53756e-05,6.31096e-06
997,5.47044e-06,1.46293e-05,4.53509e-05,4.37923e-05,-2.08619e-05,9.35773e-06
998,-1.38166e-06,1.51431e-05,4.24552e-05,4.08609e-05,-2.44529e-05,5.47322e-06
999,-1.64571e-05,1.319e-05,3.44726e-05,4.39338e-05,-2.43319e-05,2.67599e-06
1000,-2.43731e-05,8.35411e-06,3.01463e-05,4.93383e-05,-2.07244e-05,4.37777e-06
1001,-1.32788e-05,5.73996e-06,3.61672e-05,5.22657e-05,-1.52887e-05,9.59621e-06
1002,4.7799e-06,6.46573e-06,4.54965e-05,5.05407e-05,-9.21121e-06,1.18625e-05
1003,1.35818e-05,8.1416e-06,4.78987e-05,4.52563e-05,-3.11776e-06,7.45345e-06
1004,7.7365e-06,1.09131e-05,4.17495e-05,4.26662e-05,7.79351e-07,4.15417e-07
1005,-8.84864e-06,1.47973e-05,3.18469e-05,4.8676e-05,1.09858e-06,-2.01356e-06
1006,-1.9285e-05,1.65115e-05,2.63815e-05,5.91619e-05,3.86957e-07,5.32586e-06
1007,-1.0939e-05,1.39119e-05,3.0358e-05,6.47892e-05,4.50086e-07,1.60109e-05
1008,5.55348e-06,9.45077e-06,3.92727e-05,6.33774e-05,-3.21574e-07,1.68902e-05
1009,1.18521e-05,7.77642e-06,4.55527e-05,5.92918e-05,-1.89385e-06,8.4184e-06
1010,3.49681e-06,1.06843e-05,4.50199e-05,5.61036e-05,-2.57115e-06,4.0926e-06
1011,-1.18935e-05,1.48652e-05,3.72819e-05,5.59323e-05,-2.22877e-06,9.06362e-06
1012,-2.04539e-05,1.58555e-05,3.0781e-05,5.92929e-05,-1.2943e-07,1.40135e-05
1013,-1.20477e-05,1.36042e-05,3.44477e-05,6.1835e-05,3.16153e-06,1.17465e-05
1014,3.41785e-06,1.06861e-05,4.24279e-05,5.8816e-05,3.26566e-06,7.4106e-06
1015,8.46233e-06,1.04343e-05,4.452e-05,5.27867e-05,-2.10096e-06,8.30663e-06
1016,-5.58715e-07,1.41037e-05,3.9667e-05,4.69418e-05,-9.04973e-06,1.19238e-05
1017,-1.88974e-05,1.79364e-05,3.03711e-05,4.35505e-05,-1.04431e-05,8.32001e-06
1018,-3.38015e-05,1.84122e-05,2.11096e-05,4.57767e-05,-6.96039e-06,-5.2156e-07
1019,-2.47585e-05,1.75752e-05,2.12622e-05,5.27534e-05,-7.59901e-06,6.57439e-07
1020,-1.75632e-06,1.8584e-05,2.69021e-05,5.93002e-05,-1.29781e-05,1.12901e-05
1021,1.02814e-05,1.90961e-05,2.71816e-05,5.94966e-05,-1.70813e-05,1.61089e-05
1022,1.44772e-05,1.6343e-05,2.79239e-05,5.68119e-05,-1.9095e-05,1.37852e-05
1023,1.63046e-05,1.13263e-05,3.28486e-05,5.61959e-05,-1.85484e-05,1.38445e-05
1024,1.2856e-05,8.57063e-06,3.58742e-05,5.40363e-05,-1.64952e-05,1.68494e-05
1025,8.78796e-07,9.22587e-06,3.28899e-05,5.0923e-05,-1.34256e-05,1.641e-05
1026,-1.96639e-05,1.00218e-05,2.50104e-05,5.16185e-05,-9.24351e-06,9.49909e-06
1027,-3.21555e-05,1.06417e-05,2.19355e-05,5.61291e-05,-7.45538e-06,9.37958e-07
1028,-2.23838e-05,1.15784e-05,2.94994e-05,5.93888e-05,-8.43984e-06,-1.50299e-07
1029,-2.64631e-06,1.32418e-05,4.04218e-05,5.85922e-05,-1.05035e-05,7.75169e-06
1030,7.56124e-06,1.70695e-05,4.49004e-05,5.59402e-05,-1.36515e-05,1.73652e-05
1031,1.60101e-06,2.24841e-05,3.98883e-05,5.36025e-05,-1.68112e-05,2.22132e-05
1032,-1.58623e-05,2.48018e-05,2.88291e-05,5.32725e-05,-1.53942e-05,2.22255e-05
1033,-2.71747e-05,2.24387e-05,2.24485e-05,5.60569e-05,-9.27384e-06,2.17467e-05
1034,-2.09587e-05,1.85523e-05,2.84915e-05,5.9474e-05,-5.75452e-06,2.25134e-05
1035,-6.51501e-06,1.57954e-05,3.97407e-05,6.12008e-05,-9.47954e-06,2.34377e-05
1036,2.39311e-06,1.53878e-05,4.53397e-05,6.07896e-05,-1.49502e-05,2.36853e-05
1037,8.27248e-07,1.68733e-05,4.28356e-05,5.85565e-05,-1.42408e-05,2.08514e-05
1038,-1.15669e-05,1.636e-05,3.42307e-05,5.61087e-05,-7.2733e-06,1.21218e-05
1039,-2.40995e-05,1.1957e-05,2.71163e-05,5.49469e-05,-6.03366e-07,1.44471e-06
1040,-1.96091e-05,8.42587e-06,3.11011e-05,5.5229e-05,4.51148e-07,-2.58334e-06
1041,-1.80299e-06,8.40071e-06,4.18092e-05,5.58569e-05,-4.70326e-06,2.55183e-06
1042,9.22366e-06,1.1017e-05,4.58542e-05,5.38087e-05,-1.23319e-05,1.10799e-05
1043,4.12674e-06,1.47874e-05,4.11158e-05,4.84911e-05,-1.55662e-05,1.72413e-05
1044,-1.31832e-05,1.63454e-05,3.43821e-05,4.38232e-05,-1.30154e-05,1.57825e-05
1045,-2.7929e-05,1.40365e-05,3.06091e-05,4.227e-05,-9.12479e-06,6.76818e-06
1046,-2.20044e-05,1.17752e-05,3.53657e-05,4.39612e-05,-6.68834e-06,2.25374e-07
1047,-4.88464e-06,1.12077e-05,4.46242e-05,4.71088e-05,-6.93199e-06,1.47169e-06
1048,2.26582e-06,9.48455e-06,4.86626e-05,4.9306e-05,-8.43719e-06,9.21245e-06
1049,1.1377e-06,6.89198e-06,5.02996e-05,4.94866e-05,-8.13168e-06,1.81427e-05
1050,-8.87519e-07,4.91198e-06,5.33252e-05,4.84514e-05,-6.02812e-06,2.27008e-05
1051,-4.26457e-06,5.091e-06,5.31694e-05,4.73131e-05,-3.59896e-06,2.26574e-05
1052,-1.27925e-05,7.10027e-06,4.59252e-05,4.70286e-05,-2.69758e-06,1.76473e-05
1053,-2.81845e-05,7.21502e-06,3.56535e-05,4.89318e-05,-2.53702e-06,9.79151e-06
1054,-3.54635e-05,4.46359e-06,3.23751e-05,5.19508e-05,-2.6579e-06,1.14268e-05
1055,-2.36941e-05,1.84613e-06,3.90085e-05,5.38445e-05,-4.833e-06,2.95936e-05
1056,-7.15191e-06,3.46733e-06,4.79766e-05,5.41618e-05,-7.80092e-06,4.53269e-05
1057,-1.31582e-06,1.06682e-05,5.3943e-05,5.20734e-05,-9.9982e-06,3.80199e-05
1058,-7.55485e-06,1.72935e-05,5.38976e-05,4.77421e-05,-1.14769e-05,1.62778e-05
1059,-1.99521e-05,1.49653e-05,4.52396e-05,4.39272e-05,-1.19536e-05,3.15436e-06
1060,-2.66399e-05,5.72581e-06,3.59242e-05,4.28954e-05,-1.18698e-05,7.28651e-06
1061,-1.8757e-05,-9.31224e-07,3.63389e-05,4.37847e-05,-1.40018e-05,2.02412e-05
1062,-4.01022e-06,-6.05996e-07,4.35849e-05,4.39263e-05,-1.9713e-05,2.91939e-05
1063,2.93219e-06,3.27518e-06,4.91344e-05,4.0437e-05,-2.52173e-05,2.79134e-05
1064,-2.45522e-06,5.57684e-06,4.89248e-05,3.48768e-05,-2.66053e-05,2.14608e-05
1065,-1.69942e-05,4.98889e-06,4.11713e-05,3.44772e-05,-2.30478e-05,1.79996e-05
1066,-2.97933e-05,3.69109e-06,3.18069e-05,4.14968e-05,-1.43139e-05,2.06073e-05
1067,-2.5575e-05,4.4711e-06,3.12466e-05,4.78804e-05,-4.51356e-06,2.58996e-05
1068,-9.10539e-06,6.76723e-06,3.75875e-05,4.75726e-05,-1.95574e-06,2.69651e-05
1069,-2.25289e-07,6.1119e-06,4.11068e-05,4.55487e-05,-8.4973e-06,2.06341e-05
1070,-5.6137e-06,2.29984e-06,3.94974e-05,4.56893e-05,-1.70783e-05,1.18004e-05
1071,-2.18524e-05,3.27656e-07,3.32168e-05,4.50046e-05,-2.19941e-05,6.27239e-06
1072,-3.52748e-05,3.42562e-07,2.58615e-05,4.27894e-05,-2.31914e-05,5.57761e-06
1073,-2.45827e-05,3.28823e-06,2.8458e-05,4.13326e-05,-2.06735e-05,9.40593e-06
1074,-4.31095e-06,1.0429e-05,3.64609e-05,4.07364e-05,-1.73102e-05,1.44534e-05
1075,-8.6503e-07,1.49261e-05,3.73046e-05,4.06577e-05,-1.63476e-05,1.64405e-05
1076,-2.55792e-06,1.49964e-05,3.59091e-05,4.30259e-05,-1.60227e-05,1.31768e-05
1077,-1.22041e-07,1.44467e-05,3.70337e-05,4.66064e-05,-1.37328e-05,6.8072e-06
1078,-3.47949e-07,1.42022e-05,3.92132e-05,4.8831e-05,-8.07989e-06,3.85878e-06
1079,-6.48011e-06,1.57772e-05,3.93223e-05,5.17604e-05,-5.38552e-06,3.59584e-06
1080,-1.8842e-05,1.87357e-05,3.38194e-05,5.75423e-05,-1.17075e-05,1.64163e-06
1081,-2.43399e-05,2.07043e-05,2.87461e-05,6.30951e-05,-2.07889e-05,1.06894e-06
1082,-1.12529e-05,2.06219e-05,3.19046e-05,6.36871e-05,-2.42301e-05,4.57083e-06
1083,8.63367e-06,1.87085e-05,3.92563e-05,6.04931e-05,-2.12438e-05,7.43599e-06
1084,1.85196e-05,1.68022e-05,4.18257e-05,5.67839e-05,-1.51463e-05,5.23639e-06
1085,1.43642e-05,1.52475e-05,3.69841e-05,5.40129e-05,-1.07715e-05,-1.54471e-07
1086,-6.1612e-07,1.10012e-05,2.71844e-05,5.3826e-05,-1.18283e-05,-2.26475e-06
1087,-1.27688e-05,5.0274e-06,2.05386e-05,5.69549e-05,-1.56496e-05,6.25968e-06
1088,-7.96605e-06,2.8633e-06,2.41525e-05,6.06623e-05,-1.58443e-05,2.28984e-05
1089,8.35401e-06,6.67335e-06,3.37541e-05,6.37382e-05,-1.08876e-05,3.40421e-05
1090,1.94353e-05,1.36672e-05,4.02908e-05,6.55829e-05,-6.67296e-06,3.23376e-05
1091,1.64516e-05,1.97096e-05,4.13495e-05,6.24698e-05,-7.52072e-06,2.53819e-05
1092,7.33732e-07,2.16733e-05,3.79281e-05,5.63572e-05,-9.83464e-06,2.05001e-05
1093,-1.31771e-05,1.89852e-05,3.33519e-05,5.58834e-05,-8.993e-06,1.85449e-05
1094,-8.35113e-06,1.53913e-05,3.50954e-05,6.23759e-05,-7.41477e-06,2.10851e-05
1095,8.24143e-06,1.37511e-05,4.2736e-05,6.82125e-05,-9.96637e-06,2.54012e-05
1096,1.73519e-05,1.44856e-05,4.83951e-05,6.87919e-05,-1.49565e-05,2.13615e-05
1097,1.33108e-05,1.71167e-05,4.88844e-05,6.5181e-05,-1.51531e-05,5.04533e-06
1098,-2.20771e-06,1.94984e-05,4.34819e-05,6.18983e-05,-9.34463e-06,-1.43561e-05
1099,-1.8143e-05,1.95778e-05,3.6859e-05,6.38739e-05,-4.06416e-06,-2.30426e-05
1100,-1.39362e-05,1.70231e-05,3.84237e-05,6.76795e-05,-3.20272e-06,-1.3995e-05
1101,2.13106e-06,1.41578e-05,4.31973e-05,6.61118e-05,-4.41063e-06,1.60207e-06
1102,6.88327e-06,1.45017e-05,4.29009e-05,6.14563e-05,-4.5017e-06,1.00194e-05
1103,4.73101e-06,1.73982e-05,4.19617e-05,5.88278e-05,-3.66562e-06,1.75451e-05
1104,6.70639e-06,1.69195e-05,4.17867e-05,5.81958e-05,-4.16224e-06,2.59295e-05
1105,1.15641e-05,1.32745e-05,4.0875e-05,5.54008e-05,-5.47929e-06,2.70951e-05
1106,8.6267e-06,1.24893e-05,3.81567e-05,5.0539e-05,-5.71775e-06,2.32645e-05
1107,-8.39801e-06,1.33046e-05,3.30739e-05,4.94894e-05,-5.89667e-06,1.92413e-05
1108,-2.16083e-05,1.23357e-05,3.16364e-05,5.17635e-05,-6.08396e-06,1.59009e-05
1109,-1.42557e-05,9.48747e-06,3.67184e-05,5.10544e-05,-5.29216e-06,1.23701e-05
1110,1.94746e-06,6.77667e-06,4.24908e-05,4.53463e-05,-3.44004e-06,1.01679e-05
1111,1.00788e-05,7.98081e-06,4.3925e-05,3.8738e-05,-9.86089e-07,1.29927e-05
1112,5.55933e-06,1.23301e-05,4.10311e-05,3.47165e-05,2.49252e-06,1.94503e-05
1113,-9.69955e-06,1.41165e-05,3.45403e-05,3.48405e-05,6.82014e-06,2.21715e-05
1114,-2.20051e-05,1.17378e-05,3.00668e-05,3.98625e-05,8.55685e-06,1.96054e-05
1115,-1.80119e-05,1.0882e-05,3.47681e-05,4.58714e-05,6.39396e-06,1.93839e-05
1116,-4.33117e-06,1.45848e-05,4.52837e-05,4.90486e-05,3.06307e-06,2.63436e-05
1117,4.27878e-06,1.78785e-05,5.16241e-05,4.93955e-05,4.25655e-08,3.22017e-05
1118,1.58508e-06,1.56017e-05,4.94403e-05,4.75911e-05,-3.61801e-06,2.60436e-05
1119,-1.19521e-05,8.47316e-06,4.11964e-05,4.55258e-05,-8.18006e-06,9.33027e-06
1120,-2.32486e-05,1.24757e-06,3.49898e-05,4.66166e-05,-1.16024e-05,-4.41956e-06
1121,-1.39727e-05,-1.25554e-06,3.86862e-05,5.04767e-05,-1.24995e-05,-3.37149e-06
1122,7.8131e-06,9.60332e-07,4.71122e-05,5.25125e-05,-1.09996e-05,6.91819e-06
1123,1.57563e-05,3.83537e-06,5.04249e-05,4.92251e-05,-8.03452e-06,1.20388e-05
1124,3.02133e-06,3.5371e-06,4.78186e-05,4.16281e-05,-8.51271e-06,9.0897e-06
1125,-1.93051e-05,1.80631e-07,4.00263e-05,3.64283e-05,-1.42411e-05,3.78573e-06
1126,-3.3393e-05,-2.29548e-06,3.18694e-05,3.70607e-05,-1.81159e-05,1.00536e-06
1127,-2.11519e-05,2.9655e-07,3.3324e-05,3.77988e-05,-1.50173e-05,4.37682e-06
1128,1.13891e-07,7.64798e-06,3.87443e-05,3.48127e-05,-9.92361e-06,9.88374e-06
1129,4.87481e-06,1.26889e-05,3.91064e-05,3.3173e-05,-9.15779e-06,9.65732e-06
1130,2.82642e-06,1.06911e-05,3.94022e-05,3.7193e-05,-1.00742e-05,7.32114e-06
1131,2.37395e-06,7.50003e-06,4.05913e-05,4.19134e-05,-9.44789e-06,1.00233e-05
1132,5.42935e-07,8.68935e-06,4.01119e-05,4.10985e-05,-8.38593e-06,1.64702e-05
1133,-7.17788e-06,1.06852e-05,3.83472e-05,3.75237e-05,-7.23794e-06,2.08636e-05
1134,-2.24057e-05,1.02856e-05,3.30871e-05,3.80869e-05,-6.11757e-06,2.01327e-05
1135,-2.98298e-05,8.55972e-06,2.74165e-05,4.18897e-05,-6.21151e-06,1.8943e-05
1136,-1.84905e-05,8.72731e-06,2.78667e-05,4.33935e-05,-9.35542e-06,2.16636e-05
1137,-1.21915e-06,1.17634e-05,3.28996e-05,4.12923e-05,-1.32657e-05,2.56379e-05
1138,6.54378e-06,1.53882e-05,3.56061e-05,3.62371e-05,-1.36581e-05,2.58781e-05
1139,1.99659e-06,1.87663e-05,3.24515e-05,3.09604e-05,-1.14457e-05,2.24463e-05
1140,-1.18711e-05,2.18923e-05,2.4975e-05,3.0206e-05,-1.06443e-05,1.70192e-05
1141,-2.15155e-05,2.39043e-05,2.07972e-05,3.62329e-05,-1.18557e-05,1.30261e-05
1142,-1.41288e-05,2.43853e-05,2.58413e-05,4.5254e-05,-1.34688e-05,1.34666e-05
1143,1.96185e-06,2.38459e-05,3.38573e-05,5.21797e-05,-1.66234e-05,1.68315e-05
1144,9.42654e-06,2.27803e-05,3.49098e-05,5.47324e-05,-2.1617e-05,2.12314e-05
1145,4.10761e-06,2.12676e-05,2.91231e-05,5.33901e-05,-2.36118e-05,2.63652e-05
1146,-9.42586e-06,1.93563e-05,2.16601e-05,5.15524e-05,-1.91582e-05,2.72947e-05
1147,-2.05059e-05,1.82528e-05,1.81939e-05,5.24984e-05,-1.21607e-05,1.84374e-05
1148,-1.65772e-05,1.83355e-05,2.46001e-05,5.58442e-05,-7.79962e-06,7.70354e-06
1149,-2.40067e-06,1.66123e-05,3.54521e-05,5.91565e-05,-6.33627e-06,7.1876e-06
1150,6.46137e-06,1.13359e-05,4.01475e-05,6.13668e-05,-3.80011e-06,1.4361e-05
1151,2.95034e-06,5.82591e-06,3.76329e-05,6.09464e-05,8.72419e-07,1.90121e-05
1152,-1.50472e-05,2.32415e-06,2.99526e-05,6.05815e-05,4.7837e-07,1.95218e-05
1153,-3.565e-05,6.96201e-07,2.24323e-05,6.49661e-05,-9.13419e-06,2.10282e-05
1154,-3.24511e-05,3.38279e-06,2.5765e-05,6.85377e-05,-1.97242e-05,3.06911e-05
1155,-1.26715e-05,9.10004e-06,3.56966e-05,6.57994e-05,-2.32792e-05,3.91125e-05
1156,-4.90245e-06,1.2513e-05,3.9077e-05,6.23213e-05,-2.07996e-05,2.84586e-05
1157,-6.80312e-06,1.21143e-05,3.66847e-05,6.3491e-05,-1.68194e-05,7.55231e-06
1158,-4.65581e-06,9.44224e-06,3.39652e-05,6.50503e-05,-1.4335e-05,-2.68711e-06
1159,8.69026e-07,7.82535e-06,3.32446e-05,6.00144e-05,-1.25125e-05,5.08837e-06
1160,-1.25209e-06,8.62854e-06,3.15067e-05,5.2327e-05,-9.72441e-06,1.98467e-05
1161,-1.67087e-05,1.01778e-05,2.44206e-05,5.12318e-05,-7.10176e-06,2.55033e-05
1162,-2.79287e-05,1.10136e-05,2.01239e-05,5.53445e-05,-5.73893e-06,2.18493e-05
1163,-1.87746e-05,9.59362e-06,2.58923e-05,5.82019e-05,-6.06317e-06,1.91034e-05
1164,-3.08096e-06,6.84885e-06,3.45709e-05,5.74005e-05,-8.29408e-06,2.08401e-05
1165,1.62457e-06,6.24203e-06,3.71176e-05,5.18972e-05,-9.24173e-06,2.22158e-05
1166,-4.71746e-06,7.63622e-06,3.30235e-05,4.43008e-05,-7.87774e-06,2.01421e-05
1167,-1.63876e-05,6.62642e-06,2.64058e-05,3.91193e-05,-8.54227e-06,1.54185e-05
1168,-2.14828e-05,1.87833e-06,2.2807e-05,3.81702e-05,-1.19522e-05,1.34306e-05
1169,-1.01168e-05,-1.51039e-06,2.5917e-05,3.93234e-05,-1.42912e-05,1.84182e-05
1170,7.25261e-06,3.16868e-08,3.31741e-05,4.04953e-05,-1.6216e-05,2.4786e-05
1171,1.18449e-05,5.14743e-06,3.8757e-05,4.02032e-05,-1.92901e-05,2.34971e-05
1172,1.00581e-06,1.12692e-05,3.80449e-05,3.85076e-05,-1.94358e-05,1.4304e-05
1173,-1.64585e-05,1.57015e-05,3.08907e-05,3.96993e-05,-1.50372e-05,5.15965e-06
1174,-2.77586e-05,1.65439e-05,2.62342e-05,4.47261e-05,-1.02898e-05,3.59575e-06
1175,-2.0493e-05,1.43346e-05,3.26324e-05,4.86983e-05,-7.18105e-06,1.31961e-05
1176,-2.3569e-06,1.12275e-05,4.35574e-05,4.92314e-05,-5.97568e-06,3.02992e-05
1177,5.311e-06,1.21925e-05,4.69371e-05,4.82019e-05,-8.58951e-06,3.87924e-05
1178,-2.6869e-06,1.8561e-05,4.03753e-05,4.66938e-05,-1.33174e-05,2.40037e-05
1179,-1.92248e-05,2.18968e-05,2.95077e-05,4.57489e-05,-1.39905e-05,-2.80032e-06
1180,-3.16172e-05,1.71488e-05,2.30712e-05,4.68387e-05,-8.9903e-06,-1.52268e-05
1181,-2.04436e-05,1.1343e-05,2.7715e-05,4.80236e-05,-3.17075e-06,-4.06538e-06
1182,4.21747e-06,1.27988e-05,3.60273e-05,4.64122e-05,-9.04389e-07,1.48769e-05
1183,1.44674e-05,1.80096e-05,3.79287e-05,4.46525e-05,-3.6095e-06,2.47393e-05
1184,1.13853e-05,1.90671e-05,3.73508e-05,4.66247e-05,-9.44588e-06,2.5155e-05
1185,6.22919e-06,1.70659e-05,3.9028e-05,4.8863e-05,-1.45537e-05,2.26574e-05
1186,3.77915e-06,1.58328e-05,4.07222e-05,4.85052e-05,-1.49734e-05,2.05479e-05
1187,-2.13954e-07,1.49417e-05,3.90415e-05,4.93683e-05,-1.1401e-05,1.83882e-05
1188,-1.38698e-05,1.22972e-05,3.37705e-05,5.29516e-05,-7.38779e-06,1.2869e-05
1189,-2.3431e-05,8.22309e-06,3.20609e-05,5.75154e-05,-3.83808e-06,6.66402e-06
1190,-1.29158e-05,6.30829e-06,3.92688e-05,6.13402e-05,-1.91553e-06,4.88957e-06
1191,7.44495e-06,6.53148e-06,4.67753e-05,6.30609e-05,-2.84151e-06,3.98389e-06
1192,1.91949e-05,6.77811e-06,4.71521e-05,6.04643e-05,-4.68198e-06,8.2403e-07
1193,1.43624e-05,6.97594e-06,4.17856e-05,5.42861e-05,-5.06728e-06,3.78061e-07
1194,-4.58168e-06,6.47825e-06,3.29461e-05,5.04227e-05,-3.83354e-06,5.49994e-06
1195,-1.99721e-05,5.88109e-06,2.82586e-05,5.32703e-05,-2.65466e-06,1.01278e-05
1196,-1.61497e-05,7.92018e-06,3.34486e-05,5.97287e-05,-3.97444e-06,8.31307e-06
1197,-1.19928e-06,1.21034e-05,4.17343e-05,6.37544e-05,-7.84947e-06,3.90021e-06
1198,7.27735e-06,1.4278e-05,4.37017e-05,6.16053e-05,-1.19991e-05,4.84294e-06
1199,3.21089e-06,1.24241e-05,3.87384e-05,5.51216e-05,-1.30943e-05,1.13488e-05
1200,-1.00505e-05,8.35897e-06,3.03662e-05,5.19693e-05,-9.64705e-06,1.76121e-05
1201,-2.03341e-05,5.63559e-06,2.5683e-05,5.57296e-05,-4.94149e-06,2.17463e-05
1202,-1.47349e-05,5.75992e-06,3.17593e-05,6.05567e-05,-4.45706e-06,2.61857e-05
1203,-7.35955e-07,6.78917e-06,4.2835e-05,6.01849e-05,-8.61442e-06,2.91324e-05
1204,5.95906e-06,9.50951e-06,4.83606e-05,5.68442e-05,-1.16368e-05,2.51305e-05
1205,1.43373e-06,1.45996e-05,4.73477e-05,5.61435e-05,-9.97367e-06,1.67661e-05
1206,-1.2865e-05,1.54964e-05,3.96868e-05,5.95594e-05,-6.26107e-06,9.54882e-06
1207,-2.5372e-05,9.72822e-06,3.08522e-05,6.2702e-05,-3.19361e-06,4.27965e-06
1208,-1.52445e-05,5.67415e-06,3.34617e-05,6.01156e-05,-1.14392e-06,5.05719e-06
1209,5.78127e-06,7.44628e-06,4.06333e-05,5.32387e-05,-1.4003e-06,1.0533e-05
1210,1.08169e-05,1.03818e-05,4.07134e-05,4.81534e-05,-2.776e-06,1.40361e-05
1211,6.52808e-06,1.18925e-05,3.91198e-05,4.79374e-05,-1.06205e-06,1.68025e-05
1212,3.93926e-06,1.24886e-05,3.90678e-05,5.11594e-05,4.11485e-06,1.83354e-05
1213,2.1685e-06,1.41666e-05,3.74193e-05,5.19874e-05,7.01733e-06,1.56239e-05
1214,-5.17844e-06,1.71081e-05,3.42254e-05,4.6804e-05,1.99981e-06,1.13082e-05
1215,-2.44162e-05,1.6677e-05,2.94944e-05,4.14052e-05,-5.41012e-06,8.97239e-06
1216,-3.83227e-05,1.19348e-05,2.64169e-05,4.29821e-05,-6.1529e-06,1.01919e-05
1217,-2.99351e-05,7.85429e-06,3.06825e-05,4.98089e-05,-1.67515e-06,1.5819e-05
1218,-1.1792e-05,6.8557e-06,3.89039e-05,5.56492e-05,1.30003e-06,2.26806e-05
1219,-3.35825e-06,8.94561e-06,4.26854e-05,5.63836e-05,-3.59641e-07,2.59154e-05
1220,-8.22703e-06,1.25652e-05,3.92937e-05,5.23821e-05,-4.17134e-06,2.43715e-05
1221,-1.99642e-05,1.37178e-05,3.19986e-05,4.82206e-05,-8.2105e-06,1.84016e-05
1222,-2.5583e-05,1.23643e-05,2.81069e-05,4.88275e-05,-1.12708e-05,1.26339e-05
1223,-1.56228e-05,1.20137e-05,3.15562e-05,5.2712e-05,-1.17015e-05,1.36345e-05
1224,1.46304e-06,1.32975e-05,3.77673e-05,5.59217e-05,-1.10892e-05,2.20714e-05
1225,1.09253e-05,1.49757e-05,4.0625e-05,5.847e-05,-1.24642e-05,3.2834e-05
1226,6.83891e-06,1.57853e-05,3.82421e-05,6.07999e-05,-1.3874e-05,3.76442e-05
1227,-9.95564e-06,1.30681e-05,3.22586e-05,6.33976e-05,-1.21662e-05,2.81514e-05
1228,-2.64351e-05,7.472e-06,2.86143e-05,6.75028e-05,-9.1647e-06,6.95345e-06
1229,-2.34182e-05,6.2981e-06,3.22737e-05,7.14666e-05,-8.03049e-06,-1.03179e-05
1230,-4.75658e-06,1.25444e-05,3.74101e-05,7.0669e-05,-9.75894e-06,-1.19095e-05
1231,8.67643e-06,2.03197e-05,3.72898e-05,6.45714e-05,-1.29269e-05,-1.67115e-06
1232,6.73629e-06,2.46598e-05,3.46039e-05,5.91964e-05,-1.57272e-05,8.44769e-06
1233,-1.13357e-05,2.46891e-05,3.03701e-05,5.97137e-05,-1.68562e-05,1.2448e-05
1234,-3.21598e-05,2.23191e-05,2.74807e-05,6.35391e-05,-1.56102e-05,1.15815e-05
1235,-2.7685e-05,2.08567e-05,3.36197e-05,6.47897e-05,-1.20755e-05,1.061e-05
1236,-7.11773e-06,1.91984e-05,4.27034e-05,6.15806e-05,-7.17748e-06,1.25771e-05
1237,1.05918e-06,1.67238e-05,4.32857e-05,5.53851e-05,-3.78167e-06,1.54691e-05
1238,3.36892e-06,1.67994e-05,3.91249e-05,4.8827e-05,-3.06817e-06,1.87419e-05
1239,6.72776e-06,1.82483e-05,3.72733e-05,4.31775e-05,-4.06289e-06,2.04879e-05
1240,6.38895e-06,1.80478e-05,3.79827e-05,3.75826e-05,-6.72628e-06,1.90329e-05
1241,-1.1996e-06,1.65249e-05,3.77533e-05,3.48889e-05,-8.93082e-06,1.46091e-05
1242,-1.82422e-05,1.44172e-05,3.27025e-05,3.75854e-05,-1.03415e-05,6.7358e-06
1243,-2.90992e-05,1.28854e-05,2.92733e-05,4.32511e-05,-1.16012e-05,1.60269e-06
1244,-1.85217e-05,1.28789e-05,3.52601e-05,4.77433e-05,-1.119e-05,4.2991e-06
1245,1.08354e-06,1.32853e-05,4.55329e-05,4.75048e-05,-9.88284e-06,1.0485e-05
1246,1.17407e-05,1.46393e-05,5.15916e-05,4.20923e-05,-9.72045e-06,1.30256e-05
1247,8.27705e-06,1.77141e-05,5.01419e-05,3.59468e-05,-1.06301e-05,1.10892e-05
1248,-6.11063e-06,1.94043e-05,4.20001e-05,3.5883e-05,-1.1333e-05,7.76782e-06
1249,-1.6938e-05,1.76181e-05,3.48644e-05,4.28787e-05,-1.12118e-05,5.90646e-06
1250,-1.14903e-05,1.51258e-05,3.7206e-05,4.94278e-05,-1.04862e-05,7.75043e-06
1251,4.04134e-06,1.49854e-05,4.56754e-05,4.9587e-05,-8.8585e-06,1.13144e-05
1252,1.38087e-05,1.77147e-05,4.99415e-05,4.50826e-05,-6.98752e-06,1.17025e-05
1253,9.13021e-06,2.10833e-05,4.53413e-05,4.12122e-05,-8.08406e-06,8.41877e-06
1254,-8.65676e-06,2.13833e-05,3.46639e-05,4.20787e-05,-1.24804e-05,4.6048e-06
1255,-2.40759e-05,1.81186e-05,2.75233e-05,4.58848e-05,-1.40588e-05,3.96097e-06
1256,-1.96186e-05,1.43004e-05,3.27124e-05,4.8467e-05,-9.39403e-06,1.02839e-05
1257,-1.38593e-06,1.13237e-05,4.42602e-05,5.02505e-05,-4.62667e-06,2.01771e-05
1258,1.25651e-05,9.83319e-06,4.94273e-05,5.22492e-05,-5.30802e-06,2.5662e-05
1259,1.33907e-05,1.01067e-05,4.48944e-05,5.23997e-05,-9.07953e-06,2.49676e-05
1260,-3.3106e-06,8.24114e-06,3.50787e-05,5.14993e-05,-1.20194e-05,2.11582e-05
1261,-2.50038e-05,5.12817e-06,2.89191e-05,5.09153e-05,-1.33836e-05,1.78937e-05
1262,-2.15117e-05,6.58156e-06,3.42772e-05,4.87162e-05,-1.17251e-05,2.06657e-05
1263,7.89452e-07,7.62549e-06,4.31074e-05,4.6938e-05,-3.99214e-06,2.56666e-05
1264,9.57173e-06,4.39072e-06,4.48252e-05,4.95531e-05,3.65806e-06,2.31141e-05
1265,5.65418e-06,2.59766e-06,4.50692e-05,5.44749e-05,7.7295e-07,1.58217e-05
1266,2.2218e-06,4.5158e-06,4.67941e-05,5.62095e-05,-7.27961e-06,1.28536e-05
1267,3.00268e-06,9.4815e-06,4.61119e-05,5.21222e-05,-1.11743e-05,1.68882e-05
1268,7.40261e-07,1.47762e-05,4.22245e-05,4.65313e-05,-1.20006e-05,2.01216e-05
1269,-1.55053e-05,1.91311e-05,3.50883e-05,4.62048e-05,-1.1088e-05,1.50789e-05
1270,-3.02892e-05,2.18413e-05,3.14816e-05,5.06232e-05,-8.61884e-06,8.82099e-06
1271,-2.39766e-05,1.99346e-05,3.62648e-05,5.45613e-05,-7.34777e-06,1.04123e-05
1272,-8.28292e-06,1.50387e-05,4.22617e-05,5.47479e-05,-8.31052e-06,1.60996e-05
1273,-3.8339e-06,1.36958e-05,4.38334e-05,5.12342e-05,-8.14589e-06,1.76412e-05
1274,-1.22873e-05,1.60869e-05,4.08039e-05,4.73754e-05,-5.04756e-06,1.42357e-05
1275,-2.38523e-05,1.45508e-05,3.34296e-05,4.65743e-05,-2.58743e-06,1.03072e-05
1276,-2.60483e-05,8.11974e-06,2.77555e-05,4.85625e-05,-2.69893e-06,9.44037e-06
1277,-1.53767e-05,3.08494e-06,3.11625e-05,4.97262e-05,-3.30383e-06,1.26911e-05
1278,-1.69804e-06,3.33347e-06,3.96882e-05,4.94646e-05,-4.18809e-06,1.85135e-05
1279,5.46787e-06,8.02905e-06,4.38082e-05,4.88452e-05,-5.55047e-06,2.46583e-05
1280,3.93214e-06,1.40391e-05,4.09025e-05,4.76353e-05,-4.11916e-06,3.01152e-05
1281,-6.75743e-06,1.71169e-05,3.21376e-05,4.80536e-05,1.01759e-06,3.18155e-05
1282,-1.76895e-05,1.48256e-05,2.36086e-05,5.07264e-05,2.76009e-06,2.58795e-05
1283,-1.48264e-05,1.00338e-05,2.61541e-05,5.21562e-05,-3.5172e-06,1.55745e-05
1284,-2.5807e-06,7.05267e-06,3.80414e-05,5.15788e-05,-9.78805e-06,1.04421e-05
1285,4.37995e-06,6.92723e-06,4.5203e-05,4.94548e-05,-9.28776e-06,1.19521e-05
1286,2.03205e-06,1.00889e-05,4.23134e-05,4.5241e-05,-6.63095e-06,9.94488e-06
1287,-1.06469e-05,1.57166e-05,3.31992e-05,4.38385e-05,-6.27191e-06,-5.65482e-07
1288,-2.60052e-05,1.93889e-05,2.58605e-05,4.9125e-05,-8.04419e-06,-9.07853e-06
1289,-2.07734e-05,1.87749e-05,3.15839e-05,5.62884e-05,-8.75469e-06,-4.36683e-06
1290,-5.38622e-07,1.56851e-05,4.35483e-05,6.07451e-05,-6.93663e-06,6.73763e-06
1291,1.01588e-05,1.40714e-05,4.59783e-05,6.40077e-05,-6.40858e-06,1.29335e-05
1292,1.28356e-05,1.56069e-05,4.2777e-05,6.78601e-05,-7.38415e-06,1.32557e-05
1293,1.34334e-05,1.77458e-05,4.1232e-05,6.78277e-05,-7.72602e-06,8.09365e-06
1294,1.08024e-05,1.83229e-05,4.02195e-05,6.02073e-05,-8.03344e-06,-1.69926e-06
1295,2.61568e-07,1.77224e-05,3.64094e-05,5.21741e-05,-1.09285e-05,-1.01036e-05
1296,-1.95605e-05,1.52967e-05,2.84406e-05,5.06941e-05,-1.53328e-05,-1.06066e-05
1297,-3.04224e-05,1.10613e-05,2.46934e-05,5.33031e-05,-1.47194e-05,6.83285e-08
1298,-2.07074e-05,9.24127e-06,2.96514e-05,5.56714e-05,-7.49101e-06,1.46566e-05
1299,-4.19364e-06,1.15597e-05,3.62216e-05,5.60941e-05,-3.83503e-07,1.63133e-05
1300,4.60774e-06,1.55013e-05,3.83559e-05,5.29341e-05,3.89903e-07,3.60574e-06
1301,2.10079e-06,1.76831e-05,3.41744e-05,4.63557e-05,-3.30468e-06,-6.19725e-06
1302,-1.0158e-05,1.50877e-05,2.53624e-05,4.24681e-05,-6.78943e-06,-4.08184e-06
1303,-1.86629e-05,7.99914e-06,2.07223e-05,4.55196e-05,-6.52062e-06,2.09061e-06
1304,-1.13291e-05,1.70141e-06,2.65032e-05,4.98302e-05,-3.19994e-06,4.2292e-06
1305,3.35935e-06,3.30464e-07,3.54891e-05,4.89921e-05,-1.80077e-06,6.51827e-06
1306,1.11452e-05,2.58489e-06,3.80368e-05,4.38763e-05,-4.26555e-06,1.62252e-05
1307,8.97544e-06,5.03591e-06,3.37672e-05,3.99128e-05,-8.51846e-06,2.85986e-05
1308,-2.71788e-06,5.28437e-06,2.62176e-05,4.09759e-05,-1.21509e-05,2.85715e-05
1309,-1.59219e-05,4.12886e-06,2.20899e-05,4.48766e-05,-1.27927e-05,1.35829e-05
1310,-1.57939e-05,5.12268e-06,2.81228e-05,4.62731e-05,-1.03529e-05,2.38102e-06
1311,-3.78293e-06,7.94965e-06,3.94512e-05,4.41343e-05,-1.0269e-05,7.65944e-06
1312,5.28162e-06,9.42291e-06,4.50922e-05,4.17616e-05,-1.42254e-05,1.97269e-05
1313,2.45493e-06,1.08353e-05,4.11441e-05,3.96851e-05,-1.65473e-05,2.57147e-05
1314,-1.36818e-05,1.19144e-05,3.08131e-05,3.85706e-05,-1.5719e-05,2.23868e-05
1315,-3.10043e-05,9.39469e-06,2.19783e-05,4.27465e-05,-1.55401e-05,1.40146e-05
1316,-2.92538e-05,5.21413e-06,2.55704e-05,5.11396e-05,-1.72149e-05,9.64783e-06
1317,-1.5727e-05,3.7582e-06,3.71346e-05,5.60063e-05,-1.91156e-05,1.37267e-05
1318,-8.40193e-06,4.43898e-06,4.21769e-05,5.49844e-05,-2.14505e-05,2.15932e-05
1319,-2.63402e-06,3.14113e-06,4.32033e-05,5.33038e-05,-2.55539e-05,2.61471e-05
1320,5.1922e-06,-3.53547e-07,4.64206e-05,5.39194e-05,-2.97105e-05,2.51697e-05
1321,9.44017e-06,1.1873e-08,4.92939e-05,5.41163e-05,-2.96686e-05,2.22249e-05
1322,4.22508e-06,5.87274e-06,4.63573e-05,5.26973e-05,-2.24023e-05,2.05002e-05
1323,-1.18958e-05,9.39486e-06,3.62517e-05,5.26133e-05,-1.23412e-05,1.82014e-05
1324,-2.20896e-05,5.2025e-06,2.95961e-05,5.433e-05,-7.25108e-06,1.43943e-05
1325,-1.34677e-05,-4.61155e-07,3.47586e-05,5.51129e-05,-8.964e-06,1.23374e-05
1326,1.95935e-06,2.29583e-06,4.48006e-05,5.44174e-05,-1.35429e-05,1.22139e-05
1327,8.36617e-06,1.19186e-05,4.84038e-05,5.28002e-05,-1.49837e-05,1.23892e-05
1328,1.59557e-06,1.75595e-05,4.3332e-05,5.01281e-05,-1.19411e-05,1.32974e-05
1329,-1.40826e-05,1.3e-05,3.31634e-05,4.79989e-05,-8.81115e-06,1.45428e-05
1330,-2.48433e-05,4.45041e-06,2.53817e-05,4.80823e-05,-7.75934e-06,1.55045e-05
1331,-1.82424e-05,2.13497e-06,2.62583e-05,4.85514e-05,-7.73198e-06,1.70721e-05
1332,-1.17451e-06,7.06422e-06,3.26384e-05,4.84571e-05,-9.20581e-06,1.88957e-05
1333,9.63342e-06,1.34073e-05,3.79852e-05,4.90116e-05,-1.29179e-05,1.78525e-05
1334,6.26623e-06,1.71175e-05,3.90703e-05,5.01422e-05,-1.69124e-05,1.28714e-05
1335,-8.11386e-06,1.79747e-05,3.37713e-05,5.12348e-05,-1.89283e-05,5.85139e-06
1336,-1.87185e-05,1.63011e-05,2.55871e-05,5.22819e-05,-1.86891e-05,1.03573e-06
1337,-1.08696e-05,1.27698e-05,2.38207e-05,5.3366e-05,-1.7323e-05,3.27059e-06
1338,7.38664e-06,8.67355e-06,2.9728e-05,5.32209e-05,-1.57144e-05,1.04451e-05
1339,1.54569e-05,7.01557e-06,3.6683e-05,4.997e-05,-1.1667e-05,1.6727e-05
1340,7.03604e-06,9.47231e-06,3.9828e-05,4.59136e-05,-4.52536e-06,2.24353e-05
1341,-1.2903e-05,1.31279e-05,3.50172e-05,4.59885e-05,-1.563e-06,2.81565e-05
1342,-2.90986e-05,1.3007e-05,2.60003e-05,4.97254e-05,-6.95976e-06,2.90979e-05
1343,-1.99024e-05,9.41102e-06,2.43432e-05,5.25705e-05,-1.40661e-05,2.08237e-05
1344,7.85486e-07,8.73811e-06,2.81719e-05,5.17947e-05,-1.58881e-05,5.51947e-06
1345,7.34204e-06,1.23123e-05,3.13177e-05,4.85335e-05,-1.27734e-05,-8.06833e-06
1346,6.74788e-06,1.619e-05,3.62868e-05,4.83065e-05,-1.07177e-05,-1.04514e-05
1347,6.05685e-06,1.65272e-05,4.11941e-05,5.19555e-05,-1.2688e-05,2.81838e-07
1348,4.43773e-06,1.33417e-05,4.18751e-05,5.34822e-05,-1.47052e-05,1.4637e-05
1349,-1.59733e-06,9.65602e-06,3.98055e-05,5.23886e-05,-1.31221e-05,2.2319e-05
1350,-1.61777e-05,7.4739e-06,3.65587e-05,5.35906e-05,-9.70282e-06,2.13948e-05
1351,-2.51289e-05,8.46454e-06,3.58811e-05,5.74762e-05,-7.57323e-06,1.84038e-05
1352,-1.52614e-05,1.19397e-05,4.1177e-05,5.98635e-05,-6.0378e-06,1.93814e-05
1353,1.89644e-06,1.4319e-05,4.71981e-05,5.90434e-05,-4.57784e-06,2.13995e-05
1354,1.00098e-05,1.50657e-05,4.90461e-05,5.62756e-05,-4.78138e-06,2.04154e-05
1355,4.23144e-06,1.61612e-05,4.65676e-05,5.49551e-05,-5.55319e-06,1.70794e-05
1356,-1.33115e-05,1.68318e-05,4.03204e-05,5.78262e-05,-4.8605e-06,1.3962e-05
1357,-2.62744e-05,1.58216e-05,3.5232e-05,6.24593e-05,-3.85489e-06,1.32774e-05
1358,-1.83333e-05,1.40034e-05,3.73456e-05,6.2892e-05,-6.36628e-06,1.51773e-05
1359,1.07547e-06,1.34786e-05,4.49808e-05,5.77167e-05,-1.22187e-05,1.77655e-05
1360,1.04353e-05,1.58038e-05,5.14935e-05,5.07086e-05,-1.65346e-05,1.92124e-05
1361,4.4496e-06,1.8839e-05,5.21833e-05,4.43589e-05,-1.60644e-05,1.88985e-05
1362,-1.05931e-05,1.88544e-05,4.605e-05,4.01636e-05,-1.29038e-05,1.65456e-05
1363,-2.30103e-05,1.70477e-05,3.89188e-05,3.98542e-05,-1.09059e-05,1.38553e-05
1364,-1.71512e-05,1.61095e-05,3.96923e-05,4.28961e-05,-1.17208e-05,1.37909e-05
1365,3.15167e-06,1.45014e-05,4.63545e-05,4.65882e-05,-1.42638e-05,1.527e-05
1366,1.48428e-05,1.293e-05,4.88767e-05,4.73274e-05,-1.42808e-05,1.57439e-05
1367,8.20734e-06,1.36317e-05,4.43502e-05,4.41064e-05,-1.07219e-05,1.62788e-05
1368,-1.13173e-05,1.23799e-05,3.48735e-05,4.19118e-05,-8.61221e-06,1.43823e-05
1369,-2.91975e-05,6.54465e-06,2.67901e-05,4.57843e-05,-9.77247e-06,9.53221e-06
1370,-2.23493e-05,2.66441e-06,2.92901e-05,5.38225e-05,-1.04991e-05,1.14033e-05
1371,6.30406e-07,5.04194e-06,3.84156e-05,5.8289e-05,-8.88991e-06,2e-05
1372,1.07679e-05,1.0213e-05,4.38685e-05,5.77179e-05,-6.67957e-06,2.5122e-05
1373,8.1037e-06,1.44294e-05,4.47212e-05,5.75955e-05,-5.74632e-06,2.68467e-05
1374,4.39389e-06,1.53454e-05,4.41125e-05,5.86478e-05,-4.80256e-06,2.69993e-05
1375,2.86065e-06,1.38288e-05,4.39389e-05,5.86618e-05,-1.98339e-06,2.56245e-05
1376,-2.95107e-06,1.30397e-05,4.14969e-05,5.63101e-05,-9.94513e-08,2.43773e-05
1377,-1.935e-05,1.16325e-05,3.44959e-05,5.38522e-05,-1.39734e-06,2.08991e-05
1378,-3.17062e-05,8.72698e-06,3.03285e-05,5.37821e-05,-2.88501e-06,1.84055e-05
1379,-2.5122e-05,7.89284e-06,3.49259e-05,5.50682e-05,-3.26738e-06,2.3683e-05
1380,-9.45088e-06,1.09001e-05,4.19172e-05,5.65937e-05,-4.38966e-06,3.26228e-05
1381,-1.20154e-06,1.57394e-05,4.35384e-05,5.6503e-05,-5.55787e-06,3.57314e-05
1382,-6.55167e-06,1.94494e-05,3.88071e-05,5.52492e-05,-4.20271e-06,3.19363e-05
1383,-2.22783e-05,1.94668e-05,2.97196e-05,5.49581e-05,-2.64048e-06,2.57757e-05
1384,-3.19187e-05,1.67004e-05,2.42781e-05,5.64225e-05,-4.39262e-06,2.0421e-05
1385,-2.21743e-05,1.50579e-05,2.92122e-05,5.83403e-05,-8.49375e-06,1.74931e-05
1386,-4.48723e-06,1.44375e-05,3.89655e-05,5.91878e-05,-1.10576e-05,1.66736e-05
1387,1.78216e-06,1.24717e-05,4.47186e-05,5.78341e-05,-1.03074e-05,1.52957e-05
1388,-5.5327e-06,9.02833e-06,4.37698e-05,5.50956e-05,-8.37047e-06,1.20282e-05
1389,-1.88085e-05,5.00607e-06,3.77584e-05,5.38476e-05,-8.64139e-06,6.97248e-06
1390,-2.67341e-05,1.43733e-06,3.38506e-05,5.50389e-05,-1.12889e-05,1.33917e-06
1391,-1.83381e-05,3.18177e-07,3.83237e-05,5.66423e-05,-1.39736e-05,-5.93746e-07
1392,2.62374e-07,3.31689e-06,4.38882e-05,5.59617e-05,-1.46009e-05,2.41907e-06
1393,1.34856e-05,9.83865e-06,4.2564e-05,5.15427e-05,-1.2208e-05,5.69959e-06
1394,1.35386e-05,1.58288e-05,3.90485e-05,4.46854e-05,-8.94517e-06,6.82612e-06
1395,-2.53425e-06,1.64013e-05,3.5616e-05,4.10992e-05,-8.59749e-06,9.75427e-06
1396,-2.25366e-05,1.21324e-05,2.9978e-05,4.30235e-05,-1.19481e-05,1.63992e-05
1397,-2.09578e-05,8.52468e-06,2.81519e-05,4.63743e-05,-1.40081e-05,2.16144e-05
1398,-3.55427e-06,1.02127e-05,3.09697e-05,4.73226e-05,-1.1529e-05,2.07173e-05
1399,4.78102e-06,1.43125e-05,3.32894e-05,4.58048e-05,-8.56219e-06,1.52167e-05
1400,4.74806e-06,1.47553e-05,3.73299e-05,4.54154e-05,-9.30122e-06,7.95591e-06
1401,5.14979e-06,1.3524e-05,4.10245e-05,4.64008e-05,-1.15789e-05,2.27574e-06
1402,6.01025e-06,1.40065e-05,4.10331e-05,4.42894e-05,-1.15669e-05,2.68834e-06
1403,1.96912e-06,1.46629e-05,3.81884e-05,3.97033e-05,-7.4042e-06,7.57397e-06
1404,-1.11183e-05,1.42667e-05,3.17053e-05,3.88248e-05,-3.29981e-06,9.5243e-06
1405,-2.05023e-05,1.27213e-05,2.74347e-05,4.25686e-05,-3.21611e-06,8.63677e-06
1406,-1.32679e-05,1.10863e-05,3.14329e-05,4.54692e-05,-3.49902e-06,1.29553e-05
1407,1.11915e-06,1.0139e-05,3.75853e-05,4.70926e-05,-1.23778e-06,2.23621e-05
1408,8.8705e-06,9.69703e-06,3.88204e-05,4.85074e-05,2.16155e-06,2.88603e-05
1409,5.67923e-06,1.06543e-05,3.39063e-05,4.77661e-05,2.84209e-06,2.82002e-05
1410,-7.69053e-06,1.29117e-05,2.43571e-05,4.68617e-05,-7.80095e-07,2.13377e-05
1411,-1.96025e-05,1.52927e-05,1.92686e-05,4.96126e-05,-4.97843e-06,1.4006e-05
1412,-1.6832e-05,1.66231e-05,2.60183e-05,5.38341e-05,-5.12448e-06,1.33338e-05
1413,-2.53103e-06,1.65646e-05,3.76541e-05,5.49486e-05,-1.84453e-06,1.88086e-05
1414,7.80425e-06,1.72403e-05,4.32685e-05,5.26677e-05,-1.36962e-07,2.32957e-05
1415,5.6004e-06,1.96707e-05,4.20426e-05,4.93383e-05,-1.98984e-06,2.245e-05
1416,-6.94434e-06,2.11398e-05,3.67397e-05,4.72278e-05,-5.08038e-06,1.69342e-05
1417,-1.82649e-05,1.96958e-05,3.07216e-05,4.76284e-05,-7.82736e-06,1.11263e-05
1418,-1.51244e-05,1.75004e-05,3.1686e-05,5.01117e-05,-1.08726e-05,1.07163e-05
1419,-2.13457e-06,1.748e-05,3.84912e-05,5.25601e-05,-1.30559e-05,1.46868e-05
1420,6.14435e-06,2.02906e-05,4.04478e-05,5.13603e-05,-1.25189e-05,1.66854e-05
1421,5.28463e-06,2.44984e-05,3.49929e-05,4.58355e-05,-1.21066e-05,1.43783e-05
1422,-7.54523e-06,2.64155e-05,2.70097e-05,4.3605e-05,-1.4751e-05,7.82275e-06
1423,-2.51047e-05,2.4116e-05,2.30911e-05,4.84909e-05,-1.72379e-05,2.43999e-06
1424,-2.13886e-05,2.10392e-05,2.89514e-05,5.37388e-05,-1.70753e-05,7.23534e-06
1425,-8.43243e-07,1.87915e-05,3.68291e-05,5.70516e-05,-1.61923e-05,1.83414e-05
1426,8.66264e-06,1.60968e-05,3.81077e-05,6.04596e-05,-1.70461e-05,2.62464e-05
1427,8.32155e-06,1.39031e-05,3.9678e-05,6.18934e-05,-1.81996e-05,2.74134e-05
1428,7.17652e-06,1.27004e-05,4.52665e-05,6.28108e-05,-1.62039e-05,1.89187e-05
1429,3.45319e-06,1.27701e-05,4.79696e-05,6.42595e-05,-1.40439e-05,7.98312e-06
1430,-7.17771e-06,1.46995e-05,4.39854e-05,6.25635e-05,-1.39969e-05,5.90178e-06
1431,-2.51586e-05,1.53003e-05,3.60564e-05,5.84215e-05,-1.49112e-05,6.29127e-06
1432,-3.42218e-05,1.23172e-05,3.23501e-05,5.53796e-05,-1.61281e-05,1.8892e-06
1433,-2.23221e-05,8.72114e-06,3.6322e-05,5.54824e-05,-1.60895e-05,9.33325e-07
1434,-3.90093e-06,7.5104e-06,4.05646e-05,5.80842e-05,-1.52244e-05,7.97076e-06
1435,2.78807e-06,8.62072e-06,4.03668e-05,5.79684e-05,-1.42694e-05,1.68684e-05
1436,-3.55215e-06,1.02497e-05,3.65397e-05,5.31427e-05,-1.30648e-05,2.3306e-05
1437,-1.67446e-05,9.06864e-06,2.99567e-05,4.95289e-05,-1.18086e-05,2.6518e-05
1438,-2.41345e-05,5.41533e-06,2.64721e-05,5.0912e-05,-1.13713e-05,2.7299e-05
1439,-1.68553e-05,3.66479e-06,3.15177e-05,5.29221e-05,-1.23005e-05,2.75453e-05
1440,-3.50574e-06,4.221e-06,4.00446e-05,5.15151e-05,-1.40118e-05,2.88451e-05
1441,3.90189e-06,5.72449e-06,4.38287e-05,4.69432e-05,-1.47397e-05,3.09773e-05
1442,2.15052e-06,7.48802e-06,4.04833e-05,4.03804e-05,-1.37989e-05,3.21595e-05
1443,-9.03558e-06,7.30331e-06,3.23924e-05,3.62167e-05,-1.14593e-05,2.70846e-05
1444,-2.02343e-05,4.14648e-06,2.79547e-05,3.78997e-05,-7.32911e-06,1.27133e-05
1445,-1.5307e-05,1.07536e-06,3.42667e-05,4.15177e-05,-3.62222e-06,-2.53365e-06
1446,4.13807e-07,5.94661e-08,4.39548e-05,4.3215e-05,-3.49948e-06,-7.88128e-06
1447,6.72727e-06,7.07695e-07,4.64638e-05,4.27957e-05,-5.86381e-06,-2.66645e-06
1448,-1.43726e-06,3.85729e-06,4.12182e-05,3.97541e-05,-6.12667e-06,4.65379e-06
1449,-1.94618e-05,7.81032e-06,3.13972e-05,3.74753e-05,-3.78412e-06,5.82579e-06
1450,-3.49343e-05,7.92782e-06,2.38768e-05,4.03659e-05,-3.96298e-06,5.04167e-06
1451,-2.60229e-05,5.84284e-06,2.79827e-05,4.73969e-05,-5.46024e-06,1.44447e-05
1452,-5.17642e-06,6.73898e-06,3.72667e-05,5.49079e-05,-1.80078e-06,3.02109e-05
1453,7.64569e-07,9.443e-06,3.97098e-05,5.89722e-05,6.10914e-06,3.39586e-05
1454,-9.12792e-08,9.2859e-06,4.01818e-05,6.02936e-05,1.07524e-05,2.37146e-05
1455,3.13386e-06,8.42167e-06,4.27158e-05,6.18689e-05,4.75636e-06,1.35e-05
1456,6.65017e-06,1.20863e-05,4.32493e-05,6.10944e-05,-6.56237e-06,9.48749e-06
1457,1.88034e-06,1.71153e-05,3.76029e-05,5.66797e-05,-1.10037e-05,8.36367e-06
1458,-1.39883e-05,1.57288e-05,2.6614e-05,5.44327e-05,-9.05696e-06,5.26056e-06
1459,-2.32049e-05,1.04981e-05,2.08753e-05,5.76636e-05,-6.99026e-06,3.76402e-06
1460,-1.32452e-05,1.0747e-05,2.59081e-05,6.16617e-05,-5.61515e-06,8.57022e-06
1461,2.44362e-06,1.50495e-05,3.44906e-05,6.05009e-05,-4.80478e-06,1.4691e-05
1462,7.67765e-06,1.74428e-05,3.87623e-05,5.44903e-05,-5.99459e-06,1.68625e-05
1463,-3.316e-07,1.66218e-05,3.72035e-05,4.89991e-05,-7.93019e-06,1.54425e-05
1464,-1.61232e-05,1.34554e-05,3.05153e-05,4.82928e-05,-6.97725e-06,1.35023e-05
1465,-2.54786e-05,9.52703e-06,2.53998e-05,5.32803e-05,-4.08712e-06,1.24364e-05
1466,-1.73489e-05,9.15496e-06,2.98072e-05,5.98077e-05,-2.75746e-06,1.16725e-05
1467,-3.88105e-07,1.35027e-05,3.96702e-05,6.25402e-05,-3.21987e-06,1.16353e-05
1468,8.61579e-06,1.7324e-05,4.40492e-05,6.04852e-05,-4.66127e-06,1.36741e-05
1469,3.88953e-06,1.69666e-05,3.99772e-05,5.67203e-05,-6.76794e-06,1.7641e-05
1470,-1.13933e-05,1.46217e-05,3.36848e-05,5.50568e-05,-8.58597e-06,1.95044e-05
1471,-2.46589e-05,1.33286e-05,3.3304e-05,5.55046e-05,-9.1689e-06,1.52236e-05
1472,-1.91655e-05,1.33826e-05,4.01739e-05,5.55182e-05,-1.03664e-05,8.24782e-06
1473,-7.56054e-08,1.30487e-05,4.70344e-05,5.48083e-05,-1.19188e-05,6.04483e-06
1474,1.10655e-05,1.05992e-05,4.87288e-05,5.31952e-05,-9.37824e-06,9.24809e-06
1475,7.01499e-06,8.67464e-06,4.47313e-05,5.05153e-05,-3.81569e-06,1.05753e-05
1476,-6.89042e-06,9.56884e-06,3.58291e-05,4.98584e-05,-2.27022e-06,4.5816e-06
1477,-1.8334e-05,9.86046e-06,2.9593e-05,5.17015e-05,-6.29498e-06,-2.87268e-06
1478,-1.06536e-05,9.5813e-06,3.51365e-05,5.28894e-05,-9.82145e-06,-2.11711e-06
1479,5.13854e-06,1.03944e-05,4.42718e-05,5.18251e-05,-8.5615e-06,4.15304e-06
1480,8.43322e-06,9.55133e-06,4.42646e-05,5.03102e-05,-5.55991e-06,8.15462e-06
1481,7.44669e-06,7.83839e-06,4.06447e-05,5.12069e-05,-5.62146e-06,1.12341e-05
1482,8.76177e-06,6.88222e-06,4.09163e-05,5.37888e-05,-8.01281e-06,1.57935e-05
1483,7.88825e-06,6.34824e-06,4.38652e-05,5.42284e-05,-9.80539e-06,1.81936e-05
1484,4.73547e-08,6.5918e-06,4.40666e-05,5.23353e-05,-1.13685e-05,1.41353e-05
1485,-1.66585e-05,7.67536e-06,3.55716e-05,5.32778e-05,-1.17443e-05,5.25009e-06
1486,-2.46356e-05,7.81782e-06,2.72029e-05,5.96106e-05,-8.6375e-06,-6.1934e-07
1487,-1.24453e-05,8.0125e-06,3.02584e-05,6.60702e-05,-4.81691e-06,1.2295e-06
1488,3.98564e-06,1.02838e-05,3.94963e-05,6.53217e-05,-6.20759e-06,7.90733e-06
1489,9.68614e-06,1.21647e-05,4.31731e-05,5.73636e-05,-1.21952e-05,1.29648e-05
1490,3.96783e-06,1.03789e-05,3.78941e-05,4.9962e-05,-1.6353e-05,1.21032e-05
1491,-9.99363e-06,4.72833e-06,2.8394e-05,4.85789e-05,-1.74247e-05,6.0031e-06
1492,-2.00127e-05,-7.50094e-08,2.27789e-05,5.08472e-05,-1.85955e-05,8.75373e-07
1493,-1.45804e-05,6.00081e-07,2.72244e-05,5.29616e-05,-2.08005e-05,1.85091e-06
1494,-1.07708e-06,3.42567e-06,3.76296e-05,5.40904e-05,-2.08935e-05,6.35143e-06
1495,4.49972e-06,4.64678e-06,4.44169e-05,5.31408e-05,-1.63425e-05,9.07349e-06
1496,-2.18906e-06,7.18493e-06,4.28334e-05,4.94436e-05,-8.96018e-06,9.87378e-06
1497,-1.5044e-05,1.04475e-05,3.44142e-05,4.6062e-05,-3.67752e-06,1.07672e-05
1498,-2.28022e-05,9.62069e-06,2.60736e-05,4.63865e-05,-3.69253e-06,1.08996e-05
1499,-1.44928e-05,7.2171e-06,2.67657e-05,4.89661e-05,-7.3659e-06,1.07176e-05
1500,1.77157e-06,8.03043e-06,3.6386e-05,4.91757e-05,-1.16404e-05,1.41069e-05
1501,7.05569e-06,1.18687e-05,4.47249e-05,4.5335e-05,-1.33092e-05,2.02452e-05
1502,-1.74572e-06,1.63427e-05,4.50697e-05,4.02649e-05,-1.00259e-05,2.17825e-05
1503,-1.8398e-05,1.56058e-05,3.70135e-05,3.93166e-05,-6.07659e-06,1.62993e-05
1504,-3.21104e-05,8.51738e-06,2.68849e-05,4.35655e-05,-4.76971e-06,1.06071e-05
1505,-2.53245e-05,3.72306e-06,2.75445e-05,4.69172e-05,-3.37013e-06,1.27019e-05
1506,-7.62541e-06,5.97981e-06,3.67362e-05,4.51451e-05,-3.02401e-06,1.99653e-05
1507,-4.64584e-07,1.08646e-05,4.21631e-05,3.97674e-05,-4.43236e-06,2.1356e-05
1508,1.38351e-06,1.41028e-05,4.44777e-05,3.64241e-05,-6.62924e-06,1.61923e-05
1509,3.94204e-06,1.511e-05,4.60073e-05,3.76678e-05,-9.42493e-06,1.48868e-05
1510,4.10734e-06,1.50561e-05,4.50583e-05,3.85152e-05,-1.1675e-05,1.8547e-05
1511,-2.27142e-06,1.54489e-05,4.05457e-05,3.55975e-05,-1.26972e-05,1.94661e-05
1512,-1.78569e-05,1.43655e-05,3.3553e-05,3.39188e-05,-1.13306e-05,1.71278e-05
1513,-2.87977e-05,1.09239e-05,3.02482e-05,3.79531e-05,-8.13981e-06,1.89269e-05
1514,-2.20768e-05,7.81905e-06,3.39402e-05,4.36556e-05,-6.27874e-06,2.76673e-05
1515,-7.6281e-06,6.71573e-06,3.99762e-05,4.60345e-05,-8.72979e-06,3.62365e-05
1516,-1.21595e-06,9.00656e-06,4.22772e-05,4.38569e-05,-1.40687e-05,3.69184e-05
1517,-7.33299e-06,1.32412e-05,3.85994e-05,4.05972e-05,-1.86919e-05,2.96201e-05
1518,-2.21112e-05,1.45155e-05,2.88491e-05,4.23359e-05,-2.12424e-05,1.98394e-05
1519,-3.1536e-05,1.07169e-05,2.13585e-05,5.0361e-05,-2.16665e-05,1.40386e-05
1520,-2.24652e-05,6.04934e-06,2.59197e-05,5.92748e-05,-2.09103e-05,1.49873e-05
1521,-3.14894e-06,5.22942e-06,3.75974e-05,6.33115e-05,-1.93377e-05,1.86248e-05
1522,6.86825e-06,9.77298e-06,4.41517e-05,6.10103e-05,-1.47199e-05,1.91383e-05
1523,1.45965e-06,1.76368e-05,4.21422e-05,5.6068e-05,-7.62223e-06,1.70728e-05
1524,-1.21278e-05,2.36803e-05,3.55594e-05,5.51948e-05,-2.46347e-06,1.56884e-05
1525,-2.05852e-05,2.39692e-05,3.15851e-05,5.98939e-05,-6.287e-07,1.5659e-05
1526,-1.2602e-05,2.06883e-05,3.69742e-05,6.43561e-05,-6.64995e-07,1.73254e-05
1527,4.82605e-06,1.64703e-05,4.64733e-05,6.4159e-05,-2.79548e-06,1.881e-05
1528,1.31128e-05,1.21149e-05,4.97053e-05,5.96055e-05,-7.58779e-06,1.64875e-05
1529,5.30405e-06,1.22359e-05,4.60768e-05,5.4851e-05,-1.11651e-05,8.36617e-06
1530,-1.2676e-05,1.54761e-05,3.84014e-05,5.3675e-05,-9.96141e-06,-5.23952e-07
1531,-2.56018e-05,1.43013e-05,3.1456e-05,5.40461e-05,-8.1923e-06,6.02147e-06
1532,-1.57965e-05,1.02415e-05,3.41699e-05,5.32487e-05,-1.06862e-05,3.42558e-05
1533,2.86537e-06,9.45793e-06,4.08795e-05,5.09175e-05,-1.47243e-05,5.1982e-05
1534,7.60299e-06,1.266e-05,4.24826e-05,4.89809e-05,-1.63947e-05,2.88515e-05
1535,6.37806e-06,1.62635e-05,4.24068e-05,5.03374e-05,-1.54943e-05,-5.21413e-06
1536,6.1192e-06,1.70595e-05,4.26278e-05,5.4805e-05,-1.27487e-05,-1.0929e-05
1537,3.88707e-06,1.75087e-05,4.24008e-05,5.73578e-05,-1.15107e-05,5.10519e-06
1538,-3.65495e-06,2.11607e-05,3.89511e-05,5.47668e-05,-1.392e-05,1.69744e-05
1539,-1.69679e-05,2.36317e-05,3.02225e-05,5.16473e-05,-1.5647e-05,1.47259e-05
1540,-2.20475e-05,2.02627e-05,2.51652e-05,5.23621e-05,-1.45743e-05,9.66709e-06
1541,-1.0069e-05,1.5882e-05,3.10979e-05,5.48045e-05,-1.27618e-05,1.06672e-05
1542,5.80532e-06,1.49684e-05,4.05627e-05,5.44205e-05,-1.22113e-05,1.42493e-05
1543,9.77709e-06,1.8398e-05,4.42769e-05,5.03327e-05,-1.29454e-05,1.55516e-05
1544,9.77569e-07,2.36483e-05,3.95136e-05,4.66639e-05,-1.37327e-05,1.34217e-05
1545,-1.35711e-05,2.59385e-05,2.85134e-05,4.66351e-05,-1.39778e-05,7.26504e-06
1546,-2.10875e-05,2.36927e-05,2.05525e-05,4.92537e-05,-1.37478e-05,1.24657e-06
1547,-1.24774e-05,1.8851e-05,2.25441e-05,5.17881e-05,-1.47774e-05,2.16638e-06
1548,2.86679e-06,1.48307e-05,2.83303e-05,5.24822e-05,-1.75609e-05,8.58887e-06
1549,8.9005e-06,1.48756e-05,2.94438e-05,4.99146e-05,-1.91644e-05,1.27162e-05
1550,2.8395e-06,1.83449e-05,2.63188e-05,4.41714e-05,-1.70201e-05,1.20864e-05
1551,-9.84549e-06,2.05311e-05,2.18913e-05,4.05569e-05,-1.28339e-05,9.73961e-06
