Time_Index,DELTOID_Affected,DELTOID_NonAffected,BICEPS_Affected,BICEPS_NonAffected,FOREARM_Affected,FOREARM_NonAffected
1,-3.08767e-06,6.16613e-06,6.7618e-05,5.03794e-05,-2.53235e-05,-4.15405e-05
2,3.45542e-06,-1.19954e-05,6.04009e-05,4.52605e-05,-2.53882e-05,-2.79522e-05
3,1.29814e-05,-2.11417e-05,5.24481e-05,4.23932e-05,-3.22062e-05,-2.15427e-05
4,1.81729e-05,-7.41816e-06,5.5722e-05,4.78508e-05,-4.7764e-05,-2.75022e-05
5,1.61447e-05,1.34277e-05,7.00609e-05,5.63143e-05,-5.45308e-05,-3.40804e-05
6,1.07931e-05,1.97886e-05,7.9742e-05,5.95762e-05,-3.60214e-05,-3.08869e-05
7,6.68949e-06,9.99107e-06,7.67961e-05,5.45292e-05,-2.252e-06,-2.12375e-05
8,6.58104e-06,-1.45786e-05,6.52967e-05,4.16709e-05,2.36863e-05,-1.4756e-05
9,9.98413e-06,-3.09986e-05,5.34122e-05,3.52511e-05,3.27334e-05,-1.10121e-05
10,1.1746e-05,-1.50496e-05,5.05202e-05,4.40737e-05,3.10186e-05,-2.14036e-06
11,9.13677e-06,6.12314e-06,5.7625e-05,4.97071e-05,3.09563e-05,8.06325e-06
12,7.36814e-06,9.8673e-06,6.47178e-05,4.48316e-05,4.12805e-05,1.20598e-05
13,9.57785e-06,8.33327e-06,6.55741e-05,4.32252e-05,5.39351e-05,1.13881e-05
14,1.34678e-05,5.62719e-06,6.44527e-05,4.40123e-05,5.39419e-05,7.38978e-06
15,1.87632e-05,3.44723e-06,6.77676e-05,4.21603e-05,4.24576e-05,2.48778e-06
16,2.45358e-05,-7.29919e-06,6.94044e-05,3.55943e-05,3.15034e-05,-8.34156e-07
17,2.92816e-05,-2.80055e-05,5.98453e-05,2.97199e-05,2.38111e-05,-1.5592e-06
18,3.22733e-05,-3.62063e-05,4.9529e-05,2.99443e-05,1.0167e-05,-6.1177e-07
19,2.95065e-05,-2.26808e-05,5.4904e-05,3.43822e-05,-9.58281e-06,-2.19644e-07
20,2.25093e-05,-8.13834e-06,7.08696e-05,3.81031e-05,-2.31567e-05,-4.69908e-07
21,1.62996e-05,-4.55921e-06,8.15574e-05,3.78906e-05,-2.53951e-05,1.71993e-06
22,1.28027e-05,-1.14625e-05,7.99952e-05,3.04556e-05,-2.08642e-05,6.24833e-06
23,1.28504e-05,-2.58132e-05,6.68642e-05,1.75572e-05,-1.29485e-05,5.93063e-06
24,1.44936e-05,-3.34293e-05,5.31746e-05,1.0265e-05,-5.76047e-06,-2.96661e-06
25,1.34252e-05,-2.41161e-05,5.40967e-05,1.58562e-05,-4.02146e-06,-1.24196e-05
26,8.84777e-06,-8.10401e-06,6.67376e-05,2.69699e-05,-2.44019e-06,-1.46656e-05
27,2.59867e-06,-1.29916e-06,7.51357e-05,3.09006e-05,6.55627e-06,-9.84251e-06
28,-2.66051e-06,-9.18792e-06,7.27623e-05,2.45426e-05,1.73905e-05,-3.64223e-06
29,-1.9623e-06,-2.84649e-05,6.21605e-05,1.45104e-05,1.85647e-05,-1.61029e-06
30,5.76289e-06,-3.88167e-05,4.87434e-05,1.33219e-05,9.24289e-06,-2.64121e-06
31,1.34729e-05,-2.68312e-05,4.37344e-05,2.37698e-05,-5.64704e-07,-2.58372e-06
32,1.41995e-05,-8.42311e-06,5.20122e-05,3.37865e-05,1.14835e-06,1.11573e-06
33,1.05384e-05,-2.56056e-06,6.17575e-05,3.52791e-05,1.74938e-05,5.75347e-06
34,9.33917e-06,-9.18333e-06,6.31519e-05,3.27968e-05,3.62805e-05,3.65133e-06
35,1.29591e-05,-2.77731e-05,5.50782e-05,3.0108e-05,4.07759e-05,-5.74946e-06
36,1.65922e-05,-4.27833e-05,4.31991e-05,3.28761e-05,2.84734e-05,-1.35788e-05
37,1.28376e-05,-3.01161e-05,4.22678e-05,4.4618e-05,1.08585e-05,-1.6187e-05
38,4.8853e-06,-7.31738e-06,5.34847e-05,5.68383e-05,2.13949e-06,-1.68467e-05
39,2.96483e-06,3.97258e-06,6.0745e-05,6.36108e-05,9.54608e-06,-1.77733e-05
40,6.84273e-06,1.06638e-05,5.83409e-05,6.82187e-05,2.26626e-05,-1.98479e-05
41,1.02399e-05,1.42057e-05,5.57156e-05,6.74554e-05,2.85666e-05,-1.87767e-05
42,1.05958e-05,1.29598e-05,5.86711e-05,6.22933e-05,2.92334e-05,-1.36758e-05
43,1.02624e-05,8.05749e-08,6.00749e-05,5.30419e-05,2.83374e-05,-1.0735e-05
44,1.19532e-05,-1.9477e-05,5.31932e-05,4.15576e-05,2.634e-05,-1.314e-05
45,1.46761e-05,-2.32865e-05,4.33746e-05,3.87439e-05,2.09825e-05,-2.12338e-05
46,1.4857e-05,-5.81323e-06,4.30177e-05,4.95453e-05,1.27574e-05,-2.60613e-05
47,1.30342e-05,9.9556e-06,5.09796e-05,6.1945e-05,9.23316e-06,-2.29765e-05
48,1.24992e-05,1.28447e-05,5.86118e-05,6.48604e-05,1.38408e-05,-1.81448e-05
49,1.33315e-05,5.11543e-06,6.03822e-05,5.68258e-05,1.96419e-05,-2.00095e-05
50,1.48356e-05,-8.40667e-06,5.13736e-05,4.30904e-05,2.31431e-05,-2.48952e-05
51,1.6029e-05,-1.36544e-05,3.80539e-05,3.56077e-05,2.56854e-05,-2.32736e-05
52,1.49257e-05,-1.92355e-06,3.46089e-05,4.00432e-05,2.37897e-05,-1.43551e-05
53,1.26586e-05,1.31397e-05,4.30752e-05,4.84144e-05,1.53975e-05,-4.79732e-06
54,1.20446e-05,1.65716e-05,5.31841e-05,5.19148e-05,8.71751e-06,-1.11471e-06
55,1.3412e-05,9.29049e-06,5.59101e-05,4.78312e-05,1.17126e-05,-1.74051e-06
56,1.69641e-05,-4.4544e-06,4.8209e-05,3.63783e-05,2.04854e-05,-2.14525e-06
57,2.1584e-05,-1.15353e-05,3.70206e-05,2.94309e-05,2.561e-05,-1.57433e-06
58,2.21082e-05,-3.86716e-06,3.6096e-05,3.30531e-05,2.00621e-05,-4.32386e-06
59,1.57713e-05,6.48918e-06,4.74256e-05,3.78915e-05,8.75971e-06,-7.80517e-06
60,8.5675e-06,7.09089e-06,5.71261e-05,3.61281e-05,5.47804e-06,-4.6231e-06
61,8.00653e-06,-1.33582e-06,5.75498e-05,2.68119e-05,1.30311e-05,8.29903e-07
62,1.32299e-05,-2.17427e-05,4.88242e-05,1.28769e-05,1.91693e-05,7.54883e-07
63,1.78031e-05,-3.81562e-05,3.38855e-05,8.03976e-06,1.89158e-05,-2.482e-06
64,1.74107e-05,-2.79279e-05,2.63852e-05,2.02097e-05,1.54153e-05,-2.73446e-06
65,1.2119e-05,-1.11289e-05,3.43521e-05,3.2616e-05,1.30868e-05,-1.34964e-07
66,9.19588e-06,-4.56982e-06,4.50215e-05,3.78008e-05,1.72593e-05,-5.9148e-07
67,1.31435e-05,2.95645e-06,4.59055e-05,4.48481e-05,2.4632e-05,-3.50386e-06
68,1.72925e-05,9.13817e-06,3.99066e-05,5.00328e-05,2.92293e-05,-7.04827e-06
69,1.66201e-05,1.04188e-05,3.74879e-05,5.10719e-05,3.18138e-05,-9.52844e-06
70,1.4436e-05,-1.30615e-06,3.93064e-05,4.30517e-05,3.10291e-05,-9.63726e-06
71,1.50755e-05,-2.31429e-05,3.41911e-05,2.8119e-05,2.51995e-05,-8.15071e-06
72,1.77214e-05,-3.13113e-05,2.32828e-05,1.99171e-05,1.56679e-05,-1.06883e-05
73,1.57209e-05,-1.87418e-05,2.36597e-05,2.26702e-05,3.85041e-06,-1.64769e-05
74,8.13049e-06,-4.44725e-06,3.47151e-05,2.78427e-05,-4.31045e-06,-1.69276e-05
75,8.18945e-07,9.94041e-07,4.10313e-05,3.01788e-05,-1.96924e-06,-1.23834e-05
76,6.68493e-07,-4.50645e-06,3.71303e-05,2.64723e-05,7.33689e-06,-8.35362e-06
77,9.49201e-06,-1.85735e-05,2.66306e-05,1.52245e-05,1.50765e-05,-1.04769e-05
78,1.84944e-05,-2.50441e-05,1.71766e-05,8.02941e-06,1.41408e-05,-1.66509e-05
79,1.83235e-05,-1.37171e-05,1.67776e-05,1.4219e-05,2.84239e-06,-1.85967e-05
80,1.18667e-05,1.68148e-06,2.55773e-05,2.60773e-05,-8.98584e-06,-1.42915e-05
81,7.92679e-06,4.72774e-06,3.53215e-05,3.25916e-05,-1.00428e-05,-7.49948e-06
82,7.90441e-06,-6.09689e-06,4.12677e-05,3.23778e-05,-1.83748e-06,1.03139e-06
83,1.03733e-05,-2.64574e-05,4.15337e-05,2.80747e-05,3.46711e-06,9.64792e-06
84,1.4783e-05,-3.7135e-05,3.64263e-05,2.58968e-05,-6.19461e-07,1.23363e-05
85,1.78836e-05,-2.31643e-05,3.44395e-05,3.13607e-05,-8.71584e-06,7.11198e-06
86,1.71417e-05,-5.9489e-07,4.08854e-05,4.10665e-05,-1.10903e-05,-3.52436e-07
87,1.37121e-05,9.45645e-06,4.97157e-05,4.55723e-05,-5.33713e-06,-7.03089e-06
88,9.73815e-06,3.28274e-06,5.71769e-05,4.36002e-05,1.08429e-06,-1.27143e-05
89,1.01703e-05,-1.90869e-05,5.93893e-05,3.18764e-05,2.71905e-06,-1.97953e-05
90,1.62857e-05,-3.4474e-05,5.23654e-05,2.2e-05,2.81742e-06,-3.2035e-05
91,1.99764e-05,-2.01906e-05,4.74459e-05,3.19976e-05,6.26984e-07,-4.14338e-05
92,1.51049e-05,-7.27268e-08,5.40966e-05,4.63241e-05,-4.46576e-06,-3.53149e-05
93,6.50748e-06,4.75343e-06,6.07478e-05,4.94275e-05,-5.44659e-06,-2.39752e-05
94,1.85972e-06,4.34349e-06,5.98822e-05,4.78278e-05,-1.01052e-06,-2.36512e-05
95,2.42157e-06,4.35787e-06,5.91578e-05,4.81065e-05,7.17119e-06,-2.68295e-05
96,3.03518e-06,4.58829e-06,6.21065e-05,5.15643e-05,1.69734e-05,-2.71717e-05
97,3.2401e-06,-4.69336e-06,6.46258e-05,4.84053e-05,2.00267e-05,-2.74366e-05
98,7.13885e-06,-2.41928e-05,6.07793e-05,3.68766e-05,1.72223e-05,-3.07116e-05
99,1.44649e-05,-3.07027e-05,5.35051e-05,3.22745e-05,1.42641e-05,-3.48343e-05
100,2.04111e-05,-1.50729e-05,5.60455e-05,4.09822e-05,8.92855e-06,-3.25241e-05
101,2.03166e-05,1.35444e-06,6.63875e-05,5.09504e-05,2.14339e-06,-2.58674e-05
102,1.62428e-05,6.19404e-06,7.22429e-05,5.21641e-05,9.08714e-07,-2.17123e-05
103,1.33572e-05,5.29371e-09,6.81126e-05,4.19655e-05,7.32405e-06,-1.97724e-05
104,1.48942e-05,-1.16848e-05,5.518e-05,2.79902e-05,1.52523e-05,-1.70306e-05
105,1.85887e-05,-1.51871e-05,4.26533e-05,2.36557e-05,1.55161e-05,-1.4704e-05
106,2.02462e-05,-2.56207e-06,4.30193e-05,3.04964e-05,7.64746e-06,-1.40425e-05
107,2.04539e-05,1.30869e-05,5.48973e-05,3.78703e-05,7.62158e-06,-1.41548e-05
108,2.05262e-05,1.66302e-05,6.41872e-05,3.86058e-05,3.27813e-05,-1.38859e-05
109,1.9219e-05,6.05866e-06,6.43112e-05,3.32629e-05,8.66332e-05,-1.45527e-05
110,1.67819e-05,-1.3825e-05,5.61155e-05,2.50417e-05,0.000156192,-1.69918e-05
111,1.49916e-05,-2.43113e-05,4.33679e-05,2.52011e-05,0.000209395,-1.84852e-05
112,1.33564e-05,-1.36496e-05,3.62491e-05,3.71368e-05,0.000213921,-1.70651e-05
113,1.07779e-05,4.67754e-06,3.89774e-05,4.85371e-05,0.00017062,-1.47873e-05
114,7.69793e-06,1.22943e-05,4.42937e-05,5.22097e-05,0.000104291,-1.65315e-05
115,4.61582e-06,5.62934e-06,4.81831e-05,4.92585e-05,3.11835e-05,-2.0655e-05
116,5.37227e-06,-1.67262e-05,4.5487e-05,3.9927e-05,-4.33665e-05,-1.72591e-05
117,1.05617e-05,-3.47479e-05,3.63738e-05,3.48956e-05,-0.000107392,-6.53923e-06
118,1.22301e-05,-2.11811e-05,3.35028e-05,4.25949e-05,-0.000154562,1.80797e-06
119,7.36751e-06,1.71156e-06,4.42374e-05,4.82684e-05,-0.000180468,1.03997e-06
120,1.40554e-06,9.23043e-06,5.69653e-05,4.55267e-05,-0.000165389,-9.40007e-06
121,-5.50523e-07,1.04911e-05,6.00384e-05,4.45069e-05,-0.000122152,-2.73088e-05
122,8.91406e-07,1.25265e-05,5.86014e-05,4.60858e-05,-8.90604e-05,-4.19202e-05
123,1.93766e-06,1.46864e-05,5.87448e-05,4.68308e-05,-6.71042e-05,-4.02899e-05
124,2.97725e-06,6.60619e-06,5.64054e-05,3.97743e-05,-4.13315e-05,-2.83853e-05
125,6.56405e-06,-1.18093e-05,4.85785e-05,2.88063e-05,-1.58058e-05,-1.54322e-05
126,8.33918e-06,-1.9732e-05,4.37906e-05,2.45942e-05,-2.52803e-06,-2.06515e-06
127,2.03142e-06,-6.87955e-06,5.34145e-05,3.06275e-05,-3.49912e-06,9.84606e-06
128,-7.218e-06,8.25599e-06,6.95223e-05,3.70865e-05,-3.82374e-06,1.13083e-05
129,-1.01654e-05,1.33247e-05,7.71387e-05,3.65576e-05,8.32253e-06,-6.25348e-07
130,-6.16296e-06,4.9093e-06,7.28415e-05,2.91753e-05,2.39509e-05,-1.33161e-05
131,5.58123e-08,-1.21002e-05,5.89719e-05,1.9946e-05,2.99688e-05,-1.39879e-05
132,4.98277e-06,-2.03775e-05,4.45444e-05,2.05777e-05,2.51191e-05,-4.22262e-06
133,6.42919e-06,-9.28099e-06,4.23696e-05,3.23312e-05,1.62108e-05,6.972e-06
134,4.25642e-06,9.0508e-06,5.25436e-05,4.18454e-05,1.11122e-05,1.70225e-05
135,1.41154e-06,1.64518e-05,6.2714e-05,4.073e-05,1.54471e-05,2.63748e-05
136,1.64451e-06,6.65156e-06,6.34025e-05,3.28518e-05,2.71064e-05,3.31177e-05
137,7.0988e-06,-1.52233e-05,5.31386e-05,2.32506e-05,3.70761e-05,3.51603e-05
138,1.57952e-05,-2.63155e-05,4.09402e-05,2.10395e-05,3.78998e-05,3.19732e-05
139,2.15e-05,-1.16652e-05,4.09529e-05,3.15573e-05,3.08565e-05,2.77237e-05
140,2.08436e-05,1.11385e-05,5.43355e-05,4.12138e-05,2.57531e-05,2.88742e-05
141,1.87863e-05,1.73663e-05,6.47799e-05,3.8961e-05,2.74983e-05,3.15303e-05
142,2.03654e-05,5.71417e-06,6.31825e-05,3.29091e-05,3.00941e-05,2.93972e-05
143,2.49195e-05,-1.96074e-05,5.3212e-05,2.41551e-05,2.88393e-05,2.58189e-05
144,2.78168e-05,-3.50346e-05,4.14048e-05,1.99158e-05,2.51097e-05,2.45571e-05
145,2.53943e-05,-1.95838e-05,3.81491e-05,2.82913e-05,1.84159e-05,2.62796e-05
146,1.96536e-05,-2.82713e-06,4.59298e-05,3.60644e-05,9.52277e-06,2.73218e-05
147,1.48209e-05,-1.73208e-06,5.3315e-05,3.61911e-05,6.62325e-06,2.40573e-05
148,1.24636e-05,-1.36936e-06,5.3534e-05,3.97317e-05,1.18454e-05,1.92007e-05
149,1.35664e-05,1.11427e-06,5.14161e-05,4.56434e-05,1.78848e-05,1.68176e-05
150,1.62143e-05,2.17157e-06,5.23779e-05,4.68996e-05,2.20707e-05,1.74123e-05
151,1.64899e-05,-8.6192e-06,5.41314e-05,4.10853e-05,2.34322e-05,1.6874e-05
152,1.7978e-05,-2.79607e-05,5.07457e-05,3.10113e-05,2.09519e-05,1.55141e-05
153,2.11613e-05,-3.28955e-05,4.43062e-05,2.5255e-05,1.62557e-05,1.5213e-05
154,2.0176e-05,-1.56567e-05,4.61137e-05,2.83611e-05,9.44242e-06,1.40422e-05
155,1.6571e-05,3.39047e-06,5.44544e-05,3.72971e-05,3.56243e-06,8.59118e-06
156,1.46296e-05,1.00583e-05,6.00116e-05,4.3415e-05,5.40264e-06,8.24274e-07
157,1.41609e-05,4.19407e-07,5.91671e-05,3.84954e-05,1.28843e-05,-2.00955e-06
158,1.53363e-05,-1.91786e-05,5.02614e-05,2.72964e-05,1.87804e-05,-1.6109e-06
159,1.67515e-05,-3.07964e-05,3.89297e-05,2.52867e-05,1.85476e-05,-3.54689e-06
160,1.42047e-05,-2.47283e-05,3.71509e-05,3.83352e-05,1.13965e-05,-8.16116e-06
161,8.86088e-06,-1.06398e-05,4.79789e-05,5.48925e-05,4.26638e-06,-1.05313e-05
162,5.82659e-06,-3.23015e-06,6.30307e-05,6.30984e-05,6.06692e-06,-8.31081e-06
163,7.52998e-06,-9.46247e-06,7.16751e-05,6.2579e-05,1.52311e-05,-5.34615e-06
164,1.25512e-05,-2.67516e-05,6.55663e-05,5.56492e-05,2.25763e-05,-9.01191e-06
165,1.74587e-05,-3.66368e-05,4.9489e-05,4.80223e-05,2.32112e-05,-1.72336e-05
166,1.91124e-05,-2.50572e-05,4.02129e-05,4.77512e-05,1.94698e-05,-2.09479e-05
167,1.83645e-05,-5.57806e-06,4.5858e-05,5.32398e-05,1.87102e-05,-1.96993e-05
168,1.72224e-05,-2.5516e-06,5.66124e-05,5.38103e-05,2.47115e-05,-1.67308e-05
169,1.55738e-05,-1.47788e-05,6.19928e-05,4.57094e-05,3.07918e-05,-1.30155e-05
170,1.50321e-05,-3.4313e-05,5.77487e-05,3.27409e-05,3.12443e-05,-1.34803e-05
171,1.64749e-05,-4.25326e-05,4.65249e-05,2.81854e-05,2.90166e-05,-1.96076e-05
172,1.46331e-05,-1.98947e-05,4.26666e-05,3.80214e-05,2.40827e-05,-1.97988e-05
173,8.39686e-06,2.07598e-06,5.27175e-05,4.95488e-05,1.66092e-05,-1.51701e-05
174,5.83179e-06,1.71842e-07,6.20488e-05,5.06317e-05,1.48316e-05,-1.78958e-05
175,8.74386e-06,-6.49438e-06,6.10175e-05,4.35492e-05,1.73104e-05,-2.74704e-05
176,1.05568e-05,-6.02528e-06,5.8548e-05,3.79824e-05,1.57884e-05,-3.26875e-05
177,1.0814e-05,-7.34636e-07,6.26946e-05,3.89416e-05,1.47606e-05,-2.64108e-05
178,1.18038e-05,-4.97442e-06,6.61402e-05,3.81041e-05,1.78683e-05,-2.11577e-05
179,1.20525e-05,-1.93912e-05,6.10525e-05,2.91812e-05,2.28427e-05,-2.72259e-05
180,1.04614e-05,-2.26884e-05,5.10153e-05,2.29619e-05,2.40224e-05,-3.60132e-05
181,6.77916e-06,-6.91753e-06,5.02983e-05,2.77061e-05,1.60135e-05,-3.67255e-05
182,5.35782e-06,9.4922e-06,6.25812e-05,3.54267e-05,6.94878e-06,-3.11088e-05
183,8.90953e-06,1.29923e-05,7.39078e-05,3.97104e-05,8.43483e-06,-2.95284e-05
184,1.48877e-05,-6.38246e-07,7.31835e-05,3.9172e-05,1.6397e-05,-3.38414e-05
185,2.12585e-05,-2.25575e-05,6.05566e-05,3.35986e-05,2.09148e-05,-3.86913e-05
186,2.5521e-05,-3.12397e-05,4.70829e-05,3.13673e-05,2.01063e-05,-3.96049e-05
187,2.2467e-05,-1.77212e-05,4.45615e-05,3.79321e-05,1.60238e-05,-3.51682e-05
188,1.22031e-05,2.35696e-06,5.19113e-05,4.41966e-05,1.24479e-05,-1.89542e-05
189,2.66058e-06,1.29011e-05,6.02209e-05,4.30244e-05,1.43395e-05,9.7334e-06
190,5.54209e-07,9.00207e-06,6.46988e-05,3.65168e-05,2.0968e-05,3.51448e-05
191,4.54359e-06,-7.32149e-06,6.23673e-05,2.66332e-05,2.49485e-05,3.97265e-05
192,8.372e-06,-1.85434e-05,5.51888e-05,2.18984e-05,2.15276e-05,2.49029e-05
193,8.13138e-06,-9.42436e-06,5.3485e-05,2.93949e-05,1.35238e-05,1.40051e-05
194,4.16246e-06,7.70014e-06,6.12225e-05,4.16795e-05,9.34723e-06,2.00242e-05
195,4.56374e-07,1.1409e-05,6.74039e-05,4.58462e-05,1.47708e-05,2.62866e-05
196,-4.36129e-07,1.42218e-06,6.57857e-05,3.96607e-05,2.38163e-05,1.73634e-05
197,2.4524e-06,-1.99354e-05,5.88818e-05,2.84236e-05,2.67768e-05,-6.68279e-06
198,8.40804e-06,-3.30537e-05,4.94608e-05,2.45539e-05,2.4567e-05,-4.32635e-05
199,1.23519e-05,-1.86914e-05,4.59087e-05,3.64992e-05,1.7383e-05,-8.52758e-05
200,1.09926e-05,-2.4761e-06,5.43482e-05,4.81303e-05,7.86907e-06,-0.000106577
201,9.7011e-06,7.59899e-08,6.59864e-05,4.84684e-05,8.05539e-06,-9.26179e-05
202,1.07305e-05,2.27963e-06,6.75858e-05,4.49896e-05,1.71354e-05,-6.14119e-05
203,1.07613e-05,6.62951e-06,6.28213e-05,4.29408e-05,2.41109e-05,-2.95476e-05
204,9.7136e-06,9.17867e-06,6.4988e-05,4.34443e-05,2.57991e-05,-7.84875e-06
205,8.40614e-06,-1.97312e-06,6.98799e-05,4.11738e-05,2.442e-05,1.38526e-06
206,8.05862e-06,-2.62376e-05,6.47571e-05,3.40769e-05,2.39706e-05,-4.50889e-07
207,9.33898e-06,-3.30481e-05,5.27575e-05,2.96088e-05,2.31854e-05,-5.01959e-06
208,1.05347e-05,-1.13377e-05,5.03279e-05,3.16147e-05,1.88594e-05,-6.44901e-06
209,1.04954e-05,1.12147e-05,5.90561e-05,3.73926e-05,1.57869e-05,-6.4882e-06
210,1.04045e-05,1.63639e-05,6.59886e-05,4.34433e-05,1.51254e-05,-8.92495e-06
211,1.1224e-05,4.35383e-06,6.34753e-05,4.22784e-05,1.17046e-05,-1.41245e-05
212,1.46842e-05,-1.47877e-05,5.25804e-05,3.29407e-05,6.38361e-06,-1.38486e-05
213,1.83174e-05,-2.23956e-05,4.2583e-05,2.76475e-05,1.69093e-06,-4.1856e-06
214,1.65626e-05,-8.29087e-06,4.60068e-05,3.48056e-05,-2.80974e-06,7.33274e-06
215,1.11943e-05,1.25134e-05,6.2525e-05,4.45611e-05,-3.24998e-06,9.52411e-06
216,8.18451e-06,2.0717e-05,7.76239e-05,4.6015e-05,5.9659e-06,4.48114e-06
217,9.28478e-06,1.16203e-05,7.944e-05,3.92282e-05,2.06672e-05,1.66136e-06
218,1.27538e-05,-8.36701e-06,6.68128e-05,2.65108e-05,3.05754e-05,3.6234e-06
219,1.65566e-05,-1.83995e-05,5.08844e-05,1.63602e-05,3.15227e-05,5.70371e-06
220,1.78703e-05,-5.70192e-06,4.70411e-05,2.14175e-05,2.56078e-05,7.34233e-06
221,1.56591e-05,1.15418e-05,5.67468e-05,3.58313e-05,2.20881e-05,7.78529e-06
222,1.15684e-05,1.47394e-05,6.59011e-05,4.12898e-05,3.1238e-05,3.49708e-06
223,8.82278e-06,3.47281e-06,6.53337e-05,3.68397e-05,4.76512e-05,-1.25258e-05
224,1.01859e-05,-2.14619e-05,5.46817e-05,3.02145e-05,5.72914e-05,-4.04213e-05
225,1.53052e-05,-3.91259e-05,4.05906e-05,2.73141e-05,5.65156e-05,-6.02478e-05
226,1.90292e-05,-2.50335e-05,3.64169e-05,3.63144e-05,5.009e-05,-5.0479e-05
227,1.49032e-05,-2.17083e-06,4.58241e-05,4.50825e-05,4.28081e-05,-2.72297e-05
228,7.76843e-06,6.05871e-06,5.59613e-05,4.71744e-05,3.63496e-05,-1.75412e-05
229,8.17494e-06,7.04882e-06,5.97417e-05,5.04234e-05,2.10953e-05,-1.91626e-05
230,1.19234e-05,7.70899e-06,6.03735e-05,5.0739e-05,-1.25962e-05,-2.19346e-05
231,1.05398e-05,1.04853e-05,6.04502e-05,4.88359e-05,-4.52403e-05,-2.21624e-05
232,7.44759e-06,2.77561e-06,5.90295e-05,4.35693e-05,-4.95851e-05,-2.00075e-05
233,8.84949e-06,-1.71585e-05,5.27277e-05,3.65542e-05,-2.79342e-05,-1.54382e-05
234,1.38729e-05,-2.53563e-05,4.57635e-05,3.29568e-05,-8.86854e-06,-1.06393e-05
235,1.57484e-05,-1.00993e-05,4.91172e-05,3.73656e-05,-1.25552e-05,-5.51592e-06
236,1.24714e-05,6.75067e-06,5.919e-05,4.43326e-05,-2.31463e-05,-3.07802e-06
237,7.91519e-06,9.08123e-06,6.46009e-05,4.75411e-05,-1.69736e-05,-4.28324e-06
238,5.25138e-06,-3.68794e-06,6.00238e-05,4.2485e-05,4.68383e-06,-4.89273e-06
239,7.2053e-06,-2.14362e-05,4.62043e-05,3.07408e-05,3.00391e-05,-1.57385e-06
240,1.17703e-05,-2.72243e-05,3.37232e-05,2.5162e-05,5.74675e-05,4.93115e-07
241,1.3292e-05,-1.5567e-05,3.45652e-05,3.18932e-05,8.94556e-05,-2.92832e-06
242,1.10546e-05,-1.04413e-06,4.62013e-05,4.15378e-05,0.000121865,-4.49926e-06
243,7.29262e-06,2.39659e-06,5.56483e-05,4.43991e-05,0.000145509,-1.10016e-06
244,4.57844e-06,-7.42151e-06,5.58886e-05,3.97394e-05,0.000146882,-1.78961e-07
245,6.69464e-06,-2.79084e-05,4.70927e-05,2.93702e-05,0.000115532,-4.11909e-06
246,1.26021e-05,-3.878e-05,3.59996e-05,2.45173e-05,6.29469e-05,-4.30667e-06
247,1.59574e-05,-2.40345e-05,3.4081e-05,3.15768e-05,1.79778e-05,-3.14683e-07
248,1.45655e-05,6.53599e-08,4.34672e-05,3.96617e-05,-6.88126e-06,1.66971e-06
249,1.14358e-05,1.08152e-05,5.22054e-05,3.84578e-05,-2.0928e-05,-1.69819e-06
250,9.1784e-06,4.23646e-06,5.26887e-05,3.33853e-05,-2.3813e-05,-8.37438e-06
251,9.74132e-06,-1.82788e-05,4.66599e-05,2.65269e-05,-7.21665e-06,-1.79524e-05
252,1.43467e-05,-3.33683e-05,3.89108e-05,2.05568e-05,8.9573e-06,-2.98362e-05
253,1.86382e-05,-1.55576e-05,3.85555e-05,2.45779e-05,-7.6133e-06,-3.06265e-05
254,1.59541e-05,8.70299e-06,4.93622e-05,3.25231e-05,-4.66177e-05,-1.45942e-05
255,7.37342e-06,1.4641e-05,5.90258e-05,3.6472e-05,-7.39864e-05,2.63177e-06
256,2.78873e-06,1.09158e-05,5.7701e-05,4.12129e-05,-8.7959e-05,7.52565e-06
257,6.79834e-06,5.46306e-06,5.37938e-05,4.56441e-05,-0.00010066,1.02835e-06
258,1.22356e-05,4.72742e-06,5.5049e-05,5.06477e-05,-0.00010716,-5.47393e-06
259,1.287e-05,-5.02865e-06,5.50256e-05,5.1498e-05,-0.000103993,-5.7658e-06
260,1.19789e-05,-2.55017e-05,4.81997e-05,4.2844e-05,-9.49202e-05,-3.99973e-06
261,1.19819e-05,-3.19757e-05,4.0772e-05,3.44009e-05,-8.29223e-05,-4.85773e-06
262,1.00636e-05,-1.58673e-05,4.46954e-05,3.69127e-05,-6.62536e-05,-5.58406e-06
263,9.29986e-06,2.20617e-06,5.47998e-05,4.53823e-05,-3.51075e-05,-4.13238e-06
264,1.17612e-05,7.87285e-06,5.83981e-05,4.69226e-05,8.99686e-06,-4.51153e-06
265,1.44383e-05,-2.50181e-06,5.40112e-05,3.68347e-05,4.04739e-05,-7.73159e-06
266,1.68375e-05,-2.35448e-05,4.5864e-05,2.22914e-05,4.03946e-05,-1.0603e-05
267,1.90431e-05,-3.50254e-05,3.92247e-05,1.68159e-05,1.74935e-05,-1.11785e-05
268,1.79613e-05,-2.51741e-05,4.03255e-05,2.38089e-05,-8.80384e-06,-8.18223e-06
269,1.27767e-05,-9.02961e-06,4.93079e-05,3.3205e-05,-2.29702e-05,-5.99253e-07
270,6.44983e-06,-5.69607e-06,5.83327e-05,3.75775e-05,-1.91008e-05,6.34023e-06
271,1.85885e-06,-1.57873e-05,6.13523e-05,3.70628e-05,-6.52195e-06,6.36603e-06
272,1.17917e-06,-3.11484e-05,5.47454e-05,3.16845e-05,5.00308e-07,1.39784e-06
273,3.28358e-06,-3.55362e-05,4.16756e-05,2.76065e-05,-4.28581e-06,-3.69494e-06
274,4.17313e-06,-2.30777e-05,3.55865e-05,3.19937e-05,-1.71928e-05,-6.3481e-06
275,3.50719e-06,-7.79037e-06,4.45377e-05,3.89007e-05,-2.35876e-05,-4.22723e-06
276,2.45061e-06,-3.08164e-06,5.64467e-05,4.02504e-05,-1.10024e-05,-3.37097e-06
277,2.27554e-07,-9.4604e-06,5.77298e-05,4.04498e-05,1.4634e-05,-7.09966e-06
278,1.09523e-06,-2.79739e-05,4.54592e-05,3.66007e-05,3.60586e-05,-9.38343e-06
279,8.33529e-06,-4.09451e-05,2.8542e-05,2.73158e-05,4.15835e-05,-8.77984e-06
280,1.41305e-05,-2.3796e-05,2.49621e-05,2.54295e-05,2.99945e-05,-9.67867e-06
281,1.16017e-05,-2.95292e-06,3.59232e-05,2.9885e-05,1.49985e-05,-1.20498e-05
282,8.20832e-06,2.2625e-06,4.39531e-05,3.43909e-05,1.55982e-05,-1.15111e-05
283,9.65624e-06,5.82263e-06,4.23189e-05,3.68002e-05,2.54018e-05,-9.68963e-06
284,9.38432e-06,8.88222e-06,4.09884e-05,3.36993e-05,3.10229e-05,-1.10138e-05
285,6.88383e-06,1.06834e-05,4.84611e-05,3.13676e-05,4.07542e-05,-1.43901e-05
286,9.23467e-06,-3.01544e-07,5.61504e-05,2.81659e-05,5.74661e-05,-1.61349e-05
287,1.52948e-05,-2.15635e-05,5.0989e-05,2.28957e-05,6.91892e-05,-1.85374e-05
288,2.02157e-05,-2.92746e-05,3.95778e-05,2.12637e-05,6.80731e-05,-2.3596e-05
289,1.9524e-05,-1.19958e-05,4.09126e-05,2.7943e-05,5.76e-05,-2.67081e-05
290,1.39505e-05,8.65704e-06,5.08987e-05,3.63354e-05,4.85242e-05,-2.25794e-05
291,1.09586e-05,1.46463e-05,5.57396e-05,3.93136e-05,4.81418e-05,-1.35732e-05
292,1.35379e-05,4.21214e-06,5.22233e-05,3.52807e-05,4.91529e-05,-7.09192e-06
293,2.00229e-05,-1.33199e-05,4.0709e-05,2.62809e-05,4.23423e-05,-3.16909e-06
294,2.53884e-05,-1.99781e-05,2.84774e-05,2.54503e-05,2.8236e-05,1.31414e-06
295,2.40097e-05,-7.72025e-06,2.76524e-05,3.73539e-05,1.40198e-05,7.04111e-06
296,1.81738e-05,8.94632e-06,3.93284e-05,4.99226e-05,6.04029e-06,1.09549e-05
297,1.5405e-05,1.27465e-05,5.25837e-05,5.1263e-05,5.88692e-06,1.01898e-05
298,1.86464e-05,2.94645e-06,5.9631e-05,4.23925e-05,1.12839e-05,7.77054e-06
299,2.50995e-05,-1.62981e-05,5.64712e-05,2.96934e-05,1.86193e-05,5.39649e-06
300,3.00709e-05,-2.82032e-05,4.68368e-05,2.5645e-05,2.29716e-05,-2.27224e-06
301,3.05871e-05,-1.80279e-05,4.33782e-05,3.80699e-05,1.92859e-05,-1.16281e-05
302,2.66391e-05,1.51136e-06,5.1348e-05,5.45974e-05,1.1122e-05,-1.12595e-05
303,2.13443e-05,7.58006e-06,6.00005e-05,6.22302e-05,7.73556e-06,-3.99295e-06
304,1.75779e-05,-3.15977e-07,6.18947e-05,6.23261e-05,1.23296e-05,-1.57892e-07
305,1.86948e-05,-2.19301e-05,5.58845e-05,5.18232e-05,2.29323e-05,-4.05732e-06
306,2.39425e-05,-3.72812e-05,4.53846e-05,3.97588e-05,3.95061e-05,-1.06312e-05
307,2.46685e-05,-2.0803e-05,4.26442e-05,4.37235e-05,5.57e-05,-9.42729e-06
308,1.81648e-05,1.13233e-06,4.94895e-05,5.43929e-05,6.08907e-05,-2.45287e-06
309,1.07791e-05,7.47526e-06,5.23899e-05,5.73088e-05,5.18191e-05,4.0483e-08
310,7.69837e-06,8.33716e-06,4.86612e-05,5.40514e-05,3.55306e-05,-5.99003e-06
311,6.97964e-06,7.88367e-06,4.80132e-05,4.91806e-05,2.35652e-05,-1.31645e-05
312,4.47854e-06,7.50577e-06,5.37564e-05,4.87778e-05,1.97604e-05,-1.2789e-05
313,2.96989e-06,-2.1836e-06,5.41856e-05,4.69063e-05,1.49747e-05,-9.8418e-06
314,5.42947e-06,-2.11991e-05,4.13003e-05,3.68509e-05,4.1558e-06,-9.35709e-06
315,8.62595e-06,-2.8543e-05,2.61719e-05,2.9765e-05,-9.61477e-06,-9.07374e-06
316,8.7681e-06,-1.23124e-05,2.5618e-05,3.4167e-05,-1.97686e-05,-8.13467e-06
317,6.87762e-06,7.84009e-06,3.70072e-05,4.04863e-05,-1.4947e-05,-8.67681e-06
318,5.16785e-06,1.43891e-05,4.60739e-05,4.00152e-05,3.84646e-06,-9.10342e-06
319,4.78065e-06,1.68166e-06,4.65593e-05,3.48216e-05,2.0723e-05,-8.01323e-06
320,7.8141e-06,-2.08037e-05,3.81891e-05,2.80076e-05,2.52332e-05,-5.93434e-06
321,1.30324e-05,-2.97279e-05,2.97651e-05,2.60971e-05,1.81162e-05,-4.98687e-06
322,1.28575e-05,-1.53827e-05,3.29441e-05,3.47205e-05,6.68376e-06,-4.79191e-06
323,5.64341e-06,4.77954e-06,4.56472e-05,4.71983e-05,1.96762e-06,-4.28618e-06
324,4.58747e-07,1.3182e-05,5.63284e-05,5.25325e-05,7.02982e-06,-4.71799e-06
325,4.46199e-06,8.37286e-06,5.89047e-05,4.77846e-05,1.25724e-05,-8.04956e-06
326,1.46921e-05,-6.4249e-06,5.23376e-05,3.58914e-05,1.26301e-05,-1.41067e-05
327,2.25206e-05,-1.56541e-05,4.29638e-05,2.81582e-05,1.12362e-05,-2.13479e-05
328,2.2582e-05,-7.05147e-06,4.30022e-05,3.20142e-05,1.1146e-05,-2.77256e-05
329,1.69992e-05,8.56889e-06,5.29417e-05,4.22466e-05,1.36076e-05,-2.80721e-05
330,1.1259e-05,1.39346e-05,5.96517e-05,5.05187e-05,2.06425e-05,-1.6892e-05
331,7.84638e-06,6.63987e-06,5.94888e-05,5.11686e-05,2.53082e-05,5.05828e-06
332,7.69751e-06,-1.41485e-05,5.45103e-05,3.96229e-05,2.16848e-05,2.08385e-05
333,1.09362e-05,-2.89535e-05,4.53677e-05,2.83509e-05,1.73594e-05,1.27788e-05
334,1.49318e-05,-1.55866e-05,4.25025e-05,3.3538e-05,1.33937e-05,-9.39039e-06
335,1.60917e-05,3.72361e-06,5.217e-05,4.16903e-05,4.67367e-06,-2.0421e-05
336,1.56124e-05,8.88448e-06,6.34043e-05,4.18448e-05,-1.87394e-06,-2.09675e-05
337,1.51257e-05,7.75049e-06,6.46546e-05,4.21568e-05,3.35661e-07,-2.05456e-05
338,1.41718e-05,1.32607e-06,5.95174e-05,4.46884e-05,6.33251e-06,-1.98601e-05
339,1.24542e-05,-6.4289e-06,5.91359e-05,4.68363e-05,9.9636e-06,-1.86409e-05
340,1.14773e-05,-1.82521e-05,5.98141e-05,4.34544e-05,1.16575e-05,-1.52026e-05
341,1.38476e-05,-3.14236e-05,5.14817e-05,3.43326e-05,1.37328e-05,-1.41512e-05
342,1.81637e-05,-2.87911e-05,4.2121e-05,2.5461e-05,1.40273e-05,-1.75102e-05
343,1.80357e-05,-7.90799e-06,4.63944e-05,2.31376e-05,1.26435e-05,-2.28897e-05
344,1.14699e-05,8.27172e-06,5.8401e-05,2.69164e-05,1.4424e-05,-2.68782e-05
345,5.43331e-06,9.10236e-06,6.40805e-05,3.2592e-05,2.02297e-05,-2.85746e-05
346,5.27808e-06,-2.17594e-06,5.85098e-05,3.47114e-05,2.54542e-05,-2.94e-05
347,1.07269e-05,-1.89293e-05,4.37074e-05,2.90431e-05,2.71734e-05,-3.00017e-05
348,1.59937e-05,-2.53084e-05,3.13943e-05,2.28599e-05,2.41465e-05,-3.19657e-05
349,1.40128e-05,-1.49214e-05,3.46363e-05,2.56007e-05,1.7609e-05,-3.41352e-05
350,7.72478e-06,-1.31031e-06,4.84137e-05,3.5138e-05,1.26304e-05,-3.20251e-05
351,6.81921e-06,2.69598e-06,5.50026e-05,4.01616e-05,1.12414e-05,-2.62519e-05
352,1.32622e-05,-3.02295e-06,4.88305e-05,3.43884e-05,1.10508e-05,-2.36353e-05
353,2.12403e-05,-1.56182e-05,3.76947e-05,2.35263e-05,1.13244e-05,-2.56509e-05
354,2.48868e-05,-2.02927e-05,3.03846e-05,2.07867e-05,1.28291e-05,-2.48162e-05
355,2.039e-05,-5.82068e-06,3.3905e-05,2.87397e-05,1.26205e-05,-1.60007e-05
356,1.00939e-05,1.48608e-05,4.69615e-05,3.55238e-05,1.09814e-05,-1.22389e-06
357,3.30623e-06,2.39356e-05,5.61092e-05,3.62632e-05,1.31534e-05,1.1205e-05
358,5.29015e-06,1.84239e-05,5.49772e-05,3.22782e-05,1.72334e-05,1.33649e-05
359,1.00072e-05,-4.11781e-06,4.70955e-05,2.04236e-05,1.57384e-05,8.01917e-06
360,1.10609e-05,-2.16621e-05,3.74836e-05,1.08777e-05,1.21589e-05,5.4067e-06
361,1.11575e-05,-1.12862e-05,3.75456e-05,1.76896e-05,1.38468e-05,1.07934e-05
362,1.21158e-05,2.86705e-06,4.96813e-05,2.79883e-05,2.09352e-05,1.88474e-05
363,1.07675e-05,3.70788e-06,5.84266e-05,2.97531e-05,2.98612e-05,2.48505e-05
364,7.12718e-06,1.98318e-06,5.41676e-05,3.19572e-05,3.09043e-05,2.23408e-05
365,5.70744e-06,1.29139e-06,4.79801e-05,3.65724e-05,2.41993e-05,4.53104e-06
366,7.52716e-06,-1.75996e-07,5.24476e-05,4.1538e-05,2.12987e-05,-2.43178e-05
367,1.14534e-05,-1.23336e-05,5.9402e-05,4.32719e-05,2.33241e-05,-4.61772e-05
368,1.65847e-05,-3.22837e-05,5.4277e-05,3.93705e-05,2.537e-05,-4.95814e-05
369,1.96306e-05,-3.70711e-05,4.03146e-05,3.75194e-05,3.09773e-05,-3.7576e-05
370,1.82014e-05,-1.89603e-05,3.65961e-05,4.42829e-05,4.97232e-05,-2.18425e-05
371,1.36756e-05,5.16256e-08,4.47648e-05,5.20747e-05,8.03192e-05,-1.44352e-05
372,1.06043e-05,5.71198e-06,5.21741e-05,5.49047e-05,0.00010412,-1.52229e-05
373,1.05195e-05,-2.59762e-06,5.18151e-05,4.8219e-05,0.000103747,-1.86007e-05
374,1.35159e-05,-1.85657e-05,4.40239e-05,3.31849e-05,8.04389e-05,-2.01408e-05
375,1.69064e-05,-2.51294e-05,3.82173e-05,2.51334e-05,4.33545e-05,-2.02573e-05
376,1.57841e-05,-1.37554e-05,4.39909e-05,3.33601e-05,8.03875e-07,-2.08611e-05
377,1.06552e-05,1.42793e-06,5.76742e-05,4.80522e-05,-3.57624e-05,-2.10171e-05
378,5.80951e-06,4.43956e-06,6.75918e-05,5.62515e-05,-5.8585e-05,-2.15315e-05
379,3.95221e-06,-5.95325e-06,6.82597e-05,5.62728e-05,-7.00423e-05,-2.4191e-05
380,6.26632e-06,-2.33901e-05,5.91793e-05,5.09723e-05,-7.18381e-05,-2.58857e-05
381,1.11254e-05,-3.03144e-05,4.83101e-05,4.98846e-05,-6.13814e-05,-2.4461e-05
382,1.25418e-05,-1.64986e-05,4.96369e-05,5.72997e-05,-4.31482e-05,-1.92695e-05
383,9.57491e-06,4.08016e-06,6.35864e-05,6.48274e-05,-2.52001e-05,-1.28483e-05
384,7.23475e-06,1.13815e-05,7.50409e-05,6.49863e-05,-8.8786e-06,-1.32415e-05
385,5.85085e-06,2.75508e-06,7.66351e-05,6.14035e-05,3.12387e-06,-1.98991e-05
386,4.46514e-06,-1.84596e-05,6.89446e-05,5.44996e-05,4.99862e-06,-2.37393e-05
387,5.83519e-06,-3.39862e-05,5.7758e-05,4.93792e-05,-2.53702e-06,-2.31371e-05
388,9.30123e-06,-2.08289e-05,5.52324e-05,5.27516e-05,-1.56666e-05,-2.1063e-05
389,1.14538e-05,-1.51838e-06,6.40879e-05,5.45601e-05,-2.32377e-05,-2.0658e-05
390,1.10747e-05,1.2169e-06,7.32008e-05,5.33871e-05,-8.82093e-06,-1.94344e-05
391,9.75927e-06,1.16952e-06,7.4938e-05,5.59159e-05,1.97506e-05,-1.4445e-05
392,8.00097e-06,5.80203e-06,7.38381e-05,5.76883e-05,4.21536e-05,-9.54316e-06
393,6.04385e-06,1.01114e-05,7.50851e-05,5.84015e-05,5.28154e-05,-7.32132e-06
394,4.27536e-06,2.09369e-06,7.32507e-05,5.60127e-05,5.10191e-05,-4.02224e-06
395,4.23921e-06,-1.75744e-05,6.34154e-05,4.83011e-05,3.99627e-05,6.04084e-07
396,5.74978e-06,-2.76056e-05,5.33614e-05,4.45263e-05,2.06072e-05,4.69651e-06
397,5.17614e-06,-1.77322e-05,5.42987e-05,4.78785e-05,-7.92639e-06,7.43494e-06
398,3.62541e-06,-4.34335e-06,6.43749e-05,4.91346e-05,-3.68277e-05,5.83841e-06
399,4.62316e-06,2.54694e-06,7.34661e-05,4.58813e-05,-5.13959e-05,2.50411e-06
400,8.11788e-06,-3.83008e-06,7.14327e-05,3.99974e-05,-4.80819e-05,2.92821e-06
401,1.22203e-05,-2.13651e-05,5.70407e-05,3.06168e-05,-3.222e-05,7.21776e-06
402,1.37814e-05,-3.14588e-05,4.51287e-05,2.32242e-05,-1.35438e-05,9.24972e-06
403,9.65132e-06,-2.2433e-05,4.93286e-05,2.4281e-05,-3.71856e-06,9.59923e-06
404,3.6994e-06,-5.47128e-06,6.4027e-05,2.97522e-05,1.83391e-08,1.08814e-05
405,2.00605e-06,2.91062e-06,7.39692e-05,3.26319e-05,1.02967e-05,9.92566e-06
406,5.70324e-06,-2.58492e-06,7.10606e-05,3.13097e-05,2.61996e-05,6.67835e-06
407,1.19133e-05,-1.74958e-05,5.6193e-05,2.49483e-05,3.33938e-05,8.03303e-06
408,1.88095e-05,-2.55752e-05,4.04572e-05,1.84378e-05,2.69997e-05,1.36645e-05
409,2.29106e-05,-1.58902e-05,3.77575e-05,1.96742e-05,1.55425e-05,1.69713e-05
410,2.06112e-05,1.73121e-06,4.67856e-05,2.50476e-05,1.16087e-05,1.60724e-05
411,1.48902e-05,8.22713e-06,5.3191e-05,2.65169e-05,2.44323e-05,1.14634e-05
412,1.16926e-05,9.55085e-07,5.23502e-05,2.55491e-05,5.73743e-05,6.48426e-06
413,1.56119e-05,-1.90687e-05,4.67022e-05,1.93521e-05,9.86234e-05,5.9577e-06
414,2.40688e-05,-3.18883e-05,4.0051e-05,1.55249e-05,0.000122718,7.43211e-06
415,2.77756e-05,-1.85723e-05,4.02727e-05,2.44853e-05,0.000119299,9.2132e-06
416,2.38982e-05,-4.47611e-06,4.80844e-05,3.02809e-05,0.000103,9.8285e-06
417,1.97909e-05,-4.27259e-06,5.57305e-05,2.77919e-05,7.99327e-05,4.1272e-06
418,1.97591e-05,-5.24291e-06,5.79813e-05,2.66453e-05,4.28258e-05,-6.69211e-08
419,2.06414e-05,-4.315e-06,5.47491e-05,2.79832e-05,3.20069e-06,1.96333e-06
420,1.92906e-05,-2.34921e-07,5.30908e-05,2.76213e-05,-2.01097e-05,2.85234e-06
421,1.65145e-05,-5.5792e-06,5.46739e-05,2.18424e-05,-2.89408e-05,2.72536e-07
422,1.60198e-05,-2.39034e-05,4.92222e-05,1.4638e-05,-3.70287e-05,-2.62062e-06
423,1.88084e-05,-3.00073e-05,3.82054e-05,1.62285e-05,-5.45066e-05,-6.66845e-06
424,1.9793e-05,-1.27971e-05,3.74678e-05,2.87248e-05,-7.26472e-05,-1.08633e-05
425,1.83271e-05,6.23287e-06,4.70438e-05,3.9731e-05,-6.87044e-05,-1.16338e-05
426,1.72127e-05,1.01048e-05,5.57232e-05,4.3489e-05,-4.13745e-05,-1.031e-05
427,1.56796e-05,-2.0727e-06,5.76679e-05,3.74653e-05,-1.31077e-05,-8.37397e-06
428,1.39665e-05,-1.98643e-05,5.07654e-05,2.46527e-05,3.57125e-06,-5.98666e-06
429,1.39003e-05,-2.55224e-05,4.17843e-05,1.69964e-05,1.1468e-05,-2.39776e-06
430,1.24034e-05,-1.40516e-05,4.18633e-05,2.16879e-05,1.47843e-05,4.0995e-06
431,4.84513e-06,-8.4313e-07,4.95458e-05,3.11212e-05,1.59487e-05,1.27521e-05
432,-5.10973e-06,2.47616e-06,5.5167e-05,3.70004e-05,1.78444e-05,1.71362e-05
433,-8.56231e-06,-4.08895e-06,5.59144e-05,3.69991e-05,2.16463e-05,1.55822e-05
434,-3.25061e-06,-1.84252e-05,5.15889e-05,3.07492e-05,2.4237e-05,1.70692e-05
435,4.96701e-06,-2.54393e-05,4.32775e-05,2.58031e-05,2.31578e-05,2.56533e-05
436,8.8718e-06,-1.18378e-05,3.93553e-05,3.02549e-05,1.95417e-05,3.30562e-05
437,6.26117e-06,8.71937e-06,4.47707e-05,3.83686e-05,1.9484e-05,2.96164e-05
438,2.04817e-06,1.68958e-05,5.22483e-05,3.92408e-05,2.71554e-05,1.49209e-05
439,1.55461e-06,7.81347e-06,5.55029e-05,3.39185e-05,3.73948e-05,-3.92124e-06
440,5.66746e-06,-1.87884e-05,5.17148e-05,2.66386e-05,4.11264e-05,-1.89461e-05
441,1.08991e-05,-3.65193e-05,4.22125e-05,2.38783e-05,3.5763e-05,-2.81289e-05
442,1.40441e-05,-2.06057e-05,3.90169e-05,3.0089e-05,2.59132e-05,-3.56213e-05
443,1.47645e-05,1.18552e-07,4.67903e-05,3.68837e-05,2.14974e-05,-4.07159e-05
444,1.49406e-05,5.48528e-06,5.52157e-05,3.74854e-05,3.44913e-05,-4.15279e-05
445,1.3831e-05,8.74751e-06,5.5414e-05,3.77222e-05,5.57861e-05,-4.26289e-05
446,1.02971e-05,1.02756e-05,5.0844e-05,3.8095e-05,6.6819e-05,-4.42689e-05
447,7.14029e-06,9.5475e-06,5.34579e-05,3.80895e-05,7.00665e-05,-4.13145e-05
448,7.96964e-06,-1.72663e-06,5.95091e-05,3.58851e-05,7.22259e-05,-3.48252e-05
449,1.40301e-05,-2.17336e-05,5.3852e-05,3.06194e-05,6.85185e-05,-2.65388e-05
450,2.17288e-05,-2.86434e-05,4.04158e-05,3.02157e-05,4.90686e-05,-1.98173e-05
451,2.28816e-05,-1.63353e-05,3.97147e-05,3.89086e-05,1.25753e-05,-2.10227e-05
452,1.54947e-05,-1.90864e-06,5.06758e-05,4.73282e-05,-2.45804e-05,-3.03237e-05
453,8.82786e-06,4.64731e-06,5.72928e-05,4.69054e-05,-4.0508e-05,-3.74163e-05
454,8.89832e-06,-4.89896e-07,5.49053e-05,3.7059e-05,-3.04844e-05,-3.16535e-05
455,1.31724e-05,-1.27592e-05,4.74469e-05,2.48442e-05,-8.34896e-06,-1.75311e-05
456,1.56884e-05,-1.64464e-05,4.2012e-05,2.19172e-05,5.54544e-06,-6.221e-06
457,1.21448e-05,-5.10846e-06,4.52246e-05,3.14508e-05,2.90758e-06,-4.56356e-06
458,6.04915e-06,7.36169e-06,5.42416e-05,4.28202e-05,-3.03475e-06,-8.83593e-06
459,3.08817e-06,8.31751e-06,5.97543e-05,4.41455e-05,1.81155e-06,-9.74265e-06
460,3.81824e-06,-4.94165e-07,5.73389e-05,3.39776e-05,1.02186e-05,-3.79341e-06
461,7.00194e-06,-1.47757e-05,4.63847e-05,2.02751e-05,6.84977e-06,4.5693e-06
462,1.05743e-05,-1.97203e-05,3.33036e-05,1.85328e-05,-9.95201e-06,6.84934e-06
463,1.05707e-05,-5.85185e-06,2.94534e-05,3.14147e-05,-3.16163e-05,4.54315e-06
464,7.52166e-06,1.11082e-05,3.70587e-05,4.23736e-05,-4.66644e-05,5.0045e-06
465,6.346e-06,1.4245e-05,4.63326e-05,4.547e-05,-4.5805e-05,3.3759e-06
466,9.14522e-06,4.82826e-06,4.82086e-05,4.27357e-05,-2.89564e-05,-1.74012e-06
467,1.49503e-05,-1.6352e-05,3.8892e-05,3.02291e-05,-9.07668e-06,-7.34007e-06
468,2.26205e-05,-3.05487e-05,2.4928e-05,2.02643e-05,-1.95721e-06,-8.05103e-06
469,2.57723e-05,-1.51788e-05,2.09376e-05,2.79819e-05,-9.42324e-06,-1.43467e-06
470,1.97668e-05,5.57594e-06,3.16764e-05,3.89963e-05,-1.47677e-05,2.47422e-06
471,1.27531e-05,9.60652e-06,4.08426e-05,3.99802e-05,-2.78272e-06,2.13137e-06
472,1.18281e-05,1.00875e-05,3.74663e-05,4.07029e-05,1.44425e-05,4.22492e-06
473,1.38638e-05,1.1279e-05,2.99311e-05,4.16357e-05,2.01064e-05,8.55844e-06
474,1.46782e-05,1.14087e-05,2.8495e-05,4.37229e-05,2.02904e-05,8.79571e-06
475,1.71935e-05,-2.76825e-07,3.09292e-05,4.63087e-05,1.92122e-05,4.16987e-06
476,2.22237e-05,-2.1688e-05,2.83997e-05,4.78007e-05,1.467e-05,4.79847e-07
477,2.55077e-05,-2.90506e-05,2.38607e-05,5.42448e-05,8.43844e-06,3.52889e-06
478,2.26997e-05,-1.56656e-05,2.70223e-05,6.19947e-05,2.94053e-06,1.02493e-05
479,1.58793e-05,-1.58321e-06,3.67866e-05,6.20769e-05,3.90912e-06,1.53939e-05
480,1.1847e-05,1.71225e-06,4.41798e-05,5.60813e-05,1.41458e-05,1.72442e-05
481,1.162e-05,-7.30926e-06,4.39492e-05,4.76496e-05,2.59555e-05,1.81483e-05
482,1.3507e-05,-2.32467e-05,3.62447e-05,3.84917e-05,3.03295e-05,1.9392e-05
483,1.66422e-05,-2.72345e-05,2.78919e-05,3.55552e-05,2.46428e-05,1.87511e-05
484,1.7676e-05,-1.13489e-05,2.82326e-05,4.33642e-05,1.43801e-05,1.78849e-05
485,1.45448e-05,5.78078e-06,3.72888e-05,5.60199e-05,1.01404e-05,1.82069e-05
486,9.58384e-06,4.3362e-06,4.63664e-05,6.25356e-05,1.77424e-05,1.65552e-05
487,6.37671e-06,-1.48578e-05,4.99178e-05,5.71255e-05,3.96355e-05,9.15956e-06
488,6.4736e-06,-4.20001e-05,4.51221e-05,4.36969e-05,7.98851e-05,-1.41537e-06
489,6.96182e-06,-5.64362e-05,3.51382e-05,3.75456e-05,0.000129833,-8.87286e-06
490,5.29556e-06,-4.5528e-05,3.48362e-05,4.51561e-05,0.000162345,-9.40919e-06
491,3.69562e-06,-2.39256e-05,4.91367e-05,5.62479e-05,0.00016221,-7.08956e-06
492,3.89831e-06,-1.18383e-05,6.30061e-05,5.8203e-05,0.000139479,-9.77941e-06
493,3.89323e-06,-1.42335e-05,6.65481e-05,5.09976e-05,0.000103091,-1.32559e-05
494,4.88719e-06,-3.21806e-05,6.02389e-05,4.0787e-05,5.24827e-05,-9.47307e-06
495,9.42582e-06,-4.15374e-05,4.85359e-05,3.61128e-05,-3.01474e-06,-8.04569e-06
496,1.40778e-05,-2.11331e-05,4.35474e-05,4.3572e-05,-5.04566e-05,-1.31853e-05
497,1.23846e-05,-6.49102e-07,5.18728e-05,5.12359e-05,-8.71459e-05,-1.82014e-05
498,6.38748e-06,2.2893e-06,6.32703e-05,5.29096e-05,-0.000111446,-1.78682e-05
499,4.13182e-06,1.57179e-06,6.70411e-05,5.48813e-05,-0.00011909,-1.11645e-05
500,7.47229e-06,4.27149e-06,6.55239e-05,5.54474e-05,-0.000107778,-4.65461e-06
501,1.13999e-05,8.21712e-06,6.60212e-05,5.41512e-05,-7.78885e-05,-4.65586e-06
502,1.40665e-05,2.29145e-07,6.56555e-05,4.67727e-05,-3.7602e-05,-1.2514e-05
503,1.72079e-05,-1.74461e-05,5.65922e-05,3.16385e-05,-3.50613e-06,-2.45661e-05
504,1.96956e-05,-2.14257e-05,4.74964e-05,2.23143e-05,9.71821e-06,-3.43904e-05
505,2.08926e-05,-3.50165e-06,5.325e-05,2.79126e-05,3.73094e-06,-3.5246e-05
506,2.16485e-05,1.41635e-05,6.58129e-05,3.78613e-05,-1.41163e-06,-3.15286e-05
507,2.20414e-05,1.82121e-05,6.94579e-05,4.12766e-05,5.36282e-06,-2.8598e-05
508,2.30002e-05,8.5854e-06,6.209e-05,3.71506e-05,1.58792e-05,-2.76055e-05
509,2.43369e-05,-7.27053e-06,4.82525e-05,3.14801e-05,2.03248e-05,-2.89414e-05
510,2.41179e-05,-1.37569e-05,3.59414e-05,3.32204e-05,1.38245e-05,-3.3481e-05
511,2.21464e-05,-5.2683e-06,3.5019e-05,4.08386e-05,1.3058e-06,-3.88609e-05
512,1.98221e-05,4.7368e-06,4.29421e-05,4.3942e-05,-4.20719e-06,-3.71363e-05
513,1.78427e-05,5.37042e-06,4.93998e-05,4.10453e-05,3.91515e-06,-2.65147e-05
514,1.74684e-05,-3.15514e-06,5.10099e-05,3.42465e-05,1.71429e-05,-1.42927e-05
515,1.95887e-05,-1.87601e-05,4.79497e-05,1.99153e-05,2.23852e-05,-9.04158e-06
516,2.24306e-05,-2.73749e-05,4.29883e-05,6.4165e-06,1.57574e-05,-1.07122e-05
517,2.35221e-05,-1.75751e-05,4.36903e-05,8.37461e-06,4.75341e-06,-1.15256e-05
518,2.19555e-05,1.42863e-08,5.1465e-05,2.22719e-05,2.39373e-06,-9.49115e-06
519,1.97801e-05,9.7642e-06,5.85778e-05,3.32867e-05,1.82253e-05,-1.42308e-05
520,1.84233e-05,6.87303e-06,6.01852e-05,3.46418e-05,4.35547e-05,-3.02716e-05
521,1.71508e-05,-9.34855e-06,5.38449e-05,2.35969e-05,5.44334e-05,-5.17793e-05
522,1.34789e-05,-1.93962e-05,4.20959e-05,1.34373e-05,4.26899e-05,-6.42093e-05
523,5.56914e-06,-8.40346e-06,3.7569e-05,2.22115e-05,2.30115e-05,-5.98826e-05
524,-2.95282e-06,2.95235e-06,4.43451e-05,3.69775e-05,1.28026e-05,-4.69898e-05
525,-5.07399e-06,2.4562e-06,5.2645e-05,4.20356e-05,1.99964e-05,-3.62223e-05
526,-1.13043e-06,3.62434e-06,5.69178e-05,3.98833e-05,3.45082e-05,-2.63623e-05
527,1.59611e-06,8.93454e-06,5.79707e-05,3.63745e-05,3.95101e-05,-1.26441e-05
528,-5.25903e-07,1.30831e-05,5.93035e-05,3.79237e-05,3.45496e-05,-2.32593e-06
529,-1.97755e-06,4.33601e-06,5.94536e-05,3.72655e-05,2.81734e-05,6.49196e-07
530,4.11227e-06,-1.55239e-05,5.56206e-05,2.83198e-05,2.49646e-05,-2.39492e-06
531,1.37023e-05,-1.98059e-05,5.21837e-05,2.36937e-05,1.78235e-05,-8.01288e-06
532,1.80626e-05,-1.00583e-07,5.72407e-05,2.94008e-05,3.60443e-06,-1.25475e-05
533,1.62479e-05,1.83716e-05,6.61072e-05,3.52986e-05,-3.29711e-06,-1.75853e-05
534,1.3735e-05,2.03639e-05,6.99731e-05,3.54017e-05,4.53797e-06,-2.16727e-05
535,1.43369e-05,4.84454e-06,6.71636e-05,2.94769e-05,1.67209e-05,-1.88654e-05
536,1.71549e-05,-1.58572e-05,5.70812e-05,2.13182e-05,2.44731e-05,-9.28575e-06
537,1.78906e-05,-2.0642e-05,4.45338e-05,2.05589e-05,2.65157e-05,-1.90296e-06
538,1.4102e-05,-7.10001e-06,3.96803e-05,3.02737e-05,2.1633e-05,-7.86631e-07
539,8.55512e-06,5.35513e-06,4.50399e-05,4.04937e-05,1.36969e-05,-7.82434e-07
540,4.25753e-06,4.67071e-06,5.16845e-05,4.33951e-05,1.09583e-05,1.20046e-07
541,2.34713e-06,-6.80837e-06,5.12215e-05,3.91837e-05,1.48061e-05,-2.47505e-06
542,5.19952e-06,-2.58269e-05,4.20208e-05,2.97425e-05,2.01083e-05,-6.23648e-06
543,1.21338e-05,-3.66647e-05,3.24401e-05,2.46419e-05,2.23115e-05,-4.26739e-06
544,1.60295e-05,-2.61293e-05,3.45294e-05,3.21919e-05,1.73365e-05,4.38396e-06
545,1.3389e-05,-6.37768e-06,4.835e-05,4.32225e-05,8.21674e-06,1.2892e-05
546,9.69405e-06,2.04943e-06,6.12744e-05,4.5204e-05,6.17677e-06,1.37656e-05
547,1.11755e-05,-2.63463e-06,6.4495e-05,4.09091e-05,1.27495e-05,6.40175e-06
548,1.79005e-05,-1.95837e-05,5.61254e-05,3.58506e-05,1.76979e-05,-5.47472e-06
549,2.47778e-05,-3.12284e-05,4.34564e-05,3.69237e-05,1.59464e-05,-1.2867e-05
550,2.54112e-05,-1.8246e-05,4.03863e-05,4.92773e-05,8.9877e-06,-9.01719e-06
551,1.75817e-05,-3.12414e-06,4.83741e-05,5.85668e-05,3.24096e-06,-7.15918e-08
552,8.73835e-06,-1.37506e-06,5.29044e-05,5.69959e-05,6.45833e-06,7.33985e-06
553,7.75654e-06,-1.9094e-06,4.91831e-05,5.42573e-05,1.42966e-05,1.14931e-05
554,1.01761e-05,1.45407e-06,4.71228e-05,5.22864e-05,1.67594e-05,1.0047e-05
555,8.91257e-06,6.21261e-06,5.12211e-05,4.90768e-05,1.23371e-05,5.60014e-06
556,5.97734e-06,-2.14636e-06,5.31405e-05,4.15052e-05,6.88056e-06,-5.35214e-07
557,5.30903e-06,-2.24723e-05,4.58762e-05,2.92346e-05,5.0646e-06,-2.75936e-06
558,6.86721e-06,-3.04284e-05,3.75751e-05,2.57411e-05,1.68797e-06,2.93674e-06
559,6.14247e-06,-1.39237e-05,4.19068e-05,3.65671e-05,-7.61413e-06,8.18797e-06
560,2.93841e-06,6.61055e-06,5.44515e-05,4.73054e-05,-1.14645e-05,8.7692e-06
561,3.30797e-07,1.38836e-05,6.15304e-05,4.87681e-05,2.14056e-06,7.40047e-06
562,3.64801e-07,3.58421e-06,5.94209e-05,4.21099e-05,2.4738e-05,5.19618e-06
563,4.03373e-06,-1.48536e-05,5.1734e-05,3.32052e-05,4.24383e-05,1.7763e-06
564,9.30524e-06,-2.09506e-05,4.47629e-05,3.03573e-05,4.93331e-05,-1.20378e-06
565,1.09827e-05,-6.89623e-06,4.63407e-05,3.75834e-05,4.40772e-05,-2.78809e-06
566,6.94287e-06,9.97437e-06,5.57009e-05,4.65759e-05,3.35361e-05,-2.45058e-06
567,1.40003e-06,1.2423e-05,6.07718e-05,4.77952e-05,2.80178e-05,3.12482e-07
568,-5.02266e-08,4.18963e-07,5.66141e-05,3.9948e-05,2.80926e-05,1.30143e-06
569,3.95317e-06,-1.98238e-05,4.82753e-05,2.90468e-05,2.48501e-05,-5.75544e-06
570,8.44065e-06,-3.01359e-05,4.25455e-05,2.60953e-05,1.3735e-05,-1.95165e-05
571,7.82935e-06,-1.79473e-05,4.57222e-05,3.46298e-05,-7.04214e-07,-2.77024e-05
572,3.56469e-06,2.35384e-06,5.55158e-05,4.30012e-05,-1.00685e-05,-2.38419e-05
573,1.16312e-06,1.05474e-05,6.04532e-05,4.20636e-05,-8.98035e-06,-1.90394e-05
574,1.75738e-06,4.43073e-06,5.79858e-05,3.69121e-05,-5.26786e-07,-2.38908e-05
575,5.45959e-06,-1.5586e-05,5.10422e-05,3.0682e-05,7.23291e-06,-2.86696e-05
576,1.21277e-05,-2.91892e-05,4.29684e-05,2.89993e-05,9.0279e-06,-2.69208e-05
577,1.69025e-05,-1.35522e-05,4.36188e-05,3.82818e-05,4.42267e-06,-2.35965e-05
578,1.52859e-05,7.28066e-06,5.37795e-05,4.84556e-05,4.72289e-06,-1.70758e-05
579,1.27309e-05,1.08791e-05,6.14035e-05,4.92918e-05,2.69844e-05,-1.34947e-05
580,1.64011e-05,7.76052e-06,6.12522e-05,4.24764e-05,6.48079e-05,-1.55686e-05
581,2.15847e-05,6.7456e-06,5.78882e-05,3.69307e-05,9.07325e-05,-1.669e-05
582,2.10142e-05,1.00259e-05,5.92915e-05,3.85263e-05,9.46775e-05,-1.44488e-05
583,1.81504e-05,3.16681e-06,6.34063e-05,4.02176e-05,8.63349e-05,-1.2705e-05
584,2.1362e-05,-1.76879e-05,5.96211e-05,3.73777e-05,7.12175e-05,-1.47629e-05
585,2.87602e-05,-2.87088e-05,5.1359e-05,3.68356e-05,4.2036e-05,-1.79124e-05
586,2.81055e-05,-1.86001e-05,5.40886e-05,4.44689e-05,1.33038e-06,-1.97156e-05
587,1.85976e-05,-6.83955e-06,6.58045e-05,5.1489e-05,-2.98472e-05,-1.94264e-05
588,1.19329e-05,-3.58513e-06,7.47453e-05,5.13799e-05,-4.43274e-05,-1.60257e-05
589,1.36049e-05,-9.20948e-06,7.52938e-05,4.10679e-05,-5.479e-05,-1.28717e-05
590,1.9144e-05,-2.17213e-05,6.41569e-05,2.48687e-05,-6.78431e-05,-1.2069e-05
591,2.05756e-05,-2.54629e-05,4.81176e-05,1.67288e-05,-7.71799e-05,-8.79548e-06
592,1.54762e-05,-1.14114e-05,4.31065e-05,2.41978e-05,-7.30307e-05,-2.40751e-06
593,8.5678e-06,5.68913e-06,5.21691e-05,3.74392e-05,-4.87003e-05,2.05284e-06
594,4.25646e-06,1.05076e-05,6.25038e-05,4.24533e-05,-9.60846e-06,4.10571e-06
595,4.41209e-06,1.34715e-06,6.56364e-05,3.53173e-05,2.89506e-05,7.62714e-06
596,9.89688e-06,-1.73052e-05,5.93369e-05,2.29312e-05,5.48976e-05,9.35637e-06
597,1.72734e-05,-2.78709e-05,4.91563e-05,1.85816e-05,6.37951e-05,8.83946e-06
598,1.96659e-05,-1.75702e-05,4.92068e-05,2.71149e-05,5.63318e-05,1.11111e-05
599,1.67643e-05,-5.93893e-07,6.22528e-05,3.74087e-05,4.11458e-05,1.41354e-05
600,1.42969e-05,4.96708e-06,7.36218e-05,3.74211e-05,2.91793e-05,1.17249e-05
601,1.30844e-05,-3.31431e-07,7.51628e-05,3.13186e-05,2.14375e-05,8.839e-06
602,1.23673e-05,-1.80325e-05,6.75594e-05,2.19861e-05,1.14979e-05,9.2099e-06
603,1.17551e-05,-2.91021e-05,5.5567e-05,1.70746e-05,-6.6069e-06,6.51413e-06
604,8.62246e-06,-9.38533e-06,5.27155e-05,2.46052e-05,-3.77851e-05,-4.08716e-07
605,3.5276e-06,1.25039e-05,6.41326e-05,2.98971e-05,-6.68293e-05,-4.14623e-06
606,1.48373e-06,1.19783e-05,7.58211e-05,2.68731e-05,-6.44328e-05,-2.57141e-06
607,5.3333e-06,5.19612e-06,7.76848e-05,2.84067e-05,-3.5513e-05,-2.70542e-06
608,8.36063e-06,2.57562e-06,7.28551e-05,3.42848e-05,-8.14882e-06,-1.33973e-06
609,6.57752e-06,4.61602e-06,6.7377e-05,3.7636e-05,6.04374e-06,3.41202e-06
610,7.83721e-06,-9.45126e-07,6.26006e-05,3.28812e-05,9.49103e-06,1.03358e-05
611,1.53518e-05,-1.62665e-05,5.50084e-05,2.47386e-05,8.35973e-06,1.68929e-05
612,2.237e-05,-2.19438e-05,4.676e-05,2.33085e-05,3.42725e-06,2.04272e-05
613,2.08225e-05,-1.01436e-05,4.92855e-05,2.86975e-05,-6.28035e-06,2.47073e-05
614,1.43905e-05,2.30885e-06,6.04523e-05,3.42024e-05,-1.26142e-05,2.65037e-05
615,1.08053e-05,4.5076e-06,6.76457e-05,3.66027e-05,-8.02417e-06,2.29601e-05
616,1.00398e-05,-6.47015e-06,6.56646e-05,3.20613e-05,6.35776e-06,1.94007e-05
617,1.28087e-05,-2.57724e-05,5.43421e-05,2.13455e-05,2.48735e-05,2.51188e-05
618,1.7877e-05,-3.49184e-05,4.10055e-05,1.49257e-05,3.69924e-05,3.61527e-05
619,1.96893e-05,-2.41374e-05,3.85695e-05,1.96271e-05,3.44274e-05,4.01419e-05
620,1.69951e-05,-8.12531e-06,5.02746e-05,3.09065e-05,2.5161e-05,3.07023e-05
621,1.32266e-05,-3.19232e-06,6.48443e-05,3.89804e-05,2.30941e-05,8.8263e-06
622,1.11648e-05,-1.01095e-05,7.06194e-05,3.79428e-05,2.97256e-05,-1.61526e-05
623,1.23243e-05,-2.57919e-05,6.41118e-05,3.03415e-05,3.83308e-05,-3.27294e-05
624,1.63499e-05,-3.37792e-05,5.3538e-05,2.76141e-05,4.15989e-05,-3.63624e-05
625,1.85863e-05,-1.96928e-05,5.34134e-05,3.58849e-05,3.46416e-05,-3.1967e-05
626,1.44241e-05,1.99151e-06,6.54827e-05,4.9176e-05,2.51842e-05,-2.88676e-05
627,7.31684e-06,1.0097e-05,7.41662e-05,5.73913e-05,2.50921e-05,-2.97374e-05
628,4.88498e-06,6.49387e-07,7.19879e-05,5.31617e-05,3.14293e-05,-3.01229e-05
629,1.02454e-05,-2.49461e-05,6.26295e-05,3.91179e-05,3.45175e-05,-2.9262e-05
630,1.7577e-05,-4.19784e-05,5.12903e-05,3.14725e-05,3.21923e-05,-2.858e-05
631,1.70976e-05,-2.58831e-05,4.87564e-05,3.74229e-05,2.46469e-05,-2.66085e-05
632,1.07049e-05,-3.52322e-06,5.88505e-05,4.50415e-05,1.69502e-05,-2.27817e-05
633,8.69661e-06,-9.56218e-07,7.0257e-05,4.87078e-05,1.78802e-05,-1.90592e-05
634,1.03803e-05,-6.234e-06,7.28185e-05,5.13256e-05,2.54223e-05,-1.40814e-05
635,9.99075e-06,-7.76274e-06,7.08652e-05,5.18709e-05,3.35407e-05,-8.45951e-06
636,8.95337e-06,-3.8864e-06,7.30293e-05,5.07065e-05,3.78145e-05,-4.93433e-06
637,1.07165e-05,-8.92671e-06,7.51801e-05,4.33634e-05,3.50399e-05,-4.84476e-06
638,1.38678e-05,-3.03471e-05,6.88117e-05,3.1669e-05,2.92489e-05,-1.17315e-07
639,1.50168e-05,-4.27052e-05,5.85419e-05,2.61953e-05,2.45099e-05,8.09343e-06
640,1.19303e-05,-2.82133e-05,5.99732e-05,3.32392e-05,2.07017e-05,8.25397e-06
641,6.96503e-06,-6.66282e-06,7.19588e-05,4.27853e-05,2.04187e-05,3.94058e-07
642,5.57777e-06,3.62219e-06,7.83048e-05,4.44617e-05,2.33413e-05,-8.27653e-06
643,7.32872e-06,-3.34328e-06,7.3055e-05,3.61052e-05,2.41574e-05,-1.40663e-05
644,1.03953e-05,-1.92555e-05,6.03588e-05,2.6533e-05,2.22891e-05,-1.87115e-05
645,1.36829e-05,-2.55068e-05,4.9277e-05,2.74091e-05,1.91157e-05,-2.01593e-05
646,1.31757e-05,-1.42724e-05,5.00469e-05,3.78578e-05,1.36666e-05,-1.72351e-05
647,9.2089e-06,5.71732e-07,6.08611e-05,4.78724e-05,9.38836e-06,-1.49055e-05
648,6.44135e-06,6.1181e-06,6.98836e-05,5.25838e-05,1.02914e-05,-1.71883e-05
649,5.54761e-06,1.57043e-06,6.98853e-05,5.35716e-05,1.43682e-05,-2.07978e-05
650,6.34702e-06,-1.23938e-05,6.06611e-05,4.87159e-05,1.7878e-05,-2.11056e-05
651,8.67961e-06,-2.12707e-05,4.82999e-05,4.33517e-05,1.78109e-05,-1.83255e-05
652,9.4837e-06,-1.13162e-05,4.48764e-05,4.59306e-05,1.43834e-05,-1.60572e-05
653,8.7105e-06,5.47058e-06,5.46838e-05,5.40295e-05,1.54358e-05,-1.53921e-05
654,7.96692e-06,1.21264e-05,6.53918e-05,5.87084e-05,3.31059e-05,-1.73494e-05
655,6.9948e-06,5.34598e-06,6.71194e-05,5.75892e-05,6.45309e-05,-2.07223e-05
656,7.27889e-06,-1.86449e-05,6.07768e-05,5.03789e-05,8.67818e-05,-1.90562e-05
657,9.60837e-06,-3.73574e-05,5.10352e-05,4.6709e-05,8.48767e-05,-1.57102e-05
658,9.16867e-06,-2.40867e-05,4.71325e-05,5.20723e-05,6.55922e-05,-1.7145e-05
659,4.00986e-06,-3.00077e-06,5.40368e-05,5.46202e-05,4.40818e-05,-1.86621e-05
660,2.62198e-06,2.00974e-06,6.13982e-05,5.375e-05,2.93214e-05,-1.24736e-05
661,6.9049e-06,1.11649e-06,5.92209e-05,5.31356e-05,1.80029e-05,2.49579e-06
662,9.33786e-06,1.54772e-06,5.28418e-05,5.03215e-05,4.97083e-06,1.97703e-05
663,8.50539e-06,7.07211e-06,5.21463e-05,4.72763e-05,-1.32586e-05,3.08214e-05
664,8.62316e-06,4.47262e-06,5.34126e-05,3.81918e-05,-3.99687e-05,2.48768e-05
665,1.26472e-05,-1.08525e-05,5.03371e-05,2.62076e-05,-6.41806e-05,-3.59152e-06
666,1.7633e-05,-1.7738e-05,4.72555e-05,2.28417e-05,-7.11028e-05,-4.36703e-05
667,1.60461e-05,-4.37092e-06,5.13608e-05,3.02714e-05,-6.52294e-05,-7.05884e-05
668,8.23239e-06,1.14615e-05,5.83865e-05,3.61912e-05,-5.64532e-05,-7.19092e-05
669,4.32428e-06,1.47197e-05,6.16123e-05,3.48911e-05,-4.55116e-05,-6.09233e-05
670,8.69426e-06,4.44479e-06,5.94326e-05,2.97566e-05,-2.858e-05,-5.24761e-05
671,1.58827e-05,-1.30709e-05,5.05798e-05,2.41926e-05,-6.32346e-06,-4.70399e-05
672,1.95714e-05,-2.08147e-05,4.06685e-05,2.45709e-05,9.31495e-06,-4.30715e-05
673,1.70297e-05,-1.08997e-05,3.99214e-05,3.33888e-05,9.2501e-06,-4.23924e-05
674,1.17388e-05,4.03974e-06,4.67727e-05,4.13743e-05,2.2247e-06,-4.18392e-05
675,9.18967e-06,9.21946e-06,5.10351e-05,4.05466e-05,2.51153e-06,-3.89198e-05
676,9.99558e-06,2.91457e-06,4.88256e-05,3.36487e-05,1.00406e-05,-3.74421e-05
677,1.19582e-05,-1.05899e-05,3.99526e-05,2.35818e-05,1.7217e-05,-3.93099e-05
678,1.39061e-05,-1.5906e-05,2.88035e-05,1.79675e-05,2.06186e-05,-3.82677e-05
679,1.37186e-05,-5.05926e-06,2.64005e-05,2.22951e-05,1.84053e-05,-2.87066e-05
680,9.79052e-06,8.49154e-06,3.69261e-05,3.10435e-05,1.33084e-05,-1.8516e-05
681,6.3029e-06,1.09906e-05,5.0173e-05,3.55131e-05,1.34996e-05,-1.98049e-05
682,6.77176e-06,3.69873e-07,5.80541e-05,3.50021e-05,2.05998e-05,-2.79192e-05
683,9.93048e-06,-2.37955e-05,5.65641e-05,2.79757e-05,2.66756e-05,-3.46754e-05
684,1.3882e-05,-3.6732e-05,4.74428e-05,2.27774e-05,2.65585e-05,-3.65449e-05
685,1.40114e-05,-1.60853e-05,4.46728e-05,3.28075e-05,2.10046e-05,-3.17035e-05
686,8.34513e-06,5.39492e-06,5.42745e-05,4.65067e-05,1.56833e-05,-2.27376e-05
687,7.12235e-06,7.43133e-06,6.55191e-05,4.90229e-05,2.06197e-05,-1.23886e-05
688,1.44762e-05,6.49501e-06,6.67494e-05,4.65396e-05,3.00873e-05,-7.0061e-06
689,1.85887e-05,6.3246e-06,5.96891e-05,4.42064e-05,3.23445e-05,-8.82816e-06
690,1.53467e-05,5.00899e-06,5.68637e-05,4.16084e-05,3.14819e-05,-7.26138e-06
691,1.28405e-05,-6.05096e-06,5.77768e-05,3.50324e-05,3.24792e-05,2.10586e-06
692,1.41934e-05,-2.4622e-05,5.24748e-05,2.65801e-05,3.5618e-05,8.71523e-06
693,1.61094e-05,-2.89084e-05,4.3751e-05,2.44972e-05,3.84033e-05,9.89362e-06
694,1.39189e-05,-1.11009e-05,4.48591e-05,3.05507e-05,4.24661e-05,9.38972e-06
695,8.2495e-06,7.91674e-06,5.29478e-05,3.71627e-05,5.04733e-05,8.77148e-06
696,4.92055e-06,1.38513e-05,5.75437e-05,4.08656e-05,5.24031e-05,9.67961e-06
697,6.86807e-06,6.15732e-06,5.74012e-05,3.91628e-05,3.8777e-05,1.10375e-05
698,1.27927e-05,-8.34539e-06,5.22011e-05,3.2958e-05,1.89716e-05,1.21396e-05
699,1.85995e-05,-1.2977e-05,4.44008e-05,2.94994e-05,5.43722e-06,1.28947e-05
700,1.92465e-05,-3.65656e-07,4.37909e-05,3.27865e-05,-3.33128e-07,1.38876e-05
701,1.47408e-05,1.54733e-05,5.36092e-05,3.82917e-05,2.9022e-06,1.49609e-05
702,1.04611e-05,1.98775e-05,6.35646e-05,4.04145e-05,1.4379e-05,1.27697e-05
703,9.76666e-06,1.32594e-05,6.50329e-05,3.82038e-05,2.44401e-05,6.73802e-06
704,1.06786e-05,-2.86962e-07,5.67232e-05,3.07092e-05,2.77053e-05,1.64392e-06
705,9.89826e-06,-8.74649e-06,4.57358e-05,2.67868e-05,2.74381e-05,-2.40482e-07
706,7.31111e-06,-2.80949e-06,4.55651e-05,3.54421e-05,2.15141e-05,7.83406e-07
707,4.56577e-06,9.72739e-06,5.8723e-05,4.81206e-05,9.09715e-06,1.94273e-06
708,2.47212e-06,1.5741e-05,6.90208e-05,5.14822e-05,-1.36379e-06,-1.77039e-06
709,1.63076e-06,8.54921e-06,6.72922e-05,4.77403e-05,-7.42503e-06,-9.48504e-06
710,5.3448e-06,-1.48514e-05,5.56326e-05,4.07717e-05,-1.25939e-05,-1.59383e-05
711,1.48222e-05,-3.10609e-05,4.0487e-05,3.84586e-05,-1.65701e-05,-1.58463e-05
712,2.25643e-05,-1.62021e-05,3.61444e-05,4.64483e-05,-2.01863e-05,-1.0122e-05
713,2.23856e-05,5.17408e-07,4.62304e-05,5.15302e-05,-2.00493e-05,-3.8448e-06
714,1.85171e-05,-2.492e-07,5.69824e-05,4.99656e-05,-1.01214e-05,-3.1823e-06
715,1.64332e-05,-1.85847e-06,5.5463e-05,5.01056e-05,3.3776e-06,-9.09323e-06
716,1.55571e-05,-1.92765e-07,4.75272e-05,5.08312e-05,1.47639e-05,-1.19629e-05
717,1.24732e-05,2.11505e-06,4.74894e-05,5.17604e-05,2.9059e-05,-9.29833e-06
718,1.01253e-05,-7.07794e-06,4.90928e-05,4.80297e-05,4.43306e-05,-1.02921e-05
719,1.38986e-05,-2.58572e-05,4.02151e-05,3.78948e-05,5.28877e-05,-1.77007e-05
720,2.09332e-05,-3.09829e-05,2.6427e-05,3.22827e-05,5.00408e-05,-2.29554e-05
721,2.16889e-05,-1.54455e-05,2.42057e-05,3.66793e-05,3.8424e-05,-2.31859e-05
722,1.54096e-05,1.00003e-06,3.41196e-05,4.16711e-05,2.69329e-05,-2.01026e-05
723,9.96061e-06,5.82436e-06,4.30803e-05,4.23802e-05,1.99584e-05,-1.67772e-05
724,1.00554e-05,-3.69545e-06,4.01302e-05,3.8101e-05,1.52523e-05,-1.53581e-05
725,1.60606e-05,-2.10951e-05,2.58857e-05,2.85647e-05,1.07763e-05,-1.46218e-05
726,2.34176e-05,-2.74318e-05,1.46885e-05,2.28249e-05,4.81807e-06,-1.56684e-05
727,2.57626e-05,-1.48255e-05,1.84121e-05,2.93046e-05,-4.11954e-06,-1.74133e-05
728,2.23703e-05,1.84729e-06,3.13738e-05,3.94092e-05,-1.20541e-05,-1.48061e-05
729,1.80295e-05,6.20822e-06,4.10093e-05,4.08038e-05,-1.36238e-05,-1.05603e-05
730,1.57965e-05,-3.75579e-06,4.33634e-05,3.37108e-05,-1.01232e-05,-1.27639e-05
731,1.65463e-05,-2.35063e-05,3.61432e-05,2.21748e-05,-5.75266e-06,-2.09619e-05
732,1.95152e-05,-3.49494e-05,2.33521e-05,1.60711e-05,-3.26017e-06,-2.41962e-05
733,2.08891e-05,-2.55825e-05,1.93012e-05,2.34058e-05,-5.85766e-06,-1.38492e-05
734,1.81279e-05,-8.48352e-06,2.87719e-05,3.56511e-05,-9.52537e-06,1.68545e-06
735,1.44591e-05,-1.14784e-06,3.90485e-05,4.00759e-05,-4.77056e-06,1.02206e-05
736,1.30308e-05,-6.93064e-06,4.17116e-05,3.58331e-05,6.80304e-06,8.24009e-06
737,1.39058e-05,-2.77084e-05,3.52606e-05,2.84585e-05,1.50021e-05,2.96574e-06
738,1.54848e-05,-4.50584e-05,2.34622e-05,2.93422e-05,1.66177e-05,-2.37957e-06
739,1.37545e-05,-3.09141e-05,1.96811e-05,4.26093e-05,1.3861e-05,-9.92812e-06
740,7.15984e-06,-7.66581e-06,3.20855e-05,4.99147e-05,1.59705e-05,-2.04583e-05
741,5.19563e-07,-2.08586e-07,4.66572e-05,4.40889e-05,3.30759e-05,-3.04713e-05
742,-7.52222e-07,1.15574e-06,4.84916e-05,3.83203e-05,5.35382e-05,-3.38165e-05
743,4.9743e-06,-8.51815e-07,4.44411e-05,3.81402e-05,5.97695e-05,-2.95467e-05
744,1.11109e-05,-3.45959e-06,4.63652e-05,4.23862e-05,4.88779e-05,-2.01562e-05
745,1.2057e-05,-1.37157e-05,4.98273e-05,4.19956e-05,2.70177e-05,-1.31538e-05
746,1.14998e-05,-3.22147e-05,4.33878e-05,3.29489e-05,9.25122e-06,-1.50424e-05
747,1.22049e-05,-3.83316e-05,3.23933e-05,2.44498e-05,1.14167e-06,-2.07687e-05
748,1.15994e-05,-2.26863e-05,3.23057e-05,2.71852e-05,-2.00349e-06,-1.95245e-05
749,8.09029e-06,-5.14038e-06,4.12922e-05,3.66893e-05,-1.00127e-06,-1.22915e-05
750,2.99469e-06,-3.0901e-07,4.76481e-05,4.16055e-05,1.78732e-06,-2.11969e-06
751,-1.09288e-06,-1.04043e-05,4.46126e-05,3.51244e-05,4.69942e-06,6.32491e-06
752,5.84784e-07,-2.82669e-05,3.15415e-05,2.31805e-05,1.54723e-05,6.32191e-06
753,6.2614e-06,-3.59217e-05,1.90006e-05,2.06594e-05,3.69834e-05,5.05567e-07
754,8.45669e-06,-2.55256e-05,2.05433e-05,3.2605e-05,5.74849e-05,-4.91363e-07
755,5.44385e-06,-1.13073e-05,3.30682e-05,4.63959e-05,7.00177e-05,3.00524e-06
756,1.80373e-06,-8.33454e-06,4.15632e-05,5.01568e-05,7.77816e-05,2.46285e-06
757,1.16763e-06,-1.66234e-05,3.9202e-05,4.40321e-05,7.92451e-05,-8.41881e-07
758,4.17473e-06,-3.11616e-05,2.81375e-05,2.97592e-05,6.6357e-05,-1.52176e-06
759,8.47461e-06,-3.67146e-05,1.87985e-05,1.91535e-05,3.64817e-05,-2.83913e-07
760,9.10249e-06,-2.51356e-05,2.32002e-05,2.12611e-05,2.64914e-07,-1.11372e-06
761,4.80838e-06,-9.04971e-06,3.88719e-05,2.92525e-05,-2.5626e-05,-7.10776e-06
762,4.43766e-07,-1.7075e-07,5.0651e-05,3.33711e-05,-4.4233e-05,-1.86728e-05
763,1.6491e-07,-1.06742e-06,5.05526e-05,3.04999e-05,-7.4139e-05,-2.85878e-05
764,3.64661e-06,-2.04879e-05,3.92547e-05,2.28668e-05,-0.000109601,-3.04187e-05
765,6.37634e-06,-3.89728e-05,2.51766e-05,2.27239e-05,-0.000114814,-1.99351e-05
766,3.91756e-06,-2.38981e-05,2.3627e-05,3.48473e-05,-7.74645e-05,-2.61277e-06
767,-2.83604e-06,2.50214e-06,3.53693e-05,3.94846e-05,-2.79743e-05,1.68663e-07
768,-6.59074e-06,9.85145e-06,4.44957e-05,3.54909e-05,2.95884e-06,-1.01318e-05
769,-3.61814e-06,6.94465e-06,4.37924e-05,3.53015e-05,6.95454e-06,-1.20842e-05
770,1.67366e-08,4.24276e-06,4.03594e-05,3.93669e-05,-4.54068e-06,-6.74604e-06
771,1.68128e-06,6.74679e-06,4.20807e-05,4.53837e-05,-1.29667e-05,-2.59021e-06
772,4.73334e-06,9.88191e-07,4.44012e-05,4.37162e-05,-1.10885e-05,-3.8975e-06
773,1.1169e-05,-1.72766e-05,4.11113e-05,3.50777e-05,-7.14126e-07,-1.20183e-05
774,1.75938e-05,-2.50234e-05,3.64242e-05,3.01351e-05,1.34019e-05,-2.15337e-05
775,1.83752e-05,-1.01715e-05,4.00154e-05,3.46637e-05,3.25912e-05,-1.71878e-05
776,1.43769e-05,8.83962e-06,4.85327e-05,4.21268e-05,6.24506e-05,-1.79718e-06
777,9.12206e-06,1.5682e-05,5.15872e-05,4.71562e-05,9.26397e-05,7.30026e-06
778,5.4682e-06,6.81019e-06,4.80436e-05,4.3387e-05,0.000105644,4.74557e-06
779,7.38741e-06,-1.01115e-05,4.087e-05,3.0381e-05,9.80714e-05,-4.62916e-06
780,1.36165e-05,-1.7286e-05,3.57162e-05,2.03766e-05,7.50939e-05,-1.35333e-05
781,1.71557e-05,-7.72488e-06,3.9732e-05,2.28154e-05,3.87853e-05,-1.58992e-05
782,1.51495e-05,5.68297e-06,5.12052e-05,3.14189e-05,-1.39377e-06,-9.95062e-06
783,9.72367e-06,9.82293e-06,6.07747e-05,3.45242e-05,-2.82189e-05,-1.24e-06
784,5.85316e-06,3.67177e-06,6.22353e-05,2.81902e-05,-3.82087e-05,4.8867e-06
785,8.2825e-06,-1.14677e-05,5.36144e-05,1.81479e-05,-4.20547e-05,5.71648e-06
786,1.31562e-05,-2.04189e-05,4.23993e-05,1.88871e-05,-4.87938e-05,3.77711e-06
787,1.20532e-05,-1.04023e-05,4.2694e-05,3.31273e-05,-5.88426e-05,2.71217e-06
788,6.23579e-06,6.43033e-06,5.57214e-05,4.60982e-05,-6.14742e-05,6.06682e-06
789,4.22163e-06,1.22243e-05,6.69731e-05,4.67327e-05,-4.57608e-05,9.61269e-06
790,6.79539e-06,6.22699e-06,6.74354e-05,4.09097e-05,-1.88357e-05,4.32567e-06
791,1.05502e-05,-1.22962e-05,5.89266e-05,3.38218e-05,2.39728e-06,-5.96911e-06
792,1.51092e-05,-2.43562e-05,4.96456e-05,3.4901e-05,1.05922e-05,-1.0458e-05
793,1.64641e-05,-9.57507e-06,4.90096e-05,4.96544e-05,8.12679e-06,-8.46237e-06
794,1.21584e-05,8.68211e-06,5.71661e-05,5.94013e-05,4.27683e-06,-2.80122e-06
795,8.20811e-06,1.56651e-05,6.24688e-05,5.4956e-05,8.20044e-06,2.24752e-06
796,1.01079e-05,1.89915e-05,5.82751e-05,5.20854e-05,1.73079e-05,4.22909e-06
797,1.64214e-05,1.86702e-05,5.3482e-05,5.62397e-05,2.33975e-05,6.8995e-06
798,2.11161e-05,1.6473e-05,5.62292e-05,5.78912e-05,2.44782e-05,1.15999e-05
799,2.1105e-05,4.21004e-06,5.67316e-05,5.11656e-05,2.61613e-05,1.24809e-05
800,1.96742e-05,-1.78726e-05,4.51208e-05,4.23219e-05,3.04805e-05,9.22398e-06
801,1.90954e-05,-2.72349e-05,3.11973e-05,3.94699e-05,3.16952e-05,7.45671e-06
802,1.73301e-05,-1.3386e-05,3.14649e-05,4.41693e-05,2.8073e-05,1.09243e-05
803,1.50629e-05,3.76189e-06,4.41368e-05,4.87872e-05,2.60929e-05,1.62623e-05
804,1.46254e-05,1.00342e-05,5.57721e-05,5.14008e-05,3.05935e-05,1.90324e-05
805,1.59716e-05,2.74359e-06,5.75735e-05,5.14564e-05,3.52377e-05,1.47187e-05
806,1.9023e-05,-1.23749e-05,4.77488e-05,4.54584e-05,3.57018e-05,4.80793e-06
807,2.37528e-05,-1.75138e-05,3.63241e-05,3.67998e-05,3.35641e-05,-2.49832e-07
808,2.61259e-05,-3.99639e-06,3.80832e-05,3.38935e-05,2.84856e-05,3.06925e-06
809,2.35904e-05,1.26658e-05,5.18009e-05,3.77808e-05,2.19291e-05,7.26755e-06
810,1.97748e-05,1.54414e-05,6.33361e-05,4.22334e-05,1.81127e-05,6.84208e-06
811,1.90878e-05,5.17821e-06,6.4809e-05,4.22652e-05,1.83647e-05,4.34489e-06
812,2.21972e-05,-1.05182e-05,5.74626e-05,3.48727e-05,2.16103e-05,-8.08341e-08
813,2.58969e-05,-1.47222e-05,5.03361e-05,2.83988e-05,2.97615e-05,-4.81582e-06
814,2.60263e-05,8.40289e-07,5.49587e-05,3.15016e-05,4.80288e-05,-6.60461e-06
815,2.25143e-05,2.16103e-05,6.91767e-05,4.11358e-05,7.60058e-05,-2.57872e-06
816,1.95807e-05,2.87575e-05,7.89074e-05,4.53912e-05,0.000100474,6.63602e-06
817,2.07211e-05,1.60263e-05,7.93489e-05,3.98896e-05,0.000106559,1.54553e-05
818,2.64991e-05,-1.47543e-05,7.09107e-05,3.15631e-05,9.00469e-05,1.72291e-05
819,3.19476e-05,-3.55366e-05,5.89493e-05,3.0265e-05,5.99723e-05,1.40182e-05
820,2.91349e-05,-2.02919e-05,5.89178e-05,4.00657e-05,2.51476e-05,1.54905e-05
821,1.88166e-05,2.14727e-06,7.30709e-05,4.84535e-05,-6.8578e-06,2.38251e-05
822,1.00656e-05,8.00722e-06,8.31251e-05,4.65574e-05,-2.58869e-05,3.01877e-05
823,8.30215e-06,1.04273e-05,8.02671e-05,4.24699e-05,-3.39557e-05,2.84989e-05
824,1.14163e-05,1.26351e-05,7.3793e-05,4.25133e-05,-3.37865e-05,2.25316e-05
825,1.34391e-05,1.26873e-05,7.34337e-05,4.60097e-05,-2.19782e-05,2.20013e-05
826,1.41693e-05,-2.4312e-07,7.46268e-05,4.54192e-05,-3.01663e-06,2.55236e-05
827,1.72724e-05,-2.49107e-05,6.7326e-05,3.75699e-05,1.13428e-05,2.22218e-05
828,2.09771e-05,-3.27637e-05,5.66561e-05,3.31461e-05,7.36133e-06,6.95272e-06
829,1.82284e-05,-1.48182e-05,5.59007e-05,3.85678e-05,-1.36745e-05,-1.57078e-05
830,1.10632e-05,2.83248e-06,6.30174e-05,4.61641e-05,-3.33671e-05,-3.66086e-05
831,8.32927e-06,5.92963e-06,6.85243e-05,4.90865e-05,-3.99157e-05,-4.74052e-05
832,1.16656e-05,-3.0547e-06,6.73503e-05,4.53241e-05,-3.82484e-05,-4.77018e-05
833,1.66168e-05,-1.90107e-05,5.75006e-05,3.7999e-05,-3.71416e-05,-4.22194e-05
834,1.77022e-05,-2.58916e-05,4.52383e-05,3.3236e-05,-3.95328e-05,-3.24518e-05
835,1.32895e-05,-1.39096e-05,4.15293e-05,3.54307e-05,-4.22865e-05,-1.94103e-05
836,8.76542e-06,3.74842e-06,4.63071e-05,4.06255e-05,-3.8049e-05,-8.65952e-06
837,9.85372e-06,1.12432e-05,5.1688e-05,4.41076e-05,-2.26703e-05,-8.18524e-06
838,1.37758e-05,4.9514e-06,5.39573e-05,4.27478e-05,-7.72066e-07,-1.28381e-05
839,1.47736e-05,-1.25728e-05,4.9249e-05,3.43264e-05,1.83951e-05,-9.54965e-06
840,1.22997e-05,-2.53689e-05,3.86283e-05,2.78757e-05,2.60654e-05,6.63421e-07
841,9.09054e-06,-1.87113e-05,3.44354e-05,3.48548e-05,1.86257e-05,5.85483e-06
842,7.52035e-06,-3.8354e-06,4.22192e-05,4.71129e-05,8.39255e-06,2.87471e-06
843,8.51445e-06,3.26835e-06,5.0082e-05,4.86875e-05,1.16374e-05,-1.21504e-06
844,1.01422e-05,2.40759e-06,5.05625e-05,3.92086e-05,2.35234e-05,1.992e-06
845,1.12241e-05,-1.33281e-05,4.45959e-05,2.37468e-05,3.07753e-05,5.63547e-06
846,1.17245e-05,-3.03252e-05,3.49865e-05,1.50387e-05,3.36093e-05,-3.15219e-06
847,9.65917e-06,-2.15459e-05,3.30372e-05,2.33015e-05,3.2974e-05,-1.49741e-05
848,5.00087e-06,-3.91448e-06,4.35525e-05,3.5057e-05,2.7767e-05,-2.03612e-05
849,4.49755e-06,1.44351e-06,5.57094e-05,3.91975e-05,2.58036e-05,-2.1558e-05
850,1.07238e-05,-9.75414e-08,6.11309e-05,4.03727e-05,2.75571e-05,-1.68885e-05
851,1.48575e-05,-6.49449e-07,6.16951e-05,4.1317e-05,2.75131e-05,-1.07814e-05
852,1.09044e-05,2.2845e-06,6.34298e-05,4.05565e-05,2.75287e-05,-9.28635e-06
853,8.20178e-06,-4.2285e-06,6.39772e-05,3.44807e-05,2.72541e-05,-1.0617e-05
854,1.4119e-05,-2.27472e-05,5.68587e-05,2.34787e-05,2.28403e-05,-7.85638e-06
855,2.05101e-05,-3.10492e-05,4.80968e-05,1.59422e-05,1.33056e-05,-2.73099e-06
856,1.87266e-05,-1.9557e-05,5.2713e-05,1.93799e-05,4.62718e-06,-1.39037e-06
857,1.28298e-05,-8.32675e-06,6.77039e-05,2.90648e-05,5.83232e-06,-2.99918e-06
858,1.03308e-05,-7.76728e-06,7.81777e-05,3.51602e-05,1.7805e-05,-4.40273e-06
859,1.15699e-05,-1.47207e-05,7.80992e-05,3.00059e-05,2.9847e-05,-5.46788e-06
860,1.4558e-05,-2.41123e-05,6.96286e-05,1.8911e-05,3.34981e-05,-4.94526e-06
861,1.65941e-05,-2.50341e-05,6.09444e-05,1.5353e-05,2.80391e-05,-1.83343e-06
862,1.39038e-05,-1.21524e-05,6.17391e-05,2.3184e-05,2.0519e-05,1.91832e-06
863,7.42519e-06,1.42522e-06,7.04338e-05,3.16887e-05,2.13868e-05,3.85044e-06
864,2.42735e-06,2.20448e-06,7.66517e-05,3.51288e-05,2.99339e-05,4.10907e-06
865,1.34665e-06,-8.39284e-06,7.6923e-05,3.34877e-05,3.44677e-05,4.06361e-06
866,3.85774e-06,-2.44028e-05,7.11399e-05,2.63023e-05,3.02887e-05,5.16011e-08
867,7.30975e-06,-3.30211e-05,6.18875e-05,2.37549e-05,2.27872e-05,-8.58948e-06
868,7.96776e-06,-2.21923e-05,5.99538e-05,3.37239e-05,1.52171e-05,-1.39126e-05
869,5.91886e-06,-2.67134e-06,6.89843e-05,4.5861e-05,1.24723e-05,-1.14383e-05
870,4.08367e-06,6.33644e-06,7.77101e-05,4.77165e-05,2.11155e-05,-5.4587e-06
871,3.35016e-06,1.71322e-06,7.78983e-05,3.89079e-05,3.60077e-05,-1.73157e-06
872,4.805e-06,-1.70663e-05,6.92368e-05,2.61432e-05,4.58102e-05,-2.90305e-06
873,8.21662e-06,-3.11177e-05,5.79312e-05,2.27652e-05,4.98496e-05,-2.83151e-06
874,8.23446e-06,-1.85226e-05,5.54437e-05,3.45643e-05,4.86192e-05,1.71399e-06
875,2.02365e-06,-3.62614e-06,6.49702e-05,4.36158e-05,4.19869e-05,3.10611e-06
876,-2.72586e-06,-3.32292e-06,7.18839e-05,4.14156e-05,3.85581e-05,-2.18532e-06
877,-1.24216e-06,-3.99764e-06,6.68912e-05,3.91192e-05,3.64559e-05,-8.37661e-06
878,2.29261e-06,-2.43938e-06,6.01712e-05,3.76496e-05,2.73002e-05,-1.03149e-05
879,5.71747e-06,6.78569e-07,6.26746e-05,3.52059e-05,1.3396e-05,-9.77369e-06
880,6.83886e-06,-7.07703e-06,6.78821e-05,2.84937e-05,3.00783e-07,-1.15814e-05
881,5.20873e-06,-2.76674e-05,6.28555e-05,1.74394e-05,-6.04186e-06,-1.36872e-05
882,4.42289e-06,-3.71163e-05,5.48019e-05,1.36063e-05,-1.20439e-05,-1.64063e-05
883,5.74872e-06,-2.19443e-05,5.81832e-05,2.35214e-05,-2.33868e-05,-2.27149e-05
884,8.0169e-06,-2.07704e-06,6.73649e-05,3.33662e-05,-2.58104e-05,-3.3443e-05
885,1.00096e-05,4.15575e-06,7.36393e-05,3.6471e-05,-6.72706e-06,-4.07756e-05
886,1.17424e-05,-6.58543e-06,7.43475e-05,3.38122e-05,2.65622e-05,-4.01703e-05
887,1.54251e-05,-2.48066e-05,6.47095e-05,2.70894e-05,5.88775e-05,-3.51434e-05
888,1.96565e-05,-3.12708e-05,4.84615e-05,2.33939e-05,7.80406e-05,-3.17019e-05
889,2.01198e-05,-1.86421e-05,4.23051e-05,2.98353e-05,7.82785e-05,-3.34801e-05
890,1.73741e-05,-7.61138e-07,5.2322e-05,4.24508e-05,6.46301e-05,-3.6534e-05
891,1.50256e-05,6.74066e-06,6.56805e-05,4.90229e-05,4.62583e-05,-3.49152e-05
892,1.465e-05,1.33296e-06,6.92642e-05,4.36646e-05,2.74674e-05,-2.77523e-05
893,1.58035e-05,-1.36963e-05,5.92249e-05,3.17174e-05,9.62434e-06,-2.05542e-05
894,1.81415e-05,-2.25305e-05,4.38225e-05,3.01488e-05,-5.73145e-06,-1.70815e-05
895,1.94149e-05,-1.38705e-05,3.8277e-05,4.41184e-05,-2.07885e-05,-1.67227e-05
896,1.86677e-05,5.85387e-08,4.52179e-05,5.84499e-05,-3.37891e-05,-1.6812e-05
897,1.85589e-05,3.75309e-06,5.25644e-05,6.12209e-05,-3.44616e-05,-1.60098e-05
898,1.87341e-05,-3.32165e-06,5.45991e-05,5.45424e-05,-2.24799e-05,-8.76918e-06
899,1.87481e-05,-2.09794e-05,4.97965e-05,4.27773e-05,-9.80109e-06,6.43753e-07
900,2.03921e-05,-3.18212e-05,3.98384e-05,4.05145e-05,-1.32315e-06,3.31401e-06
901,1.86074e-05,-1.65892e-05,3.58789e-05,5.66889e-05,-1.86614e-07,-2.19315e-07
902,1.25122e-05,-1.72209e-06,4.25118e-05,6.7833e-05,-4.37217e-06,-6.02999e-06
903,1.25408e-05,-8.80191e-07,4.95022e-05,6.28206e-05,-2.08901e-06,-1.01967e-05
904,1.81886e-05,2.25242e-06,4.83808e-05,5.73496e-05,7.97705e-06,-1.05602e-05
905,1.86084e-05,7.93558e-06,4.59339e-05,5.72531e-05,1.78864e-05,-9.7068e-06
906,1.27118e-05,1.3945e-05,5.16929e-05,5.95626e-05,2.38559e-05,-9.40748e-06
907,9.62682e-06,7.57915e-06,5.63072e-05,5.17045e-05,2.37128e-05,-1.1988e-05
908,1.49829e-05,-1.15655e-05,4.95504e-05,3.8746e-05,1.89189e-05,-1.39103e-05
909,2.36715e-05,-2.18287e-05,4.06967e-05,3.63281e-05,1.36842e-05,-1.49488e-05
910,2.47119e-05,-1.12185e-05,4.53311e-05,4.2903e-05,1.0388e-05,-1.4746e-05
911,1.74017e-05,3.38831e-06,5.90842e-05,4.89554e-05,1.1912e-05,-1.41892e-05
912,1.11332e-05,6.0527e-06,6.91509e-05,5.18608e-05,1.8623e-05,-1.49644e-05
913,1.04693e-05,-8.40225e-06,6.9909e-05,4.87824e-05,2.5081e-05,-1.3927e-05
914,1.34341e-05,-3.09108e-05,6.1061e-05,3.92345e-05,2.64873e-05,-1.31409e-05
915,1.5021e-05,-4.0101e-05,5.09447e-05,3.44363e-05,2.23481e-05,-1.20013e-05
916,1.15259e-05,-2.81874e-05,4.99981e-05,3.88691e-05,1.53246e-05,-1.05734e-05
917,4.36384e-06,-1.09545e-05,5.81741e-05,4.42158e-05,1.11273e-05,-8.06438e-06
918,-7.64262e-07,-5.01253e-06,6.67275e-05,4.48767e-05,1.45658e-05,-5.1602e-06
919,4.76476e-07,-1.05986e-05,7.03808e-05,4.21849e-05,2.71629e-05,-1.7893e-06
920,7.16221e-06,-2.25406e-05,6.65715e-05,3.55344e-05,4.86035e-05,-1.33496e-06
921,1.42331e-05,-2.58534e-05,5.79147e-05,3.04899e-05,7.15441e-05,-6.53817e-06
922,1.72126e-05,-1.10842e-05,5.49531e-05,3.36228e-05,8.19945e-05,-1.2908e-05
923,1.54818e-05,7.959e-06,6.09175e-05,3.97959e-05,7.6968e-05,-1.29935e-05
924,1.25696e-05,1.25986e-05,6.35187e-05,4.12529e-05,6.53862e-05,-1.01243e-05
925,1.16756e-05,2.12879e-06,5.96654e-05,3.87014e-05,5.14416e-05,-1.26133e-05
926,1.23173e-05,-2.04668e-05,5.25152e-05,3.04635e-05,3.70423e-05,-1.69243e-05
927,1.36272e-05,-3.46053e-05,4.17625e-05,2.01419e-05,3.42199e-05,-1.98747e-05
928,1.35083e-05,-2.14878e-05,3.90836e-05,2.30333e-05,4.55421e-05,-2.29132e-05
929,1.25728e-05,-6.05616e-06,5.22163e-05,3.06304e-05,5.32745e-05,-1.88508e-05
930,1.42613e-05,-4.68623e-06,6.6132e-05,3.03016e-05,4.08067e-05,-9.27113e-06
931,1.70599e-05,-9.04382e-07,6.68562e-05,3.14349e-05,1.05213e-05,-4.48049e-06
932,1.78136e-05,2.34148e-06,6.00992e-05,3.41976e-05,-7.26091e-06,-2.07782e-06
933,1.4809e-05,6.93481e-08,5.63761e-05,3.43003e-05,7.24765e-06,8.40586e-06
934,8.92971e-06,-8.53228e-06,5.39098e-05,2.60392e-05,3.18361e-05,2.41108e-05
935,4.75433e-06,-2.17066e-05,4.59034e-05,1.43666e-05,4.59459e-05,3.28851e-05
936,3.94149e-06,-2.49792e-05,3.53626e-05,1.28132e-05,4.89646e-05,3.54341e-05
937,2.01402e-06,-1.01451e-05,3.57565e-05,2.56274e-05,4.11636e-05,3.65178e-05
938,-6.49395e-07,6.04688e-06,4.68525e-05,3.85102e-05,2.52223e-05,3.49406e-05
939,-1.34467e-06,9.91867e-06,5.71722e-05,4.08903e-05,2.83098e-06,1.8586e-05
940,-1.54769e-06,-1.29819e-06,6.00434e-05,3.45561e-05,-2.75489e-05,-1.14183e-05
941,-1.50354e-06,-2.05272e-05,5.29247e-05,2.35072e-05,-6.22274e-05,-4.27896e-05
942,-7.56186e-07,-2.73935e-05,4.24607e-05,1.80504e-05,-9.6157e-05,-7.19437e-05
943,-1.00671e-06,-1.30481e-05,4.1069e-05,2.40465e-05,-0.00012887,-0.000106827
944,-2.54741e-06,6.06237e-06,5.05352e-05,3.45669e-05,-0.00015123,-0.000150579
945,-3.14055e-06,1.14928e-05,5.91352e-05,3.95185e-05,-0.000145822,-0.000187521
946,-1.62151e-06,1.70659e-06,5.77416e-05,3.72134e-05,-0.000115207,-0.000193494
947,1.55244e-06,-1.67517e-05,4.69609e-05,3.00463e-05,-8.3887e-05,-0.000166251
948,4.12542e-06,-2.41639e-05,3.66151e-05,3.06994e-05,-6.61551e-05,-0.000130398
949,4.38515e-06,-9.99647e-06,3.77642e-05,4.50149e-05,-5.46509e-05,-0.000104477
950,2.48463e-06,9.18024e-06,4.88021e-05,5.83236e-05,-3.84357e-05,-9.09783e-05
951,1.14973e-06,1.40775e-05,5.7549e-05,5.98573e-05,-1.72248e-05,-8.96122e-05
952,4.57877e-06,4.28014e-06,5.88109e-05,5.67409e-05,1.40855e-06,-9.15666e-05
953,1.25714e-05,-1.65799e-05,5.14458e-05,5.28056e-05,1.57839e-05,-8.53821e-05
954,2.08448e-05,-2.64333e-05,3.85717e-05,4.99728e-05,2.80507e-05,-7.46752e-05
955,2.51599e-05,-8.08978e-06,3.47126e-05,5.13004e-05,3.46905e-05,-6.24955e-05
956,2.17254e-05,1.04188e-05,4.55604e-05,5.08725e-05,3.75281e-05,-5.00035e-05
957,1.56003e-05,1.18415e-05,5.77189e-05,4.71877e-05,4.47475e-05,-4.21774e-05
958,1.51752e-05,9.29344e-06,5.92752e-05,4.59321e-05,5.21665e-05,-4.00751e-05
959,1.89074e-05,6.67559e-06,5.56522e-05,4.57969e-05,5.15164e-05,-3.87839e-05
960,2.10102e-05,4.96839e-06,5.82029e-05,4.3888e-05,5.01711e-05,-3.71262e-05
961,2.14202e-05,-3.3075e-06,6.14548e-05,3.65623e-05,5.36702e-05,-3.35298e-05
962,2.41979e-05,-1.77779e-05,5.38088e-05,2.68339e-05,5.18e-05,-3.22957e-05
963,2.78358e-05,-1.88879e-05,4.18225e-05,2.54897e-05,3.9147e-05,-3.02221e-05
964,2.6611e-05,-1.64101e-06,4.4315e-05,3.45852e-05,2.06409e-05,-2.32745e-05
965,2.14866e-05,1.27805e-05,5.77771e-05,4.1981e-05,2.95726e-06,-1.42148e-05
966,1.76975e-05,1.34142e-05,6.29343e-05,4.17265e-05,-5.80115e-06,-7.81478e-06
967,1.84212e-05,9.1959e-08,5.30514e-05,3.41311e-05,-2.35238e-06,-7.35682e-06
968,2.39252e-05,-1.82417e-05,3.43902e-05,2.37157e-05,8.63791e-06,-8.75002e-06
969,2.96222e-05,-2.37198e-05,1.96606e-05,2.23965e-05,1.59806e-05,-9.29242e-06
970,3.03838e-05,-1.27104e-05,2.02868e-05,3.29869e-05,1.34087e-05,-1.02429e-05
971,2.63817e-05,2.28268e-07,3.3501e-05,4.41092e-05,9.84353e-06,-1.15566e-05
972,2.05172e-05,4.2562e-06,4.62445e-05,4.49857e-05,1.51348e-05,-8.34249e-06
973,1.47838e-05,-1.53445e-06,5.12446e-05,3.67928e-05,2.31819e-05,-2.07091e-06
974,1.20982e-05,-1.67277e-05,4.60202e-05,2.51681e-05,2.37468e-05,3.29538e-06
975,1.39815e-05,-2.58397e-05,3.5747e-05,2.07585e-05,1.54568e-05,1.0443e-05
976,1.68463e-05,-1.59101e-05,3.47904e-05,2.79874e-05,2.91688e-06,2.15083e-05
977,1.57518e-05,1.65674e-06,4.62386e-05,3.78434e-05,-3.35502e-06,3.00105e-05
978,1.01425e-05,8.77137e-06,5.61479e-05,4.17156e-05,2.58347e-06,3.3396e-05
979,3.86289e-06,1.30136e-06,5.71123e-05,4.02315e-05,1.28325e-05,3.46053e-05
980,2.98897e-06,-2.16811e-05,4.9911e-05,3.44636e-05,2.23462e-05,3.62133e-05
981,6.62138e-06,-3.77189e-05,3.75466e-05,2.96008e-05,3.33712e-05,3.3962e-05
982,5.93481e-06,-2.4357e-05,3.16472e-05,3.30991e-05,3.88792e-05,3.23321e-05
983,8.1183e-07,-7.12862e-06,4.06573e-05,3.81136e-05,3.28589e-05,3.90649e-05
984,-2.34599e-06,-5.55226e-06,5.32032e-05,4.0147e-05,2.34869e-05,4.99765e-05
985,-2.54931e-06,-7.4304e-06,5.39561e-05,4.65392e-05,1.8037e-05,5.24645e-05
986,-1.55847e-06,-3.80542e-06,4.60337e-05,5.36498e-05,1.47775e-05,4.53657e-05
987,-1.78243e-06,5.94539e-06,4.23902e-05,5.77993e-05,1.05432e-05,4.03785e-05
988,-1.75803e-06,6.1311e-06,4.29882e-05,5.47256e-05,3.81398e-06,4.17585e-05
989,1.36544e-06,-8.08575e-06,4.1152e-05,4.33466e-05,-2.23968e-06,4.12448e-05
990,3.83243e-06,-1.41827e-05,3.72049e-05,3.72777e-05,-1.86054e-06,3.53403e-05
991,2.0719e-06,1.73985e-06,3.98229e-05,4.31084e-05,5.01004e-06,3.58549e-05
992,-2.9835e-07,2.0839e-05,4.8795e-05,5.16834e-05,1.48739e-05,4.00402e-05
993,6.15389e-07,2.69723e-05,5.67843e-05,5.37309e-05,2.60244e-05,3.91395e-05
994,3.52886e-06,1.66873e-05,5.80882e-05,4.50336e-05,3.57272e-05,3.52746e-05
995,7.02879e-06,-2.66257e-06,4.87287e-05,3.06541e-05,4.22659e-05,3.55231e-05
996,1.05234e-05,-1.02607e-05,3.67989e-05,2.32005e-05,4.25569e-05,4.02325e-05
997,1.23039e-05,2.02156e-06,3.60962e-05,2.88279e-05,3.31424e-05,4.45027e-05
998,1.24183e-05,1.63274e-05,4.61898e-05,3.85728e-05,2.02298e-05,4.44491e-05
999,1.23224e-05,1.7648e-05,5.41593e-05,4.16833e-05,1.6706e-05,3.93196e-05
1000,1.29037e-05,6.81308e-06,5.31695e-05,3.63392e-05,2.63681e-05,3.36696e-05
1001,1.45574e-05,-1.14983e-05,4.24539e-05,2.5068e-05,4.17439e-05,3.19419e-05
1002,1.59587e-05,-2.12882e-05,2.92288e-05,1.96332e-05,5.22805e-05,3.45774e-05
1003,1.36464e-05,-1.15393e-05,2.71486e-05,2.41676e-05,4.80217e-05,3.92283e-05
1004,8.46293e-06,3.92243e-06,3.66609e-05,2.82631e-05,3.00953e-05,3.90718e-05
1005,6.30287e-06,8.9013e-06,4.35998e-05,2.99723e-05,1.13641e-05,3.29504e-05
1006,8.57972e-06,2.75683e-06,4.37148e-05,3.18087e-05,5.12633e-07,2.77372e-05
1007,1.14036e-05,-1.99437e-05,4.00938e-05,2.40562e-05,-4.43072e-06,2.46011e-05
1008,1.16786e-05,-4.02653e-05,3.45751e-05,1.39319e-05,-7.45252e-06,1.90416e-05
1009,9.72011e-06,-2.95932e-05,3.51291e-05,2.09712e-05,-8.42834e-06,1.56e-05
1010,8.01683e-06,-8.84473e-06,4.38998e-05,3.3128e-05,-1.73325e-06,1.94362e-05
1011,9.72476e-06,-6.13295e-07,4.91876e-05,3.54477e-05,1.44462e-05,2.19463e-05
1012,1.40302e-05,1.66905e-06,4.74322e-05,3.64596e-05,2.58902e-05,1.68608e-05
1013,1.7306e-05,1.8136e-08,4.39547e-05,4.02378e-05,2.15435e-05,5.57751e-06
1014,1.98757e-05,-3.71443e-06,4.31636e-05,4.46919e-05,1.10263e-05,-5.12947e-07
1015,2.29361e-05,-1.47652e-05,4.17563e-05,4.29091e-05,6.28555e-06,2.22702e-06
1016,2.5984e-05,-3.21516e-05,3.47937e-05,3.2238e-05,1.25745e-05,8.44337e-06
1017,2.86861e-05,-3.52852e-05,2.97375e-05,2.72387e-05,2.85222e-05,1.2758e-05
1018,2.77721e-05,-1.79832e-05,3.61673e-05,3.64387e-05,4.27576e-05,1.3346e-05
1019,2.1513e-05,-1.73752e-06,4.74821e-05,4.62783e-05,5.14706e-05,1.45312e-05
1020,1.42859e-05,2.34575e-06,5.38537e-05,4.67831e-05,6.36354e-05,1.92494e-05
1021,1.25966e-05,-5.86469e-06,5.40197e-05,3.72783e-05,8.06605e-05,2.27272e-05
1022,1.97848e-05,-2.02212e-05,4.76173e-05,2.32397e-05,9.52327e-05,2.23516e-05
1023,2.89865e-05,-2.42563e-05,3.92366e-05,1.55138e-05,9.5591e-05,2.14251e-05
1024,2.93966e-05,-1.00906e-05,3.72058e-05,1.89672e-05,7.3091e-05,2.03225e-05
1025,2.13527e-05,8.61844e-06,4.28365e-05,2.56482e-05,3.56809e-05,1.7729e-05
1026,1.38932e-05,1.58701e-05,4.98407e-05,2.568e-05,2.57487e-07,1.30944e-05
1027,1.25955e-05,6.65244e-06,5.26773e-05,2.04047e-05,-2.4792e-05,8.13699e-06
1028,1.61246e-05,-1.5972e-05,4.73361e-05,1.62686e-05,-4.19508e-05,4.3717e-06
1029,1.94818e-05,-3.13413e-05,3.62996e-05,2.03227e-05,-5.70967e-05,2.76451e-06
1030,1.70113e-05,-2.45342e-05,3.1664e-05,3.1744e-05,-6.89161e-05,1.79312e-06
1031,9.30752e-06,-8.64297e-06,3.8915e-05,3.93575e-05,-6.43147e-05,-6.34441e-07
1032,3.99382e-06,-3.8633e-06,4.72277e-05,4.02203e-05,-3.83641e-05,-4.77695e-06
1033,4.41637e-06,-1.2995e-05,4.87709e-05,3.93896e-05,-8.08379e-06,-7.29413e-06
1034,8.10497e-06,-3.43148e-05,4.29041e-05,3.47207e-05,9.17642e-06,-9.26154e-06
1035,1.18824e-05,-4.74153e-05,3.36804e-05,3.06081e-05,1.40437e-05,-1.39949e-05
1036,1.33573e-05,-2.95635e-05,3.37389e-05,3.44932e-05,1.52642e-05,-2.27252e-05
1037,9.81125e-06,-7.5762e-06,4.58006e-05,3.83427e-05,2.42817e-05,-2.5743e-05
1038,3.15983e-06,-4.14354e-06,5.5588e-05,3.75636e-05,4.98434e-05,-2.02517e-05
1039,9.4171e-07,-7.3056e-06,5.58397e-05,3.87575e-05,8.30644e-05,-1.6919e-05
1040,7.3997e-06,-7.82638e-06,5.4342e-05,4.30717e-05,0.000106331,-2.13523e-05
1041,1.60667e-05,-3.35882e-06,5.65449e-05,4.79014e-05,0.000114596,-2.70553e-05
1042,1.88994e-05,-7.94894e-06,5.79198e-05,4.62197e-05,0.000115992,-2.80483e-05
1043,2.00487e-05,-2.6346e-05,5.45534e-05,3.93676e-05,0.000113497,-2.97671e-05
1044,2.27496e-05,-3.59665e-05,4.95841e-05,3.75859e-05,9.19818e-05,-3.02499e-05
1045,2.27623e-05,-2.33258e-05,5.16161e-05,4.14018e-05,4.13822e-05,-2.64241e-05
1046,1.87604e-05,-4.78256e-06,5.76454e-05,4.21638e-05,-1.43624e-05,-2.28164e-05
1047,1.42388e-05,6.74894e-06,6.08191e-05,4.08458e-05,-4.86733e-05,-2.24279e-05
1048,1.25603e-05,3.93685e-06,6.07313e-05,3.82784e-05,-6.95071e-05,-2.38456e-05
1049,1.43214e-05,-1.05876e-05,5.68136e-05,3.16606e-05,-9.01501e-05,-2.53378e-05
1050,1.65706e-05,-1.7598e-05,5.17775e-05,2.84072e-05,-0.000104565,-2.30756e-05
1051,1.46534e-05,-4.02284e-06,5.13585e-05,3.51779e-05,-0.000101214,-1.6061e-05
1052,9.04844e-06,1.4808e-05,5.55417e-05,4.32552e-05,-8.08816e-05,-1.12482e-05
1053,4.15754e-06,1.83914e-05,5.87258e-05,4.48449e-05,-5.42849e-05,-1.38533e-05
1054,3.79335e-06,4.99554e-06,5.75327e-05,4.07591e-05,-2.83893e-05,-1.64574e-05
1055,7.70023e-06,-1.69138e-05,5.04429e-05,3.1896e-05,1.21714e-06,-9.37744e-06
1056,1.10485e-05,-2.69264e-05,4.2036e-05,2.51696e-05,3.63272e-05,2.0452e-06
1057,1.06845e-05,-1.41321e-05,4.27195e-05,2.88349e-05,6.40859e-05,5.94915e-06
1058,8.44275e-06,5.44589e-06,5.23656e-05,3.81433e-05,7.54892e-05,-2.69653e-07
1059,6.55156e-06,1.48345e-05,5.73115e-05,4.26608e-05,7.51796e-05,-1.22163e-05
1060,5.36034e-06,1.01518e-05,5.40773e-05,4.1982e-05,6.6503e-05,-2.12998e-05
1061,4.76291e-06,-9.69573e-06,4.49289e-05,3.45808e-05,4.73089e-05,-1.81544e-05
1062,5.44591e-06,-2.36915e-05,3.30349e-05,2.88829e-05,1.87599e-05,-8.39469e-06
1063,7.40723e-06,-1.11125e-05,3.26778e-05,3.61819e-05,-1.36965e-05,-6.28796e-06
1064,9.11171e-06,4.47943e-06,4.85335e-05,4.6281e-05,-3.77993e-05,-1.23097e-05
1065,1.19074e-05,6.07656e-06,6.31614e-05,4.93131e-05,-4.41963e-05,-1.56453e-05
1066,1.7022e-05,5.35977e-06,6.52458e-05,4.81623e-05,-4.22497e-05,-1.59983e-05
1067,2.11404e-05,4.33011e-06,6.41954e-05,4.56435e-05,-4.37145e-05,-2.10194e-05
1068,2.06263e-05,6.32438e-06,6.70824e-05,4.63643e-05,-4.31502e-05,-2.86025e-05
1069,1.6387e-05,2.44919e-07,6.77817e-05,4.86111e-05,-2.98987e-05,-3.52887e-05
1070,1.42805e-05,-1.64865e-05,6.12478e-05,4.82495e-05,-4.86248e-06,-3.76687e-05
1071,1.59851e-05,-2.19273e-05,5.15848e-05,4.97489e-05,1.38902e-05,-3.51111e-05
1072,1.50252e-05,-5.38686e-06,5.25163e-05,5.52633e-05,1.40093e-05,-3.20921e-05
1073,9.45065e-06,1.3901e-05,6.34765e-05,5.89083e-05,8.64143e-06,-3.01589e-05
1074,5.04751e-06,1.99425e-05,7.19799e-05,5.93357e-05,1.38245e-05,-2.71761e-05
1075,5.39701e-06,9.32834e-06,7.14502e-05,5.50047e-05,2.61543e-05,-2.18205e-05
1076,9.77052e-06,-9.60353e-06,6.15618e-05,4.47261e-05,3.57932e-05,-1.70596e-05
1077,1.31947e-05,-1.7575e-05,5.03723e-05,3.67229e-05,3.55327e-05,-1.45764e-05
1078,1.04681e-05,-8.9007e-06,4.89162e-05,3.85823e-05,2.48623e-05,-1.23392e-05
1079,4.06993e-06,2.28375e-06,5.61917e-05,4.48011e-05,1.48711e-05,-9.20595e-06
1080,9.62282e-08,3.64554e-06,6.25439e-05,4.5787e-05,1.52134e-05,-9.68185e-06
1081,1.97453e-06,-5.88754e-06,6.43481e-05,4.06933e-05,2.09922e-05,-1.36715e-05
1082,8.03135e-06,-2.26436e-05,5.97215e-05,3.18589e-05,2.28147e-05,-1.50089e-05
1083,1.36284e-05,-2.92525e-05,5.15481e-05,2.73454e-05,1.9049e-05,-1.42706e-05
1084,1.49269e-05,-1.62302e-05,5.0554e-05,3.33791e-05,1.40921e-05,-1.84925e-05
1085,1.20393e-05,9.27801e-07,6.03726e-05,4.21846e-05,1.73139e-05,-2.42632e-05
1086,8.24959e-06,4.89116e-06,7.08124e-05,4.25915e-05,3.58553e-05,-2.28491e-05
1087,6.84187e-06,-4.65756e-06,7.32409e-05,3.56273e-05,6.07443e-05,-1.9109e-05
1088,1.01903e-05,-2.86794e-05,6.47019e-05,2.54561e-05,7.46659e-05,-1.69395e-05
1089,1.64403e-05,-4.55246e-05,5.02895e-05,2.16566e-05,7.36478e-05,-1.09976e-05
1090,1.86769e-05,-2.84079e-05,4.41002e-05,3.4423e-05,5.99496e-05,2.34654e-06
1091,1.46838e-05,-4.96879e-06,5.35333e-05,4.72443e-05,3.9214e-05,1.98472e-05
1092,9.56365e-06,3.25509e-08,6.53426e-05,4.67459e-05,2.24418e-05,3.62625e-05
1093,6.72111e-06,-6.40557e-07,6.54801e-05,3.97806e-05,1.19321e-05,4.38575e-05
1094,5.91947e-06,-2.20159e-06,6.15004e-05,3.55375e-05,4.85583e-06,3.58334e-05
1095,5.41675e-06,-2.00559e-06,6.23724e-05,3.69121e-05,2.34797e-06,2.16957e-05
1096,6.7704e-06,-7.17612e-06,5.99186e-05,3.34884e-05,2.89988e-06,1.77504e-05
1097,1.09643e-05,-1.95578e-05,4.9164e-05,2.36315e-05,5.7666e-06,2.26427e-05
1098,1.33073e-05,-2.29182e-05,3.82723e-05,2.24439e-05,7.43927e-06,2.19641e-05
1099,1.03415e-05,-9.44859e-06,3.99694e-05,3.62107e-05,3.037e-07,8.59091e-06
1100,5.41904e-06,4.94542e-06,5.22906e-05,4.94575e-05,-9.04383e-06,-1.65123e-05
1101,3.28738e-06,7.66883e-06,6.17274e-05,5.03379e-05,-6.56877e-06,-4.14856e-05
1102,5.04047e-06,-3.86665e-06,6.03157e-05,3.80042e-05,7.91213e-06,-5.27839e-05
1103,1.1166e-05,-2.35826e-05,4.79928e-05,2.3719e-05,2.50733e-05,-4.70114e-05
1104,1.80369e-05,-3.49899e-05,3.42321e-05,2.06694e-05,3.55891e-05,-3.31133e-05
1105,1.81685e-05,-2.81152e-05,3.21087e-05,2.91189e-05,3.62448e-05,-2.44936e-05
1106,1.25149e-05,-1.20153e-05,4.11488e-05,3.69004e-05,3.57367e-05,-2.94868e-05
1107,8.84657e-06,-3.39885e-06,4.87994e-05,3.65937e-05,4.33295e-05,-4.09082e-05
1108,9.08457e-06,-1.01654e-05,4.92087e-05,3.08945e-05,5.45519e-05,-4.28041e-05
1109,1.04802e-05,-2.88474e-05,4.39389e-05,2.44602e-05,5.74937e-05,-3.25546e-05
1110,1.27674e-05,-3.7011e-05,3.77102e-05,2.59603e-05,4.68877e-05,-2.01624e-05
1111,1.44586e-05,-2.00609e-05,3.77221e-05,3.82225e-05,2.64614e-05,-1.37182e-05
1112,1.32189e-05,3.46915e-06,4.69762e-05,4.83863e-05,6.05867e-06,-1.27035e-05
1113,1.07797e-05,1.03815e-05,5.85647e-05,4.80091e-05,-6.64539e-06,-1.47691e-05
1114,8.44841e-06,-1.07915e-06,6.49898e-05,4.2383e-05,-1.39471e-05,-1.58179e-05
1115,8.12057e-06,-3.03304e-05,6.20382e-05,3.24737e-05,-1.96701e-05,-1.23874e-05
1116,1.18533e-05,-5.10727e-05,5.31963e-05,2.61635e-05,-2.05122e-05,-5.83623e-06
1117,1.39789e-05,-3.4415e-05,5.01676e-05,3.06532e-05,-1.7992e-05,-9.44532e-07
1118,9.79352e-06,-9.01277e-06,5.68002e-05,3.50308e-05,-1.24412e-05,3.97594e-06
1119,6.01129e-06,-2.51371e-06,6.14626e-05,3.17642e-05,5.81564e-06,8.3955e-06
1120,6.68645e-06,-2.48058e-06,5.78934e-05,3.30279e-05,2.73275e-05,7.73262e-06
1121,7.99281e-06,-2.38035e-06,5.56751e-05,4.16056e-05,3.34393e-05,3.58075e-06
1122,6.8974e-06,-3.59988e-07,5.99932e-05,4.63806e-05,2.91685e-05,-3.09502e-06
1123,5.47567e-06,-4.35339e-06,6.08577e-05,3.96013e-05,2.67092e-05,-1.38748e-05
1124,9.06009e-06,-1.92888e-05,5.18054e-05,2.71095e-05,2.87361e-05,-2.49546e-05
1125,1.55544e-05,-2.49817e-05,4.2948e-05,2.1899e-05,2.6216e-05,-3.05116e-05
1126,1.81997e-05,-9.14716e-06,4.66439e-05,2.74368e-05,1.14278e-05,-2.74147e-05
1127,1.59362e-05,8.83851e-06,5.81173e-05,3.54851e-05,-2.74487e-06,-1.91442e-05
1128,1.30568e-05,1.4869e-05,6.65956e-05,3.99947e-05,-1.84588e-06,-1.18315e-05
1129,1.30683e-05,5.46045e-06,6.56756e-05,3.66168e-05,4.9736e-06,-7.8078e-06
1130,1.67322e-05,-1.31235e-05,5.34468e-05,2.67766e-05,2.47914e-06,-7.02073e-06
1131,2.00745e-05,-2.12246e-05,3.85712e-05,2.34675e-05,-8.22293e-06,-6.1568e-06
1132,1.7389e-05,-9.67902e-06,3.63713e-05,3.27246e-05,-1.45245e-05,-2.91503e-06
1133,9.87751e-06,6.30918e-06,4.90378e-05,4.39698e-05,-9.57867e-06,-5.90102e-07
1134,3.8925e-06,1.05712e-05,6.37616e-05,4.67485e-05,1.16783e-06,-1.15994e-06
1135,3.74464e-06,3.39803e-06,6.99449e-05,4.3945e-05,8.58574e-06,-3.59359e-07
1136,9.20498e-06,-1.20888e-05,6.36632e-05,3.95652e-05,8.97359e-06,2.49189e-06
1137,1.54663e-05,-2.10288e-05,5.13319e-05,3.95231e-05,3.03871e-06,2.81872e-06
1138,1.58178e-05,-8.65019e-06,4.84684e-05,4.84908e-05,-6.09452e-06,6.2357e-07
1139,1.14584e-05,1.34985e-05,5.87941e-05,5.68874e-05,-1.02256e-05,-1.66573e-06
1140,9.73936e-06,2.22851e-05,6.71554e-05,5.62539e-05,-8.0327e-06,-4.98462e-06
1141,1.22826e-05,1.31176e-05,6.45098e-05,5.04593e-05,-1.05082e-05,-6.97833e-06
1142,1.53591e-05,-1.31264e-05,5.31458e-05,3.93237e-05,-1.92403e-05,-8.47977e-06
1143,1.75564e-05,-3.11797e-05,4.04953e-05,3.1824e-05,-1.97301e-05,-1.33686e-05
1144,1.76932e-05,-1.58964e-05,3.88034e-05,3.90638e-05,-9.54929e-06,-1.84819e-05
1145,1.42396e-05,2.16593e-06,5.2104e-05,4.92528e-05,-2.21877e-06,-1.50746e-05
1146,1.08948e-05,2.2176e-06,6.79839e-05,5.11363e-05,-1.35394e-06,-8.52984e-06
1147,1.18315e-05,1.41405e-06,7.25039e-05,4.91221e-05,-1.99067e-06,-1.15463e-05
1148,1.403e-05,4.95553e-06,6.74021e-05,4.83988e-05,-1.42927e-06,-1.82599e-05
1149,1.32173e-05,6.62861e-06,6.6116e-05,4.66103e-05,1.82559e-06,-2.12513e-05
1150,1.24527e-05,-3.66224e-06,6.96457e-05,3.62774e-05,6.13191e-06,-2.4308e-05
1151,1.66554e-05,-2.31001e-05,6.67496e-05,2.27011e-05,1.06063e-05,-2.81072e-05
1152,2.22632e-05,-3.00526e-05,5.74311e-05,2.30351e-05,1.19514e-05,-2.6424e-05
1153,2.19018e-05,-1.51015e-05,5.49512e-05,3.80287e-05,6.00773e-06,-2.01541e-05
1154,1.83467e-05,3.03514e-06,6.1098e-05,5.06723e-05,2.09849e-06,-1.73664e-05
1155,1.6263e-05,1.03731e-05,6.76472e-05,5.38559e-05,8.61432e-06,-1.89449e-05
1156,1.4481e-05,1.75259e-06,6.79057e-05,4.90599e-05,1.80991e-05,-1.73467e-05
1157,1.36074e-05,-1.57997e-05,6.04862e-05,3.96809e-05,2.16395e-05,-9.98721e-06
1158,1.41993e-05,-2.27745e-05,5.35368e-05,3.51946e-05,2.23693e-05,-1.74032e-06
1159,1.31413e-05,-1.15899e-05,5.60436e-05,3.88822e-05,3.4337e-05,3.30605e-06
1160,9.145e-06,2.67325e-06,6.49011e-05,4.15398e-05,6.39007e-05,3.50028e-06
1161,5.25786e-06,5.38251e-06,6.92202e-05,3.81673e-05,9.56528e-05,-4.71584e-07
1162,5.32727e-06,-3.53255e-06,6.29964e-05,3.19352e-05,0.000106646,-3.83756e-06
1163,1.04827e-05,-1.81167e-05,4.63806e-05,2.51012e-05,9.17167e-05,-4.35009e-06
1164,1.57632e-05,-2.44474e-05,2.89941e-05,2.40659e-05,6.02425e-05,-4.68857e-06
1165,1.49292e-05,-1.34892e-05,2.55147e-05,2.93104e-05,1.80833e-05,-3.78839e-06
1166,1.05828e-05,1.47459e-06,3.67773e-05,2.93988e-05,-2.46413e-05,-3.00099e-07
1167,1.08291e-05,4.80853e-06,4.74101e-05,2.30879e-05,-5.17921e-05,1.73313e-06
1168,1.5408e-05,-9.91049e-07,4.86164e-05,1.78161e-05,-6.23139e-05,2.28862e-06
1169,1.96502e-05,-1.71266e-05,4.10601e-05,1.2006e-05,-6.51261e-05,2.82413e-06
1170,2.19817e-05,-2.83616e-05,2.95587e-05,7.58037e-06,-6.0105e-05,2.81176e-06
1171,1.94949e-05,-1.58317e-05,2.56782e-05,1.49407e-05,-4.62506e-05,2.68544e-06
1172,1.20792e-05,9.40945e-08,3.26282e-05,2.39005e-05,-2.74211e-05,-1.91654e-06
1173,8.50934e-06,1.54395e-06,3.82728e-05,2.57838e-05,-6.4119e-06,-5.34897e-06
1174,1.47075e-05,1.73112e-06,3.57716e-05,2.96331e-05,8.46437e-06,-4.56111e-06
1175,2.03338e-05,6.93891e-06,3.27317e-05,3.52604e-05,1.35033e-05,-4.14681e-06
1176,1.68991e-05,1.13498e-05,3.82735e-05,4.17107e-05,1.51692e-05,-8.01483e-06
1177,1.22792e-05,2.45353e-06,4.53106e-05,4.13139e-05,1.42956e-05,-1.59993e-05
1178,1.30737e-05,-1.7737e-05,4.04361e-05,3.27267e-05,1.18488e-05,-2.05508e-05
1179,1.45922e-05,-2.55224e-05,2.81121e-05,3.03246e-05,1.05886e-05,-1.7501e-05
1180,1.01623e-05,-1.23616e-05,2.7271e-05,4.38123e-05,9.79438e-06,-7.99171e-06
1181,3.38681e-06,2.95286e-06,3.80369e-05,6.07951e-05,8.70513e-06,3.71801e-07
1182,1.09816e-06,8.10322e-06,4.65165e-05,6.93361e-05,6.83152e-06,3.14147e-06
1183,3.25899e-06,-1.28635e-06,4.58292e-05,6.7802e-05,2.4975e-06,4.90123e-07
1184,7.49247e-06,-1.91119e-05,3.54468e-05,5.77439e-05,-1.34334e-06,-4.24787e-06
1185,1.08129e-05,-2.52919e-05,2.19915e-05,5.09246e-05,-1.20509e-06,-7.81919e-06
1186,9.93608e-06,-1.0401e-05,1.84848e-05,5.68011e-05,3.32471e-06,-7.50044e-06
1187,5.36157e-06,1.00729e-05,2.85396e-05,6.79785e-05,1.87815e-05,-4.19197e-06
1188,1.74311e-06,1.76729e-05,4.10631e-05,7.01053e-05,5.27876e-05,-9.91613e-07
1189,2.39113e-06,8.47578e-06,4.56403e-05,5.92722e-05,9.91045e-05,-2.45236e-06
1190,5.51423e-06,-1.36121e-05,3.88291e-05,4.19667e-05,0.000138974,-8.48093e-06
1191,6.52318e-06,-2.75825e-05,2.84045e-05,3.34446e-05,0.000156007,-1.23853e-05
1192,2.92522e-06,-1.68796e-05,2.7895e-05,4.02991e-05,0.00014578,-1.14051e-05
1193,-3.52145e-06,3.91188e-06,3.79036e-05,5.02344e-05,0.000115591,-8.99034e-06
1194,-7.50377e-06,1.39658e-05,4.70279e-05,5.08544e-05,7.40004e-05,-8.53364e-06
1195,-4.74981e-06,8.91966e-06,5.03014e-05,4.61899e-05,2.93462e-05,-9.36964e-06
1196,3.46548e-06,-1.25409e-05,4.66207e-05,3.90516e-05,-4.86157e-06,-1.03641e-05
1197,1.07977e-05,-3.04336e-05,3.75717e-05,3.45068e-05,-2.02554e-05,-1.17293e-05
1198,1.10441e-05,-2.04378e-05,3.29678e-05,4.13298e-05,-2.76852e-05,-1.59917e-05
1199,6.87969e-06,-2.6979e-06,4.17001e-05,4.91836e-05,-3.93142e-05,-2.04719e-05
1200,7.02163e-06,2.72431e-06,5.58765e-05,4.80605e-05,-4.85408e-05,-2.44134e-05
1201,1.35549e-05,7.08468e-06,6.20142e-05,4.49831e-05,-4.09709e-05,-2.74009e-05
1202,1.81867e-05,1.02303e-05,6.04888e-05,4.42077e-05,-1.37554e-05,-2.64339e-05
1203,1.41353e-05,7.11963e-06,5.95066e-05,4.34731e-05,1.53226e-05,-2.34794e-05
1204,8.26394e-06,-5.3263e-06,5.77258e-05,3.60848e-05,2.70296e-05,-2.53048e-05
1205,9.10192e-06,-2.33324e-05,4.98692e-05,2.29496e-05,1.71433e-05,-2.91209e-05
1206,1.38843e-05,-2.6428e-05,4.10806e-05,1.57382e-05,-1.1281e-05,-2.47931e-05
1207,1.51526e-05,-9.02205e-06,4.39086e-05,2.19322e-05,-4.46706e-05,-1.32245e-05
1208,1.2334e-05,9.26085e-06,5.50504e-05,3.17632e-05,-5.82207e-05,-1.92105e-06
1209,8.82657e-06,1.54176e-05,6.15669e-05,3.3771e-05,-4.60808e-05,3.29815e-06
1210,7.43625e-06,5.33678e-06,5.89018e-05,2.52216e-05,-2.7308e-05,4.81418e-06
1211,1.13642e-05,-1.29209e-05,4.79467e-05,1.21532e-05,-1.87595e-05,6.86948e-06
1212,1.93262e-05,-2.07239e-05,3.6381e-05,9.53934e-06,-2.3444e-05,1.12216e-05
1213,2.3933e-05,-9.56019e-06,3.61706e-05,2.10804e-05,-3.20591e-05,1.63562e-05
1214,2.26373e-05,7.02708e-06,4.79583e-05,3.32223e-05,-2.90767e-05,1.94143e-05
1215,1.99814e-05,1.17559e-05,5.84981e-05,3.72376e-05,-8.96539e-06,2.02929e-05
1216,1.76691e-05,1.21103e-06,5.78652e-05,3.59624e-05,1.71912e-05,1.91207e-05
1217,1.53179e-05,-1.81615e-05,4.6668e-05,2.93785e-05,4.09996e-05,1.47635e-05
1218,1.35753e-05,-2.81716e-05,3.67641e-05,2.48142e-05,6.42052e-05,8.41925e-06
1219,1.17744e-05,-1.7311e-05,4.05402e-05,3.26658e-05,8.36209e-05,3.46748e-06
1220,9.18846e-06,3.37241e-07,5.31645e-05,4.70407e-05,9.2598e-05,-2.14406e-06
1221,7.28208e-06,7.75025e-06,6.00066e-05,5.23515e-05,9.35843e-05,-1.12904e-05
1222,7.54665e-06,1.8346e-06,5.93933e-05,4.47e-05,8.9589e-05,-2.13306e-05
1223,1.05954e-05,-1.86308e-05,5.51979e-05,2.99381e-05,7.28516e-05,-2.34323e-05
1224,1.55022e-05,-3.14179e-05,4.81274e-05,2.02234e-05,3.73891e-05,-1.16662e-05
1225,1.74442e-05,-1.51727e-05,4.39067e-05,2.75426e-05,-3.7459e-06,1.01029e-05
1226,1.24569e-05,1.7139e-06,4.84939e-05,3.951e-05,-2.90784e-05,2.325e-05
1227,6.20938e-06,1.98825e-06,5.80162e-05,4.56048e-05,-3.44198e-05,1.66541e-05
1228,5.45069e-06,2.01449e-06,6.35087e-05,4.97431e-05,-3.83151e-05,4.24174e-06
1229,8.39328e-06,3.33314e-06,6.06582e-05,4.89883e-05,-5.07176e-05,-5.53638e-06
1230,9.08409e-06,3.5249e-06,5.61466e-05,4.74329e-05,-5.55072e-05,-1.79438e-05
1231,8.00991e-06,-4.89003e-06,5.17062e-05,4.43564e-05,-3.95575e-05,-3.35307e-05
1232,1.08475e-05,-2.28954e-05,4.19669e-05,3.70604e-05,-1.69344e-05,-3.99545e-05
1233,1.52667e-05,-3.10821e-05,3.20575e-05,3.20453e-05,-7.89906e-06,-3.0976e-05
1234,1.45516e-05,-1.80736e-05,3.40381e-05,3.45024e-05,-1.09347e-05,-1.75205e-05
1235,1.08727e-05,-1.53784e-06,4.53861e-05,3.696e-05,-7.88538e-06,-1.24206e-05
1236,8.3578e-06,4.90817e-06,5.49854e-05,3.54453e-05,8.44206e-06,-1.30093e-05
1237,8.09012e-06,-2.00357e-06,5.62414e-05,3.00982e-05,2.32476e-05,-1.1978e-05
1238,1.41355e-05,-1.71433e-05,4.6872e-05,2.07388e-05,2.40833e-05,-1.28813e-05
1239,2.56678e-05,-2.36609e-05,3.5174e-05,1.63413e-05,1.43717e-05,-1.69565e-05
1240,3.21364e-05,-1.31523e-05,3.52598e-05,2.27595e-05,6.38363e-06,-1.81261e-05
1241,2.85939e-05,2.87732e-06,4.74516e-05,3.2209e-05,1.0638e-05,-1.27466e-05
1242,2.16707e-05,9.97698e-06,5.8913e-05,3.48974e-05,2.60421e-05,-5.17323e-06
1243,1.89252e-05,4.009e-06,6.21466e-05,3.01219e-05,4.00378e-05,-1.27824e-06
1244,2.24259e-05,-1.45965e-05,5.59533e-05,2.02291e-05,4.42952e-05,-3.9765e-06
1245,2.7615e-05,-2.83109e-05,4.6979e-05,1.55994e-05,4.07016e-05,-1.02654e-05
1246,2.6657e-05,-2.01143e-05,4.78781e-05,2.49129e-05,3.23942e-05,-1.64052e-05
1247,1.81761e-05,-1.28962e-06,6.05679e-05,4.15381e-05,2.43949e-05,-1.67945e-05
1248,9.45063e-06,8.83091e-06,7.23436e-05,5.34307e-05,2.33812e-05,-8.93286e-06
1249,4.75283e-06,4.81778e-06,7.29636e-05,5.34981e-05,2.80289e-05,-2.64766e-06
1250,6.06604e-06,-1.67349e-05,6.10886e-05,4.07189e-05,3.23863e-05,-4.17287e-06
1251,1.49743e-05,-3.38057e-05,4.67216e-05,3.09537e-05,3.48494e-05,-7.80415e-06
1252,2.28583e-05,-2.04521e-05,4.49753e-05,3.39963e-05,3.3308e-05,-9.16394e-06
1253,1.9119e-05,-2.75744e-06,5.76785e-05,4.12697e-05,2.60188e-05,-9.01765e-06
1254,9.91532e-06,-2.2301e-06,7.08037e-05,4.6216e-05,1.92888e-05,-7.28657e-06
1255,6.8205e-06,-5.45108e-06,7.09653e-05,4.63288e-05,1.9208e-05,-5.98976e-06
1256,7.10448e-06,-8.38491e-06,6.42139e-05,4.13823e-05,2.76449e-05,-9.58591e-06
1257,5.8168e-06,-9.42875e-06,6.68083e-05,3.5689e-05,3.99572e-05,-1.74052e-05
1258,6.52127e-06,-1.80875e-05,7.32361e-05,2.97502e-05,4.61892e-05,-2.24187e-05
1259,1.25757e-05,-3.69851e-05,6.81853e-05,2.49509e-05,4.76418e-05,-2.11366e-05
1260,1.887e-05,-4.32527e-05,5.74116e-05,2.6389e-05,5.03203e-05,-1.72631e-05
1261,1.62019e-05,-2.62563e-05,5.81481e-05,3.57267e-05,5.21343e-05,-1.71357e-05
1262,8.20583e-06,-5.22934e-06,6.69825e-05,4.3801e-05,5.10308e-05,-2.06723e-05
1263,4.66393e-06,2.57633e-06,7.32743e-05,4.30207e-05,5.05936e-05,-2.21836e-05
1264,8.39716e-06,-3.86734e-06,7.37229e-05,3.39849e-05,5.20891e-05,-1.67511e-05
1265,1.5649e-05,-1.62112e-05,6.46479e-05,2.32146e-05,5.14684e-05,-7.58031e-06
1266,1.99705e-05,-2.08466e-05,5.09408e-05,2.06582e-05,4.34185e-05,-2.39638e-06
1267,1.6823e-05,-1.15759e-05,4.56232e-05,2.80748e-05,2.95053e-05,-1.63785e-06
1268,8.4023e-06,2.52256e-06,5.2719e-05,3.61321e-05,1.81985e-05,-2.62464e-06
1269,1.16214e-06,7.6898e-06,6.32736e-05,3.71726e-05,1.30043e-05,-6.42367e-06
1270,-9.64766e-07,-1.23709e-06,6.75951e-05,3.31095e-05,7.47291e-06,-1.29747e-05
1271,2.05717e-06,-1.93566e-05,6.11682e-05,2.6788e-05,-2.10271e-06,-1.97528e-05
1272,6.24216e-06,-2.93444e-05,5.10996e-05,2.40281e-05,-1.06856e-05,-2.19019e-05
1273,6.94463e-06,-1.8386e-05,5.15161e-05,2.84648e-05,-1.29409e-05,-1.6499e-05
1274,4.3464e-06,1.22808e-06,6.31282e-05,3.39741e-05,5.35265e-08,-1.08614e-05
1275,3.30411e-06,6.37388e-06,7.14374e-05,3.70634e-05,3.63173e-05,-9.35865e-06
1276,6.59074e-06,-4.93556e-06,7.07294e-05,3.87453e-05,8.32821e-05,-1.1329e-05
1277,1.13733e-05,-2.63374e-05,6.31589e-05,3.41301e-05,0.000113505,-1.26721e-05
1278,1.32623e-05,-3.98602e-05,5.17003e-05,3.00529e-05,0.000114846,-7.5887e-06
1279,1.18162e-05,-2.46348e-05,4.5714e-05,3.60783e-05,9.59941e-05,1.46209e-06
1280,1.09241e-05,-4.35641e-06,5.21021e-05,4.39823e-05,6.97466e-05,8.28525e-06
1281,1.40826e-05,2.68245e-06,6.17395e-05,4.62608e-05,3.73922e-05,9.25038e-06
1282,1.70937e-05,5.70808e-06,6.23169e-05,4.67184e-05,-3.40341e-06,6.19313e-06
1283,1.80682e-05,6.33009e-06,5.8815e-05,4.56984e-05,-4.08023e-05,4.04284e-06
1284,1.93227e-05,7.55695e-06,6.22852e-05,4.24148e-05,-6.49361e-05,3.42972e-06
1285,2.23234e-05,-6.04025e-07,6.51226e-05,3.50996e-05,-7.40865e-05,-3.35754e-07
1286,2.64585e-05,-2.00578e-05,5.80843e-05,2.60815e-05,-6.88967e-05,-6.24057e-06
1287,2.72963e-05,-2.87842e-05,5.03554e-05,2.37185e-05,-6.05805e-05,-1.3359e-05
1288,2.40377e-05,-1.50883e-05,5.43705e-05,3.01016e-05,-5.8576e-05,-2.12951e-05
1289,2.22933e-05,2.9568e-06,6.50258e-05,3.69323e-05,-5.22054e-05,-2.42161e-05
1290,2.35555e-05,1.04447e-05,6.97293e-05,3.98066e-05,-3.23723e-05,-2.25977e-05
1291,2.37769e-05,2.27685e-06,6.59103e-05,3.84326e-05,-1.17549e-05,-2.15676e-05
1292,2.34428e-05,-1.60752e-05,5.64139e-05,3.18904e-05,-4.83607e-07,-1.95455e-05
1293,2.39192e-05,-2.4641e-05,4.60619e-05,2.72844e-05,2.99059e-06,-1.36811e-05
1294,2.1513e-05,-1.34025e-05,4.3879e-05,3.23121e-05,1.95066e-06,-6.84981e-06
1295,1.44091e-05,3.58812e-06,5.22152e-05,4.28252e-05,1.8583e-06,7.24807e-07
1296,7.20683e-06,1.05204e-05,6.27713e-05,4.90794e-05,6.30966e-06,9.01078e-06
1297,4.78738e-06,3.57114e-06,6.74527e-05,4.73187e-05,1.02998e-05,1.18378e-05
1298,6.59442e-06,-1.42133e-05,6.30015e-05,3.88227e-05,9.41325e-06,2.60841e-06
1299,7.7044e-06,-2.50952e-05,5.48129e-05,3.41894e-05,4.20315e-06,-1.07812e-05
1300,5.40199e-06,-1.54891e-05,5.35666e-05,3.97954e-05,-2.01373e-06,-1.44775e-05
1301,3.21689e-06,1.64116e-06,6.1232e-05,4.56895e-05,-1.64584e-06,-9.54437e-06
1302,6.37454e-06,5.90062e-06,6.91313e-05,4.50606e-05,6.69929e-06,-6.56023e-06
1303,1.42598e-05,-2.99854e-06,7.05172e-05,4.4938e-05,1.31298e-05,-9.53526e-06
1304,2.15341e-05,-2.44147e-05,5.97447e-05,4.23907e-05,1.36023e-05,-1.52995e-05
1305,2.33651e-05,-3.88345e-05,4.28825e-05,3.93782e-05,1.39484e-05,-1.97709e-05
1306,1.72581e-05,-2.01519e-05,4.03676e-05,4.57009e-05,1.35725e-05,-1.54858e-05
1307,7.40315e-06,8.01057e-06,5.43088e-05,4.70963e-05,1.13403e-05,-5.56311e-06
1308,1.69663e-06,1.90254e-05,6.5435e-05,4.01262e-05,1.35204e-05,-1.80394e-06
1309,1.2745e-06,1.87101e-05,6.37384e-05,3.82353e-05,2.01503e-05,-2.54134e-06
1310,2.63376e-06,1.50043e-05,5.55124e-05,4.15058e-05,2.58375e-05,-3.86079e-06
1311,3.86425e-06,1.40137e-05,5.12016e-05,4.51271e-05,2.86744e-05,-9.76537e-06
1312,6.8896e-06,4.03261e-06,4.91537e-05,4.23117e-05,2.88749e-05,-1.71318e-05
1313,1.23423e-05,-1.88435e-05,4.16618e-05,3.16581e-05,2.61882e-05,-1.87808e-05
1314,1.60652e-05,-2.87239e-05,3.13455e-05,2.39942e-05,1.7797e-05,-1.66024e-05
1315,1.30617e-05,-1.31161e-05,2.90221e-05,2.71544e-05,7.44226e-06,-1.68731e-05
1316,7.45681e-06,5.71383e-06,3.49506e-05,3.28233e-05,4.77877e-06,-2.02566e-05
1317,5.26916e-06,8.79961e-06,4.361e-05,3.52572e-05,1.09424e-05,-1.94857e-05
1318,5.15524e-06,-5.87018e-06,4.94134e-05,3.39251e-05,1.82365e-05,-1.17349e-05
1319,6.55503e-06,-2.6105e-05,4.49869e-05,2.81615e-05,2.34711e-05,-3.19698e-06
1320,8.67722e-06,-3.18888e-05,3.47197e-05,2.40663e-05,2.47457e-05,-1.85379e-06
1321,6.82187e-06,-1.7247e-05,3.41767e-05,2.85778e-05,1.87169e-05,-8.35715e-06
1322,2.03345e-06,1.48996e-06,4.74183e-05,3.59726e-05,1.16857e-05,-1.40393e-05
1323,6.26608e-07,8.15979e-06,6.17416e-05,3.8272e-05,1.41022e-05,-1.13005e-05
1324,3.82444e-06,6.70963e-07,6.73346e-05,3.5248e-05,2.43111e-05,-3.46318e-06
1325,8.59249e-06,-1.62413e-05,6.40585e-05,2.87891e-05,3.12807e-05,7.17233e-07
1326,1.15069e-05,-2.54086e-05,5.89014e-05,2.63135e-05,3.05472e-05,3.11449e-06
1327,1.14726e-05,-1.26684e-05,6.14983e-05,3.29708e-05,2.59888e-05,8.27854e-06
1328,1.02775e-05,8.40053e-06,7.39903e-05,4.14836e-05,2.63312e-05,8.73058e-06
1329,1.03145e-05,1.82033e-05,8.46507e-05,4.2315e-05,4.23864e-05,-1.29213e-06
1330,1.16302e-05,1.33861e-05,8.51345e-05,3.62005e-05,7.6463e-05,-1.45754e-05
1331,1.49228e-05,-7.99846e-06,7.65962e-05,2.75321e-05,0.000112069,-2.25743e-05
1332,1.9665e-05,-2.20225e-05,6.62491e-05,2.53994e-05,0.000124999,-2.18572e-05
1333,2.1852e-05,-5.40542e-06,6.85973e-05,3.41263e-05,0.000106839,-1.3218e-05
1334,1.96793e-05,1.45663e-05,8.45512e-05,3.91124e-05,6.85992e-05,-4.06453e-06
1335,1.66349e-05,1.71402e-05,9.50115e-05,3.52485e-05,1.94346e-05,-1.77172e-06
1336,1.62217e-05,1.45059e-05,9.06535e-05,3.33793e-05,-3.01086e-05,-8.70852e-06
1337,1.71071e-05,1.14039e-05,8.04706e-05,3.72171e-05,-6.04452e-05,-2.04941e-05
1338,1.53617e-05,1.02372e-05,7.58522e-05,4.24709e-05,-6.98255e-05,-2.60916e-05
1339,1.3301e-05,4.25058e-07,7.67965e-05,3.93642e-05,-7.31926e-05,-2.42524e-05
1340,1.52418e-05,-2.12243e-05,7.36614e-05,2.92037e-05,-7.66465e-05,-2.2091e-05
1341,1.83563e-05,-3.1517e-05,6.45377e-05,2.54007e-05,-7.39543e-05,-2.0371e-05
1342,1.65667e-05,-1.86441e-05,6.17143e-05,3.20901e-05,-5.86843e-05,-1.5256e-05
1343,1.12315e-05,9.50977e-08,6.6724e-05,3.83144e-05,-3.26535e-05,-1.06377e-05
1344,9.24686e-06,7.36014e-06,6.91235e-05,3.91526e-05,-9.11492e-06,-9.99945e-06
1345,1.26205e-05,-1.40191e-06,6.26403e-05,3.51668e-05,1.859e-06,-1.11676e-05
1346,1.87699e-05,-1.81687e-05,4.71669e-05,3.03789e-05,5.80746e-06,-1.13102e-05
1347,2.28218e-05,-2.45602e-05,3.15389e-05,3.25369e-05,7.7139e-06,-6.24166e-06
1348,2.08187e-05,-1.37108e-05,2.86103e-05,4.34073e-05,3.91512e-06,8.61767e-06
1349,1.39812e-05,2.09404e-07,3.80818e-05,5.31144e-05,-4.71346e-06,2.87889e-05
1350,7.38459e-06,4.34476e-06,4.74008e-05,5.33485e-05,-1.06156e-05,3.85254e-05
1351,5.44633e-06,-2.28123e-06,4.83117e-05,4.65127e-05,-1.10414e-05,3.19574e-05
1352,9.80712e-06,-1.823e-05,3.89102e-05,3.85904e-05,-8.99314e-06,2.10344e-05
1353,1.62186e-05,-2.89676e-05,2.62054e-05,3.61033e-05,-8.97735e-06,1.73385e-05
1354,1.61742e-05,-2.13884e-05,2.33857e-05,4.15719e-05,-1.20851e-05,1.94798e-05
1355,9.35502e-06,-7.12649e-06,3.22398e-05,4.97133e-05,-1.10858e-05,2.3757e-05
1356,5.11183e-06,-3.08735e-06,4.00285e-05,5.41092e-05,9.98314e-07,2.50083e-05
1357,5.6046e-06,-1.12981e-05,3.95328e-05,5.46403e-05,1.75892e-05,1.03241e-05
1358,5.76337e-06,-3.37564e-05,2.99381e-05,4.34839e-05,3.16046e-05,-2.80834e-05
1359,6.44401e-06,-4.8487e-05,1.59476e-05,2.89785e-05,4.96367e-05,-7.19668e-05
1360,8.08086e-06,-3.10597e-05,1.18911e-05,3.13036e-05,7.33733e-05,-9.35235e-05
1361,5.53491e-06,-7.9315e-06,2.30246e-05,3.97823e-05,9.31609e-05,-8.64784e-05
1362,2.1571e-06,-1.36917e-06,3.44167e-05,3.95857e-05,0.000100447,-6.7327e-05
1363,3.93584e-06,3.49682e-07,3.58467e-05,3.82949e-05,9.16496e-05,-5.34988e-05
1364,6.93133e-06,1.48571e-06,3.42446e-05,3.86818e-05,7.329e-05,-4.94466e-05
1365,5.89532e-06,2.7251e-07,3.70901e-05,3.64646e-05,5.00362e-05,-4.52538e-05
1366,3.04023e-06,-9.39538e-06,3.77306e-05,3.12283e-05,2.11499e-05,-3.36406e-05
1367,3.99709e-06,-2.58623e-05,2.72753e-05,2.6175e-05,-1.0565e-05,-2.16786e-05
1368,8.38707e-06,-3.04599e-05,1.55621e-05,2.81431e-05,-3.94645e-05,-1.65922e-05
1369,9.52072e-06,-1.71438e-05,1.91514e-05,3.85308e-05,-6.07223e-05,-1.50294e-05
1370,5.75746e-06,-3.17286e-06,3.24628e-05,4.7552e-05,-6.04821e-05,-8.22325e-06
1371,2.46881e-06,1.00187e-06,3.93972e-05,5.05383e-05,-3.01225e-05,-2.14995e-07
1372,2.92685e-06,-6.07182e-06,3.71322e-05,4.81107e-05,6.28669e-06,8.18482e-07
1373,9.40432e-06,-2.05505e-05,2.97555e-05,4.2766e-05,2.27004e-05,-4.53798e-06
1374,1.93423e-05,-2.57817e-05,2.40772e-05,4.19532e-05,1.73684e-05,-1.08574e-05
1375,2.28604e-05,-1.32319e-05,2.8257e-05,4.88332e-05,5.10676e-06,-1.47125e-05
1376,1.63273e-05,1.52588e-06,3.92214e-05,5.55752e-05,3.47398e-06,-1.34976e-05
1377,6.76386e-06,3.49872e-06,4.69116e-05,5.49038e-05,1.65834e-05,-5.10062e-06
1378,3.39437e-06,-6.00991e-06,4.74941e-05,4.74758e-05,3.00495e-05,6.92583e-06
1379,9.71374e-06,-2.14395e-05,3.94273e-05,3.80887e-05,2.94827e-05,1.51964e-05
1380,1.96282e-05,-2.64257e-05,2.56759e-05,3.50728e-05,1.44118e-05,1.7425e-05
1381,2.25928e-05,-1.04732e-05,1.9882e-05,4.01571e-05,-8.15272e-06,1.4982e-05
1382,1.57241e-05,8.53908e-06,2.78441e-05,4.61606e-05,-2.66412e-05,8.26084e-06
1383,7.47596e-06,1.28876e-05,3.78336e-05,4.78161e-05,-2.69612e-05,-1.52251e-06
1384,7.19799e-06,3.87078e-06,4.26083e-05,4.59228e-05,-1.0993e-05,-1.11868e-05
1385,1.50051e-05,-1.55777e-05,4.04992e-05,3.51852e-05,5.16815e-06,-1.11335e-05
1386,2.1413e-05,-2.75511e-05,3.19738e-05,2.32126e-05,1.40395e-05,1.6555e-07
1387,1.7506e-05,-1.30445e-05,3.03271e-05,2.6496e-05,1.45801e-05,8.887e-06
1388,7.11836e-06,2.00259e-06,4.26516e-05,3.38073e-05,1.05714e-05,5.40505e-06
1389,9.91496e-07,-1.29948e-06,5.49018e-05,3.50202e-05,1.22052e-05,-3.78161e-06
1390,1.27991e-06,-5.31964e-06,5.39829e-05,3.59346e-05,1.8717e-05,-6.91655e-06
1391,4.49506e-06,-6.00373e-06,4.46227e-05,3.88999e-05,2.10934e-05,-1.69903e-06
1392,7.7611e-06,-8.1007e-06,4.12716e-05,3.96944e-05,1.88999e-05,4.19787e-06
1393,8.83297e-06,-1.61121e-05,4.41849e-05,3.19305e-05,2.27508e-05,3.83401e-06
1394,9.94165e-06,-2.79915e-05,4.28592e-05,2.14762e-05,4.50178e-05,-1.76441e-06
1395,1.30595e-05,-2.87104e-05,3.72766e-05,2.24529e-05,7.85747e-05,-5.62913e-06
1396,1.39671e-05,-1.09603e-05,4.01731e-05,3.36634e-05,9.92258e-05,-4.48698e-06
1397,1.1515e-05,7.20167e-06,5.07307e-05,3.82117e-05,9.66659e-05,5.42081e-07
1398,8.82886e-06,1.20307e-05,5.59085e-05,3.40582e-05,8.08537e-05,2.54422e-06
1399,7.60126e-06,1.08877e-06,5.10554e-05,2.77827e-05,5.73667e-05,-3.14933e-06
1400,9.0596e-06,-1.72798e-05,3.81597e-05,2.14826e-05,2.36871e-05,-1.19239e-05
1401,1.34086e-05,-2.30098e-05,2.65831e-05,1.86593e-05,-1.83658e-05,-1.81107e-05
1402,1.79731e-05,-9.89096e-06,2.79725e-05,2.31197e-05,-5.98101e-05,-1.99388e-05
1403,2.03405e-05,6.68275e-06,4.01199e-05,3.09367e-05,-9.05097e-05,-1.9555e-05
1404,1.93365e-05,1.35634e-05,5.02842e-05,3.51381e-05,-0.000101216,-1.93589e-05
1405,1.54949e-05,7.91499e-06,5.30014e-05,3.16216e-05,-8.72501e-05,-2.08617e-05
1406,1.35345e-05,-1.0641e-05,4.92775e-05,2.11498e-05,-5.60673e-05,-2.58681e-05
1407,1.64952e-05,-2.4591e-05,4.38045e-05,1.42488e-05,-2.37774e-05,-3.21169e-05
1408,1.95295e-05,-1.68784e-05,4.51895e-05,2.08586e-05,-4.16481e-06,-3.24958e-05
1409,1.78018e-05,1.38961e-06,5.5142e-05,3.52557e-05,1.23529e-06,-2.59912e-05
1410,1.41793e-05,1.16762e-05,6.38586e-05,4.23338e-05,1.62603e-06,-2.16797e-05
1411,1.26703e-05,9.46214e-06,6.54763e-05,3.72572e-05,3.293e-06,-2.38532e-05
1412,1.46594e-05,-8.87955e-06,5.85119e-05,2.39454e-05,6.15301e-06,-2.53814e-05
1413,1.86855e-05,-2.48795e-05,4.43779e-05,1.46637e-05,8.26075e-06,-2.04133e-05
1414,1.92178e-05,-1.3894e-05,3.7773e-05,2.23127e-05,6.46124e-06,-1.04756e-05
1415,1.3807e-05,2.49964e-06,4.78046e-05,3.39154e-05,4.34247e-06,-5.61323e-06
1416,1.02045e-05,5.22029e-06,6.20916e-05,3.65107e-05,1.00035e-05,-6.71619e-06
1417,1.21863e-05,7.07843e-06,6.56474e-05,3.47932e-05,2.00083e-05,-1.07104e-05
1418,1.40402e-05,9.39424e-06,6.20299e-05,3.27934e-05,2.51139e-05,-1.54438e-05
1419,1.32108e-05,6.72485e-06,6.34065e-05,3.41065e-05,2.42209e-05,-1.55239e-05
1420,1.28917e-05,-5.54334e-06,6.50177e-05,3.44179e-05,2.17456e-05,-9.91299e-06
1421,1.51387e-05,-2.42005e-05,5.77753e-05,3.13006e-05,2.32374e-05,-1.88064e-06
1422,1.62237e-05,-3.04804e-05,4.67287e-05,3.43694e-05,2.38097e-05,2.85205e-06
1423,1.02073e-05,-1.49086e-05,4.50406e-05,4.80373e-05,1.57875e-05,2.08176e-06
1424,-4.76664e-07,3.91679e-06,5.2618e-05,5.91785e-05,7.31493e-06,-6.06405e-07
1425,-5.68587e-06,1.04245e-05,6.01623e-05,6.17503e-05,1.00327e-05,4.6408e-07
1426,-2.73324e-06,2.10449e-06,6.08121e-05,5.81382e-05,1.95376e-05,4.57488e-06
1427,4.11656e-06,-1.50044e-05,5.17773e-05,5.20855e-05,2.41143e-05,7.55063e-06
1428,1.04552e-05,-2.45701e-05,4.00155e-05,5.05495e-05,1.86831e-05,7.85646e-06
1429,1.22185e-05,-1.58458e-05,3.85488e-05,5.72744e-05,9.72353e-06,6.12095e-06
1430,9.47864e-06,6.86959e-07,5.01691e-05,6.52781e-05,8.30151e-06,2.35798e-06
1431,6.71645e-06,8.52235e-06,6.30483e-05,6.87363e-05,1.65309e-05,-5.41517e-06
1432,6.93344e-06,2.72002e-06,6.51702e-05,6.74569e-05,2.66875e-05,-1.53084e-05
1433,9.95228e-06,-1.31396e-05,5.27998e-05,6.17839e-05,3.10489e-05,-1.9854e-05
1434,1.32017e-05,-2.07494e-05,3.60901e-05,5.96831e-05,2.78207e-05,-1.65791e-05
1435,1.20944e-05,-9.24878e-06,3.34878e-05,6.55238e-05,2.05909e-05,-1.14766e-05
1436,6.91239e-06,6.11377e-06,4.65616e-05,7.0219e-05,1.86496e-05,-6.42834e-06
1437,4.38599e-06,8.96555e-06,5.65353e-05,6.54585e-05,2.67797e-05,1.92275e-06
1438,8.71521e-06,9.7767e-08,5.54854e-05,5.64013e-05,3.48406e-05,7.97563e-06
1439,1.63437e-05,-1.80249e-05,4.63972e-05,4.65371e-05,3.21381e-05,3.8956e-06
1440,2.03736e-05,-2.97278e-05,3.40195e-05,4.12502e-05,2.37357e-05,-5.79193e-06
1441,1.88271e-05,-1.57097e-05,3.30314e-05,4.79262e-05,1.55366e-05,-1.09451e-05
1442,1.56757e-05,5.33015e-07,4.73684e-05,5.78509e-05,1.01116e-05,-1.58099e-05
1443,1.54194e-05,1.24199e-06,5.87437e-05,5.81007e-05,1.3185e-05,-2.16694e-05
1444,1.71053e-05,2.07226e-06,5.63644e-05,5.25495e-05,2.00873e-05,-2.27566e-05
1445,1.71508e-05,5.44186e-06,4.89744e-05,4.85351e-05,2.29953e-05,-2.0913e-05
1446,1.57619e-05,8.19252e-06,4.7718e-05,4.71069e-05,2.77605e-05,-1.41454e-05
1447,1.4857e-05,5.03886e-07,4.68816e-05,4.23885e-05,4.53482e-05,-2.50452e-06
1448,1.51781e-05,-1.87394e-05,4.02143e-05,3.20425e-05,7.53275e-05,4.41384e-06
1449,1.59429e-05,-2.59254e-05,3.46033e-05,2.6342e-05,9.65967e-05,5.83292e-07
1450,1.49117e-05,-7.69456e-06,4.18427e-05,3.05709e-05,9.47888e-05,-8.11979e-06
1451,1.258e-05,1.67415e-05,5.83949e-05,3.44848e-05,8.14623e-05,-1.14044e-05
1452,1.25572e-05,2.74163e-05,6.99508e-05,3.15399e-05,6.97732e-05,-7.0639e-06
1453,1.60092e-05,1.63397e-05,6.94199e-05,2.33652e-05,5.42169e-05,-5.34579e-06
1454,2.2061e-05,-8.64088e-06,5.75962e-05,1.48191e-05,2.78007e-05,-1.0844e-05
1455,2.54816e-05,-2.31668e-05,4.479e-05,1.4975e-05,-3.05072e-06,-1.79747e-05
1456,2.12719e-05,-1.29814e-05,4.49037e-05,2.66931e-05,-2.87268e-05,-2.12863e-05
1457,1.43428e-05,7.17962e-06,5.79417e-05,3.91361e-05,-4.42554e-05,-2.00883e-05
1458,1.24405e-05,1.68216e-05,6.91318e-05,3.98269e-05,-5.03602e-05,-1.60535e-05
1459,1.52402e-05,9.904e-06,6.86949e-05,3.00981e-05,-5.19274e-05,-1.57966e-05
1460,1.92281e-05,-1.05081e-05,5.68714e-05,1.86453e-05,-4.70777e-05,-2.19513e-05
1461,2.32682e-05,-2.57308e-05,4.40068e-05,1.40588e-05,-2.53883e-05,-2.61036e-05
1462,2.47465e-05,-1.92342e-05,4.45299e-05,1.89038e-05,1.26937e-05,-2.65199e-05
1463,2.25867e-05,-2.0056e-06,5.93103e-05,2.64862e-05,4.98621e-05,-2.936e-05
1464,1.84528e-05,7.67463e-06,7.2064e-05,3.07541e-05,6.74814e-05,-3.0178e-05
1465,1.43926e-05,5.43526e-06,7.35326e-05,3.18077e-05,5.90344e-05,-2.69852e-05
1466,1.47707e-05,-1.33706e-05,6.45499e-05,2.76748e-05,2.81778e-05,-2.31876e-05
1467,1.98902e-05,-2.9993e-05,5.21382e-05,2.36686e-05,-1.3975e-05,-1.84578e-05
1468,2.19077e-05,-1.90446e-05,4.86874e-05,2.43613e-05,-5.02277e-05,-1.56281e-05
1469,1.86371e-05,-5.95681e-07,5.55672e-05,2.33877e-05,-6.23918e-05,-1.73195e-05
1470,1.7752e-05,4.46131e-06,6.01117e-05,2.24133e-05,-4.73378e-05,-2.64849e-05
1471,2.20236e-05,5.52671e-06,5.67409e-05,2.37194e-05,-3.31114e-05,-3.23797e-05
1472,2.50851e-05,7.60675e-06,5.23715e-05,2.66144e-05,-4.19981e-05,-2.71908e-05
1473,2.03336e-05,9.07068e-06,5.46566e-05,3.21434e-05,-5.04452e-05,-1.58011e-05
1474,1.05867e-05,-4.17094e-09,5.8379e-05,3.34665e-05,-3.27076e-05,-6.93089e-06
1475,5.47726e-06,-1.86305e-05,5.25409e-05,2.5338e-05,7.71413e-07,-4.11056e-06
1476,6.82667e-06,-2.75859e-05,4.30233e-05,1.82707e-05,2.20424e-05,-1.84313e-06
1477,8.2286e-06,-1.95896e-05,4.39469e-05,2.15463e-05,2.0927e-05,1.43342e-07
1478,5.43305e-06,-8.85467e-06,5.31553e-05,2.76947e-05,1.41867e-05,-2.72459e-06
1479,6.24e-07,-4.28562e-06,5.88799e-05,2.85647e-05,1.99212e-05,-9.12913e-06
1480,-2.35178e-06,-1.08327e-05,5.53123e-05,2.28006e-05,3.33023e-05,-1.18024e-05
1481,-1.36379e-06,-2.70669e-05,4.34236e-05,1.31781e-05,4.08161e-05,-1.02233e-05
1482,1.80458e-06,-3.61114e-05,3.41791e-05,9.21435e-06,3.70531e-05,-6.10418e-06
1483,1.58777e-06,-2.59173e-05,4.00649e-05,1.7352e-05,2.60154e-05,-1.69335e-07
1484,-3.73095e-06,-8.85853e-06,5.5009e-05,2.94674e-05,1.74034e-05,1.13867e-06
1485,-9.77823e-06,-3.57546e-06,6.31793e-05,3.57246e-05,1.39899e-05,-4.83069e-06
1486,-1.17539e-05,-1.26253e-05,6.15587e-05,3.49426e-05,1.30691e-05,-1.04828e-05
1487,-8.26582e-06,-2.9673e-05,5.46685e-05,3.1964e-05,1.35358e-05,-1.29639e-05
1488,-1.91153e-06,-3.68361e-05,4.61239e-05,3.49891e-05,1.14485e-05,-1.25116e-05
1489,8.64677e-07,-2.30263e-05,4.43098e-05,4.44154e-05,2.03169e-06,-7.11995e-06
1490,-1.67023e-06,-5.22467e-06,5.36102e-05,4.98406e-05,-6.99397e-07,6.10694e-07
1491,-3.48803e-06,1.46056e-07,6.32576e-05,4.76528e-05,2.31528e-05,8.23114e-06
1492,-2.21781e-06,-4.30467e-06,6.43178e-05,4.39209e-05,5.92251e-05,1.62558e-05
1493,4.07742e-07,-1.98351e-05,5.73321e-05,4.03775e-05,7.19857e-05,2.69413e-05
1494,4.98125e-06,-3.3207e-05,4.64288e-05,3.69017e-05,5.98167e-05,3.44673e-05
1495,7.53835e-06,-2.38975e-05,4.29534e-05,3.9718e-05,4.47545e-05,3.00915e-05
1496,4.69558e-06,-9.20022e-06,5.20046e-05,4.27314e-05,4.06991e-05,2.09188e-05
1497,1.67514e-06,-5.26587e-06,6.25701e-05,4.19647e-05,5.1099e-05,1.59748e-05
1498,3.55201e-06,-2.26091e-06,6.4143e-05,4.3493e-05,6.55816e-05,1.4463e-05
1499,7.69616e-06,2.46093e-06,5.91407e-05,4.58115e-05,6.93423e-05,1.04406e-05
1500,9.13382e-06,6.02871e-06,5.82341e-05,4.83904e-05,5.51987e-05,4.3717e-06
1501,9.64604e-06,-2.47244e-06,6.01619e-05,4.55359e-05,3.0751e-05,-6.1655e-06
1502,1.31417e-05,-2.17766e-05,5.62819e-05,3.73916e-05,1.36195e-05,-1.83357e-05
1503,2.00422e-05,-2.94393e-05,4.91012e-05,3.42267e-05,7.9394e-06,-2.6037e-05
1504,2.3964e-05,-1.42234e-05,5.00387e-05,4.02268e-05,6.34565e-06,-3.02598e-05
1505,2.06934e-05,4.48498e-06,5.64298e-05,4.83103e-05,4.83357e-06,-2.79291e-05
1506,1.57448e-05,1.19662e-05,5.85004e-05,5.22707e-05,3.87954e-06,-2.05632e-05
1507,1.52569e-05,3.6073e-06,5.34347e-05,4.80978e-05,5.78396e-06,-1.36777e-05
1508,2.09742e-05,-1.62148e-05,4.28725e-05,3.89413e-05,1.35647e-05,-8.6851e-06
1509,2.8101e-05,-2.78539e-05,3.42338e-05,3.55687e-05,2.45809e-05,-2.50074e-06
1510,2.84388e-05,-1.89013e-05,3.60896e-05,4.12353e-05,2.89412e-05,1.34722e-06
1511,2.29242e-05,-8.41003e-07,4.67967e-05,4.82855e-05,2.32195e-05,-1.68425e-06
1512,1.96023e-05,8.08305e-06,5.6343e-05,5.06554e-05,1.58248e-05,-8.94427e-06
1513,2.0313e-05,9.40461e-07,5.94243e-05,4.76347e-05,1.5202e-05,-1.32513e-05
1514,2.23303e-05,-1.99087e-05,5.45882e-05,3.83159e-05,1.95318e-05,-1.49129e-05
1515,2.29922e-05,-3.3674e-05,4.59986e-05,3.17391e-05,2.00015e-05,-2.02852e-05
1516,1.9077e-05,-2.31271e-05,4.43192e-05,3.82671e-05,1.11508e-05,-2.54077e-05
1517,1.22497e-05,-1.9697e-06,5.33719e-05,5.14201e-05,2.63416e-07,-2.18065e-05
1518,9.34705e-06,7.2552e-06,6.21906e-05,5.80111e-05,-9.85354e-07,-1.34288e-05
1519,1.09443e-05,1.41637e-06,6.30649e-05,5.33917e-05,7.82674e-06,-8.65227e-06
1520,1.37257e-05,-2.00072e-05,5.5662e-05,3.84365e-05,1.95695e-05,-8.5456e-06
1521,1.74214e-05,-3.48043e-05,4.5512e-05,2.46486e-05,3.83007e-05,-1.07907e-05
1522,1.88527e-05,-2.00266e-05,4.57489e-05,2.52997e-05,6.60888e-05,-1.84425e-05
1523,1.48771e-05,-2.02999e-06,5.70746e-05,3.17995e-05,8.873e-05,-2.98152e-05
1524,9.74225e-06,1.03643e-06,6.56176e-05,3.47901e-05,9.8188e-05,-3.23672e-05
1525,8.66186e-06,4.20815e-06,6.60789e-05,3.794e-05,9.25847e-05,-2.47744e-05
1526,1.04857e-05,9.19746e-06,6.26219e-05,4.15127e-05,6.83845e-05,-1.39344e-05
1527,9.73492e-06,1.12658e-05,6.00062e-05,4.3949e-05,3.21289e-05,-7.30452e-06
1528,7.62148e-06,1.74511e-06,5.82885e-05,3.98698e-05,-5.5951e-06,-1.35734e-05
1529,1.08771e-05,-1.91988e-05,5.31969e-05,3.00127e-05,-3.96158e-05,-2.59738e-05
1530,1.84371e-05,-2.75868e-05,4.73539e-05,2.47305e-05,-6.87252e-05,-3.211e-05
1531,1.88742e-05,-1.27333e-05,5.02387e-05,2.79584e-05,-8.71284e-05,-3.3509e-05
1532,8.50671e-06,6.11471e-06,5.73572e-05,3.17331e-05,-8.48002e-05,-3.23554e-05
1533,-1.73606e-06,1.39138e-05,5.99355e-05,3.24674e-05,-6.12496e-05,-2.64344e-05
1534,-3.78223e-06,7.03397e-06,5.65163e-05,2.80897e-05,-3.151e-05,-1.52584e-05
1535,1.45882e-06,-9.44431e-06,4.68034e-05,1.9877e-05,-1.28951e-05,-4.70475e-06
1536,8.24332e-06,-1.76673e-05,3.71174e-05,1.70864e-05,-1.17645e-05,-2.83363e-06
1537,1.0476e-05,-7.18334e-06,3.70531e-05,2.48665e-05,-2.02472e-05,-9.73802e-06
1538,7.55912e-06,8.16918e-06,4.47847e-05,3.60533e-05,-2.12412e-05,-1.77553e-05
1539,4.96288e-06,1.33575e-05,5.1081e-05,4.04415e-05,-6.52412e-06,-2.04911e-05
1540,7.28743e-06,6.86837e-06,5.16134e-05,3.63682e-05,1.17234e-05,-1.69916e-05
1541,1.35425e-05,-8.32533e-06,4.45132e-05,2.8071e-05,1.76082e-05,-1.22133e-05
1542,1.93525e-05,-1.85721e-05,3.35803e-05,2.48146e-05,1.1261e-05,-1.08096e-05
1543,2.1858e-05,-1.22296e-05,3.04654e-05,3.14682e-05,4.25884e-06,-1.29426e-05
1544,2.1535e-05,-7.75294e-07,3.86541e-05,4.15328e-05,6.88813e-06,-1.91055e-05
1545,1.99597e-05,1.79762e-06,4.66892e-05,4.58694e-05,1.77497e-05,-2.32565e-05
1546,1.55931e-05,-5.35355e-06,4.78316e-05,4.38472e-05,2.52529e-05,-1.98028e-05
1547,9.62478e-06,-2.3364e-05,4.2562e-05,3.71297e-05,2.31507e-05,-1.25013e-05
1548,7.96233e-06,-3.42015e-05,3.49227e-05,3.34606e-05,1.69678e-05,-9.70036e-06
1549,8.19369e-06,-1.92249e-05,3.42202e-05,3.52697e-05,8.91465e-06,-1.79448e-05
1550,5.38333e-06,6.78655e-07,4.25294e-05,3.69279e-05,2.20994e-07,-2.56807e-05
