Time_Index,DELTOID_Affected,DELTOID_NonAffected,BICEPS_Affected,BICEPS_NonAffected,FOREARM_Affected,FOREARM_NonAffected
1,3.96121e-06,-1.17068e-05,5.80978e-05,2.64922e-05,1.55211e-05,-3.38504e-05
2,3.69169e-06,-1.38021e-05,6.18006e-05,2.6241e-05,2.52881e-05,-2.94632e-05
3,7.9156e-06,4.65478e-06,5.74532e-05,3.33409e-05,2.67693e-05,-2.04756e-05
4,1.57419e-05,2.00768e-05,4.70032e-05,3.88087e-05,1.92489e-05,-8.15077e-06
5,2.26435e-05,1.80219e-05,3.74314e-05,3.6552e-05,1.19282e-05,5.65089e-06
6,2.20136e-05,2.1364e-06,3.89398e-05,2.76415e-05,9.51981e-06,1.26831e-05
7,1.41484e-05,-1.94708e-05,5.07945e-05,1.43385e-05,1.1087e-05,9.71958e-06
8,7.02507e-06,-2.42043e-05,6.01991e-05,7.8014e-06,1.57543e-05,6.10007e-06
9,4.78681e-06,-4.96032e-06,5.96014e-05,1.4777e-05,2.10695e-05,2.70177e-07
10,5.87297e-06,1.46044e-05,5.03074e-05,2.41844e-05,2.38901e-05,-9.15754e-06
11,7.44787e-06,1.69059e-05,3.97766e-05,2.51859e-05,2.31197e-05,-1.55849e-05
12,7.7683e-06,5.60312e-06,3.87649e-05,2.06418e-05,1.8819e-05,-2.30708e-05
13,6.56781e-06,-2.03746e-05,4.90382e-05,1.41571e-05,1.45763e-05,-2.74805e-05
14,5.05184e-06,-3.29681e-05,5.78217e-05,1.30998e-05,1.51695e-05,-2.0482e-05
15,3.25691e-06,-1.06186e-05,5.7632e-05,2.2665e-05,1.77846e-05,-1.12344e-05
16,3.40519e-06,8.76437e-06,4.81624e-05,2.59685e-05,1.64245e-05,-1.24532e-05
17,7.8286e-06,1.0735e-05,3.39784e-05,2.42231e-05,1.43067e-05,-1.75746e-05
18,9.7758e-06,1.28709e-05,2.93948e-05,2.63743e-05,1.17625e-05,-1.40677e-05
19,3.21439e-06,1.40968e-05,4.1083e-05,2.39521e-05,7.23319e-06,-6.46593e-06
20,-4.68148e-06,1.43766e-05,5.37925e-05,2.64427e-05,1.15721e-05,-5.82033e-06
21,-7.43929e-06,1.46131e-06,5.29472e-05,2.91492e-05,2.38328e-05,-1.36247e-05
22,-2.8597e-06,-2.18261e-05,4.64143e-05,2.93124e-05,3.20455e-05,-2.65295e-05
23,4.98785e-06,-2.28895e-05,4.53044e-05,3.32112e-05,3.71267e-05,-3.63939e-05
24,9.46124e-06,-1.38093e-06,4.34993e-05,4.11739e-05,4.04049e-05,-3.76792e-05
25,9.91373e-06,1.4926e-05,3.39464e-05,4.85648e-05,4.35164e-05,-3.7429e-05
26,1.01445e-05,1.58421e-05,2.47375e-05,5.13691e-05,4.20376e-05,-4.06869e-05
27,9.65484e-06,1.10853e-06,3.12169e-05,4.81882e-05,2.80603e-05,-4.83156e-05
28,7.10538e-06,-2.07805e-05,4.60291e-05,3.95693e-05,1.21001e-05,-5.63959e-05
29,5.20658e-06,-2.78804e-05,5.31758e-05,3.51361e-05,8.71247e-06,-6.14081e-05
30,5.1988e-06,-1.1546e-05,4.90222e-05,4.04139e-05,1.28283e-05,-6.06525e-05
31,9.71523e-06,8.90591e-06,3.83511e-05,4.98477e-05,1.45619e-05,-5.61775e-05
32,1.64397e-05,1.60329e-05,3.05599e-05,5.34506e-05,1.04309e-05,-5.26109e-05
33,1.76086e-05,5.51732e-06,3.40357e-05,5.11422e-05,3.86789e-06,-5.22506e-05
34,1.25445e-05,-1.80117e-05,4.55617e-05,4.27802e-05,3.78702e-06,-5.3047e-05
35,8.5856e-06,-2.89153e-05,5.40828e-05,3.86919e-05,1.25536e-05,-5.1868e-05
36,8.48381e-06,-1.15292e-05,5.39797e-05,4.85284e-05,2.15901e-05,-4.65687e-05
37,1.04273e-05,9.30578e-06,4.49113e-05,6.07052e-05,2.27034e-05,-3.64524e-05
38,1.40529e-05,1.26473e-05,3.46949e-05,6.25276e-05,1.63747e-05,-2.91457e-05
39,1.7752e-05,3.95014e-06,3.63984e-05,5.9562e-05,4.80118e-06,-2.50759e-05
40,1.72858e-05,-1.80207e-05,5.07637e-05,5.49322e-05,-8.72362e-06,-1.80281e-05
41,1.20163e-05,-2.83208e-05,6.19097e-05,5.18745e-05,-1.48945e-05,-1.23887e-05
42,7.07277e-06,-3.03621e-06,6.12021e-05,5.9372e-05,3.68171e-06,-1.05817e-05
43,9.1306e-06,1.70837e-05,4.98672e-05,6.49901e-05,5.44304e-05,-6.89773e-06
44,1.80864e-05,1.56662e-05,3.58241e-05,6.28373e-05,0.000109123,1.59589e-06
45,2.39712e-05,1.22551e-05,3.33286e-05,6.34785e-05,0.000124655,1.50802e-05
46,1.88398e-05,9.54065e-06,4.4241e-05,6.69996e-05,0.000100687,2.44173e-05
47,7.95386e-06,8.26772e-06,5.48846e-05,7.13299e-05,7.03454e-05,2.18597e-05
48,3.4386e-06,-5.84705e-06,5.71653e-05,6.26199e-05,4.49527e-05,3.444e-06
49,7.29487e-06,-2.91249e-05,5.53405e-05,4.39651e-05,7.33892e-06,-1.88485e-05
50,1.17462e-05,-3.41005e-05,5.94567e-05,4.00376e-05,-4.87299e-05,-3.29664e-05
51,1.50822e-05,-1.72978e-05,6.45961e-05,5.00744e-05,-0.000102286,-3.57624e-05
52,1.91586e-05,-1.14684e-06,5.95005e-05,5.61259e-05,-0.000123842,-2.73478e-05
53,2.15186e-05,7.28172e-06,4.86949e-05,5.31498e-05,-0.00010546,-1.94987e-05
54,1.98551e-05,-3.34883e-07,4.91042e-05,4.13719e-05,-7.19113e-05,-2.32459e-05
55,1.77738e-05,-1.9457e-05,5.96009e-05,2.53733e-05,-4.03812e-05,-3.32924e-05
56,1.70628e-05,-2.49325e-05,6.5706e-05,1.87189e-05,-1.0124e-05,-3.51457e-05
57,1.7147e-05,-9.06597e-06,6.24331e-05,2.57627e-05,1.59589e-05,-3.25876e-05
58,1.80479e-05,4.04941e-06,5.16074e-05,3.39418e-05,3.2613e-05,-3.731e-05
59,1.82841e-05,-3.59259e-07,4.23793e-05,3.37736e-05,3.8655e-05,-5.09693e-05
60,1.5414e-05,-1.45614e-05,4.58807e-05,2.58384e-05,3.88615e-05,-6.10021e-05
61,1.01155e-05,-3.1557e-05,6.05014e-05,1.3154e-05,4.06744e-05,-6.14228e-05
62,7.48507e-06,-3.42546e-05,7.34868e-05,1.0456e-05,4.75101e-05,-5.73294e-05
63,8.95055e-06,-1.537e-05,7.69801e-05,2.37208e-05,5.30748e-05,-5.22811e-05
64,1.18231e-05,4.61148e-06,6.8901e-05,3.72512e-05,4.69826e-05,-4.60572e-05
65,1.36404e-05,7.52951e-06,5.56423e-05,3.67125e-05,2.76091e-05,-3.78571e-05
66,1.4042e-05,-5.6726e-06,4.96886e-05,2.95005e-05,6.08662e-06,-2.97003e-05
67,1.28167e-05,-3.42594e-05,5.62e-05,2.22063e-05,-2.38869e-06,-2.21178e-05
68,1.12003e-05,-4.65916e-05,6.61847e-05,1.84556e-05,4.32164e-06,-1.30474e-05
69,1.14158e-05,-2.08028e-05,7.03685e-05,2.45354e-05,8.47133e-06,-5.94025e-06
70,1.51713e-05,6.05069e-07,6.48619e-05,3.1526e-05,-1.20287e-06,-4.84508e-06
71,1.89127e-05,6.82595e-06,5.45505e-05,3.50081e-05,-1.65389e-05,-1.29966e-06
72,1.81061e-05,1.34683e-05,5.28944e-05,3.68304e-05,-2.81658e-05,1.27931e-05
73,1.26537e-05,1.55209e-05,6.03415e-05,3.52579e-05,-3.03935e-05,2.78399e-05
74,5.17031e-06,1.79166e-05,6.36024e-05,3.16354e-05,-1.1311e-05,2.64857e-05
75,3.29769e-06,3.88864e-06,6.17528e-05,2.59372e-05,2.00358e-05,1.60721e-05
76,7.63948e-06,-2.30715e-05,6.18977e-05,2.19225e-05,3.36573e-05,1.28316e-05
77,1.02231e-05,-2.6829e-05,6.74041e-05,2.45543e-05,2.85936e-05,1.46439e-05
78,1.09952e-05,-4.52214e-06,7.12064e-05,2.88427e-05,2.25743e-05,1.42757e-05
79,1.49253e-05,1.34769e-05,6.29358e-05,2.83941e-05,2.29915e-05,6.02544e-06
80,2.14289e-05,1.54481e-05,5.05618e-05,2.48743e-05,2.45803e-05,-2.10798e-06
81,2.28896e-05,4.7408e-08,5.07005e-05,1.97433e-05,2.10828e-05,-2.78412e-06
82,1.80395e-05,-2.01832e-05,6.12319e-05,1.61756e-05,1.69794e-05,-2.54457e-06
83,1.47135e-05,-2.17941e-05,6.7564e-05,1.81067e-05,1.95239e-05,-3.59597e-06
84,1.58883e-05,-2.12465e-06,6.17998e-05,2.4404e-05,2.43327e-05,-5.59357e-06
85,1.94392e-05,1.33074e-05,4.67159e-05,2.8751e-05,2.39137e-05,-9.12007e-06
86,2.11008e-05,1.09796e-05,3.54273e-05,3.10312e-05,1.65052e-05,-1.45182e-05
87,1.66285e-05,-2.27367e-06,3.95689e-05,2.90404e-05,5.78436e-06,-1.88841e-05
88,9.28922e-06,-2.20869e-05,5.38325e-05,2.01256e-05,-7.45763e-07,-1.40639e-05
89,5.33016e-06,-3.07328e-05,6.34974e-05,1.39075e-05,1.8688e-06,-6.05805e-07
90,5.98316e-06,-1.50515e-05,6.31536e-05,2.04793e-05,1.0638e-05,1.1118e-05
91,1.00683e-05,5.13456e-06,5.58417e-05,3.28062e-05,1.91937e-05,1.34954e-05
92,1.40818e-05,7.16629e-06,4.78033e-05,3.60849e-05,2.37734e-05,7.93525e-06
93,1.28965e-05,-6.45067e-06,4.85011e-05,2.80153e-05,2.02072e-05,7.07016e-06
94,7.02312e-06,-3.36348e-05,5.89801e-05,1.33665e-05,1.01165e-05,1.3643e-05
95,2.8501e-06,-4.427e-05,6.63712e-05,9.37006e-06,5.1493e-06,1.66508e-05
96,3.55124e-06,-1.78682e-05,6.44599e-05,2.19684e-05,1.00763e-05,1.35004e-05
97,6.80478e-06,1.05103e-06,5.47188e-05,2.69433e-05,1.57849e-05,9.00976e-06
98,1.03469e-05,2.14503e-06,4.1695e-05,2.22781e-05,1.69945e-05,6.49064e-06
99,1.08226e-05,6.80326e-06,3.80955e-05,2.53332e-05,1.24367e-05,9.49996e-06
100,7.98601e-06,7.34185e-06,4.8695e-05,3.07787e-05,5.99499e-06,1.64253e-05
101,8.125e-06,7.07251e-06,6.0722e-05,3.23226e-05,1.13481e-05,2.33643e-05
102,1.0776e-05,-6.13942e-06,6.14689e-05,2.59632e-05,2.35914e-05,1.97532e-05
103,1.18922e-05,-2.96e-05,5.59533e-05,1.7195e-05,2.45915e-05,1.19629e-05
104,1.19017e-05,-3.36033e-05,5.73152e-05,2.07105e-05,1.86879e-05,1.12782e-05
105,1.44578e-05,-1.46667e-05,6.16766e-05,3.53044e-05,1.70522e-05,1.11672e-05
106,2.04139e-05,4.31524e-06,5.54118e-05,4.71274e-05,1.92983e-05,7.70879e-06
107,2.36038e-05,1.19576e-05,4.34246e-05,4.91572e-05,1.93851e-05,1.66362e-06
108,1.95364e-05,2.01234e-06,4.3039e-05,4.34348e-05,1.78163e-05,-1.88004e-06
109,1.33353e-05,-1.88047e-05,5.26126e-05,3.58438e-05,2.06569e-05,-1.88166e-06
110,1.04074e-05,-2.5884e-05,6.0644e-05,3.75744e-05,2.71344e-05,-1.05227e-06
111,1.01214e-05,-1.15556e-05,6.20232e-05,5.02946e-05,3.04137e-05,-3.5681e-06
112,1.22197e-05,4.51018e-06,5.41214e-05,5.95394e-05,2.87586e-05,-8.51217e-06
113,1.6285e-05,6.86328e-06,4.29323e-05,5.69208e-05,2.22903e-05,-1.54623e-05
114,1.8223e-05,-6.04355e-06,4.22074e-05,4.64916e-05,1.19391e-05,-1.90636e-05
115,1.60129e-05,-2.6815e-05,5.28293e-05,3.71326e-05,5.94157e-06,-1.57427e-05
116,1.21128e-05,-2.85301e-05,6.2238e-05,3.78053e-05,8.981e-06,-8.98268e-06
117,9.81302e-06,-4.74709e-06,6.27973e-05,4.73169e-05,1.15437e-05,5.26029e-07
118,1.16289e-05,1.29657e-05,5.56789e-05,5.41977e-05,6.01187e-06,9.17716e-06
119,1.54595e-05,7.12441e-06,4.66126e-05,5.42897e-05,2.86745e-06,1.12382e-05
120,1.54673e-05,-7.52648e-06,4.45132e-05,4.79242e-05,1.03645e-05,8.57936e-06
121,1.16147e-05,-3.02536e-05,5.27927e-05,3.67016e-05,2.10304e-05,-2.34916e-06
122,1.05041e-05,-4.30255e-05,6.33974e-05,3.29482e-05,2.78939e-05,-1.12343e-05
123,1.30274e-05,-2.32684e-05,6.8023e-05,4.30076e-05,2.99367e-05,-8.50721e-06
124,1.52344e-05,-4.59776e-06,6.19877e-05,4.72969e-05,2.66252e-05,-6.06413e-06
125,1.79548e-05,-1.37606e-06,5.00164e-05,4.1613e-05,2.1364e-05,-7.69194e-06
126,2.04955e-05,2.37779e-06,4.73769e-05,4.01795e-05,1.52531e-05,-8.05884e-06
127,1.88695e-05,2.56238e-06,5.77286e-05,3.46939e-05,1.33501e-05,-1.31658e-07
128,1.41317e-05,2.72447e-06,6.52488e-05,2.79083e-05,2.32356e-05,1.16092e-05
129,1.05037e-05,-9.16337e-06,5.78863e-05,2.08319e-05,3.32518e-05,2.32549e-05
130,9.7937e-06,-3.17393e-05,4.50651e-05,1.33962e-05,3.07401e-05,2.65281e-05
131,1.00238e-05,-3.3705e-05,4.26405e-05,1.5459e-05,1.96255e-05,1.70397e-05
132,1.03938e-05,-9.6352e-06,4.49124e-05,2.74325e-05,6.8474e-06,5.69507e-06
133,1.32287e-05,8.94244e-06,4.01602e-05,3.94779e-05,-2.68125e-06,3.02262e-06
134,1.89206e-05,9.01547e-06,3.43122e-05,4.54764e-05,-1.34956e-05,6.13416e-06
135,1.9534e-05,-8.97622e-06,3.97871e-05,4.50432e-05,-2.85593e-05,6.53431e-06
136,1.30153e-05,-3.11201e-05,5.19915e-05,4.03478e-05,-3.24887e-05,2.62993e-06
137,5.74244e-06,-3.1955e-05,6.01186e-05,4.21586e-05,-1.83529e-05,3.7499e-06
138,3.9044e-06,-1.25602e-05,6.00148e-05,5.22439e-05,-5.29305e-06,1.30985e-05
139,8.58983e-06,1.27771e-06,5.00413e-05,6.04613e-05,-4.93114e-06,2.15263e-05
140,1.29887e-05,-8.60454e-07,3.78537e-05,5.90542e-05,-1.25245e-05,2.43669e-05
141,1.28085e-05,-1.47226e-05,3.79164e-05,4.98491e-05,-2.0446e-05,2.56285e-05
142,1.13995e-05,-3.64206e-05,4.96927e-05,3.95588e-05,-2.03809e-05,2.57914e-05
143,1.1315e-05,-4.19643e-05,5.92644e-05,3.81306e-05,-8.15554e-06,2.1164e-05
144,1.05423e-05,-2.00187e-05,6.0228e-05,4.85748e-05,1.1393e-05,1.74489e-05
145,9.70733e-06,4.19111e-06,5.44896e-05,5.95252e-05,2.95897e-05,1.99603e-05
146,9.75773e-06,7.42169e-06,4.76984e-05,5.98771e-05,3.82732e-05,2.49349e-05
147,8.99707e-06,-4.64701e-06,4.79808e-05,5.44959e-05,2.8154e-05,2.29676e-05
148,7.1585e-06,-2.85691e-05,5.70163e-05,4.57852e-05,3.29523e-06,1.30977e-05
149,7.83127e-06,-3.36664e-05,6.62594e-05,4.08894e-05,-1.51249e-05,3.89124e-06
150,1.08815e-05,-3.13696e-06,7.02076e-05,4.60153e-05,-1.65325e-05,-4.1941e-06
151,1.45595e-05,1.40074e-05,6.77091e-05,4.56715e-05,-1.03765e-05,-1.59238e-05
152,1.96042e-05,1.04206e-05,6.13015e-05,4.06973e-05,-5.16114e-06,-2.48062e-05
153,2.1979e-05,1.50255e-05,5.99369e-05,4.35434e-05,-4.0807e-06,-2.41523e-05
154,1.89647e-05,2.17002e-05,6.60275e-05,4.83755e-05,-1.51498e-06,-1.93436e-05
155,1.60649e-05,2.3484e-05,6.95089e-05,5.00068e-05,1.08339e-05,-1.70621e-05
156,1.54412e-05,7.82519e-06,6.57914e-05,4.421e-05,2.28676e-05,-1.96008e-05
157,1.4798e-05,-1.93462e-05,6.13298e-05,3.35782e-05,2.53409e-05,-2.30904e-05
158,1.3048e-05,-2.30824e-05,6.1923e-05,3.16841e-05,2.64846e-05,-1.88712e-05
159,1.24433e-05,9.27966e-07,6.15199e-05,3.68925e-05,2.83165e-05,-1.3434e-05
160,1.61458e-05,1.75986e-05,5.22814e-05,4.00293e-05,2.67179e-05,-1.45131e-05
161,2.12419e-05,1.50117e-05,4.00908e-05,4.09874e-05,1.86611e-05,-2.08227e-05
162,2.27125e-05,-1.98263e-06,3.90008e-05,4.11584e-05,7.69109e-06,-2.24786e-05
163,2.14381e-05,-2.33588e-05,4.7514e-05,4.22793e-05,6.61414e-06,-1.56372e-05
164,1.94487e-05,-2.84002e-05,5.3267e-05,4.7115e-05,1.85059e-05,-1.23767e-05
165,1.73064e-05,-1.0729e-05,5.08465e-05,5.25346e-05,2.91363e-05,-1.85462e-05
166,1.80312e-05,7.98234e-06,4.10632e-05,5.50875e-05,3.00539e-05,-2.56319e-05
167,2.19185e-05,1.03218e-05,3.12107e-05,5.64273e-05,2.36839e-05,-2.49434e-05
168,2.32979e-05,-2.78868e-06,3.3495e-05,5.08017e-05,1.62552e-05,-2.01611e-05
169,1.89031e-05,-2.45078e-05,4.72202e-05,3.30665e-05,1.59521e-05,-1.78329e-05
170,1.18052e-05,-2.98043e-05,5.55595e-05,1.99655e-05,2.48479e-05,-2.12324e-05
171,6.37657e-06,-7.4573e-06,4.77281e-05,2.43142e-05,3.29896e-05,-2.8949e-05
172,4.76027e-06,1.59402e-05,2.96026e-05,3.31713e-05,3.09574e-05,-3.86412e-05
173,5.78749e-06,1.86985e-05,1.667e-05,3.513e-05,2.22359e-05,-4.78699e-05
174,6.54894e-06,5.53603e-06,2.05516e-05,3.0266e-05,1.27441e-05,-5.4233e-05
175,6.10143e-06,-2.34436e-05,3.5587e-05,1.93931e-05,8.45693e-06,-5.51554e-05
176,7.40982e-06,-3.64779e-05,4.59418e-05,1.51187e-05,1.52858e-05,-5.17655e-05
177,1.02764e-05,-8.68153e-06,4.90928e-05,2.80393e-05,2.83109e-05,-5.20115e-05
178,1.08943e-05,1.17073e-05,4.6715e-05,3.75293e-05,3.41447e-05,-5.61891e-05
179,9.98162e-06,1.11806e-05,3.87143e-05,3.17085e-05,3.00295e-05,-4.94981e-05
180,9.82781e-06,1.28608e-05,3.67149e-05,2.45257e-05,2.2668e-05,-3.29623e-05
181,1.08382e-05,1.59885e-05,4.64009e-05,2.13224e-05,1.92556e-05,-2.53901e-05
182,1.36976e-05,1.56947e-05,5.46882e-05,2.12117e-05,2.36638e-05,-3.38974e-05
183,1.56393e-05,-1.34879e-06,5.35771e-05,1.86847e-05,2.98324e-05,-4.28245e-05
184,1.41461e-05,-2.43994e-05,4.98735e-05,1.41851e-05,3.28887e-05,-3.95987e-05
185,9.42169e-06,-2.56712e-05,5.13012e-05,1.99734e-05,3.7328e-05,-3.19732e-05
186,5.40099e-06,-2.82731e-06,5.16933e-05,3.29448e-05,4.04725e-05,-2.59231e-05
187,6.32704e-06,1.15195e-05,4.3136e-05,3.83678e-05,3.87983e-05,-2.26265e-05
188,7.426e-06,9.99364e-06,3.40144e-05,3.73633e-05,3.17316e-05,-2.0974e-05
189,2.98944e-06,-5.68916e-06,3.81429e-05,3.21534e-05,2.20081e-05,-2.05635e-05
190,-2.90884e-06,-2.62362e-05,4.84003e-05,2.78028e-05,1.92848e-05,-1.98049e-05
191,-3.58831e-06,-3.07587e-05,5.18813e-05,3.10566e-05,2.63217e-05,-1.85886e-05
192,8.54077e-07,-1.31305e-05,4.79972e-05,4.16551e-05,3.42638e-05,-2.04652e-05
193,7.54528e-06,5.39612e-06,4.03594e-05,5.10337e-05,3.62425e-05,-2.30111e-05
194,1.23568e-05,6.08439e-06,3.49192e-05,5.42468e-05,3.41766e-05,-2.74307e-05
195,1.14984e-05,-7.62557e-06,3.93991e-05,4.667e-05,3.92294e-05,-3.78738e-05
196,6.88382e-06,-2.56468e-05,5.01354e-05,2.74601e-05,6.33546e-05,-4.75887e-05
197,3.7037e-06,-3.04509e-05,5.65155e-05,1.6215e-05,9.99745e-05,-4.77319e-05
198,4.9312e-06,-1.61727e-05,5.57816e-05,2.694e-05,0.000123822,-4.28444e-05
199,1.01694e-05,2.44528e-06,4.82509e-05,4.40386e-05,0.000117182,-3.81819e-05
200,1.62565e-05,9.02442e-06,3.82574e-05,4.70445e-05,8.43795e-05,-3.6905e-05
201,1.84063e-05,3.71585e-06,3.57941e-05,3.97183e-05,3.85051e-05,-3.68758e-05
202,1.60647e-05,-2.12573e-05,4.50394e-05,2.81528e-05,-6.2892e-06,-3.62634e-05
203,1.46144e-05,-3.70397e-05,5.68776e-05,2.13981e-05,-3.94529e-05,-3.58311e-05
204,1.68534e-05,-1.50747e-05,6.09182e-05,2.78456e-05,-6.25895e-05,-3.26805e-05
205,2.02911e-05,5.97093e-06,5.21798e-05,3.31264e-05,-7.59154e-05,-3.13479e-05
206,2.0183e-05,9.32173e-06,3.73431e-05,3.06805e-05,-6.95176e-05,-3.25601e-05
207,1.32374e-05,9.36668e-06,3.15533e-05,3.23724e-05,-4.72822e-05,-3.35794e-05
208,3.57636e-06,5.23344e-06,3.9257e-05,3.92622e-05,-2.31852e-05,-3.3212e-05
209,-2.08985e-07,3.95246e-06,4.80205e-05,4.64158e-05,-3.404e-06,-3.20136e-05
210,4.06988e-06,-1.0794e-05,5.05433e-05,4.03558e-05,7.52986e-06,-2.91597e-05
211,1.11875e-05,-3.72784e-05,5.41919e-05,2.38521e-05,8.95827e-06,-2.04191e-05
212,1.45944e-05,-4.34628e-05,5.91842e-05,1.83481e-05,9.38446e-06,-8.03182e-06
213,1.42753e-05,-2.45293e-05,5.59692e-05,3.02142e-05,1.56294e-05,-1.75014e-06
214,1.38714e-05,-8.19801e-06,4.53733e-05,4.00496e-05,2.60165e-05,2.31674e-06
215,1.19746e-05,-6.75768e-06,3.79853e-05,4.00255e-05,2.41596e-05,1.19883e-05
216,9.2055e-06,-2.08976e-05,4.26512e-05,3.598e-05,5.64666e-06,2.34733e-05
217,7.7868e-06,-3.85519e-05,5.33783e-05,3.12101e-05,-7.30881e-06,2.88668e-05
218,8.94563e-06,-4.0212e-05,5.9823e-05,3.16512e-05,-1.16523e-06,2.99535e-05
219,1.06447e-05,-2.38169e-05,5.65047e-05,3.75462e-05,1.2246e-05,3.25914e-05
220,8.88541e-06,-7.65362e-06,4.28128e-05,4.32179e-05,1.98348e-05,3.39531e-05
221,3.75143e-06,-6.36113e-06,2.93787e-05,4.55599e-05,1.99844e-05,2.99786e-05
222,-1.43186e-06,-1.86786e-05,3.01845e-05,4.39266e-05,1.47526e-05,2.5456e-05
223,-4.33336e-06,-3.80806e-05,4.38723e-05,3.64232e-05,8.70974e-06,2.90553e-05
224,-4.86262e-06,-3.91766e-05,5.68769e-05,3.40073e-05,7.26802e-06,3.72202e-05
225,-2.29899e-06,-1.41637e-05,5.8509e-05,4.31275e-05,1.3125e-05,3.74739e-05
226,3.86079e-06,8.36085e-06,4.68323e-05,5.35535e-05,2.14272e-05,2.74421e-05
227,1.0914e-05,8.86658e-06,3.33472e-05,5.56845e-05,2.1438e-05,2.18025e-05
228,1.14475e-05,-6.84101e-06,3.3327e-05,5.06006e-05,8.15299e-06,3.06585e-05
229,4.6202e-06,-3.79913e-05,4.61595e-05,3.93525e-05,-5.59031e-06,4.50385e-05
230,-8.32089e-07,-5.19606e-05,5.72018e-05,3.50121e-05,-6.09759e-06,4.48379e-05
231,1.03776e-06,-3.0815e-05,5.72419e-05,4.44226e-05,2.84426e-06,3.05785e-05
232,8.37083e-06,-1.92857e-05,4.51982e-05,4.88501e-05,1.3126e-05,2.0317e-05
233,1.60157e-05,-2.58209e-05,3.13789e-05,4.4792e-05,2.1559e-05,1.81653e-05
234,1.88026e-05,-2.69923e-05,3.10891e-05,4.29755e-05,2.23135e-05,2.13297e-05
235,1.61647e-05,-2.37153e-05,4.36712e-05,4.55729e-05,1.74233e-05,2.27917e-05
236,1.21512e-05,-2.02921e-05,5.42432e-05,4.68083e-05,2.04788e-05,1.55666e-05
237,1.07113e-05,-3.39763e-05,5.87879e-05,3.91286e-05,2.68676e-05,5.50497e-07
238,1.20664e-05,-5.67533e-05,6.1018e-05,2.85869e-05,2.01503e-05,-1.30005e-05
239,1.25617e-05,-5.49359e-05,6.2981e-05,2.80733e-05,6.61447e-06,-1.40062e-05
240,1.22694e-05,-2.77562e-05,6.2993e-05,3.66656e-05,5.85841e-06,-9.28887e-06
241,1.46806e-05,-4.46173e-06,5.52323e-05,3.94426e-05,1.99532e-05,-4.43879e-06
242,1.81829e-05,4.80773e-06,4.6679e-05,3.62411e-05,2.55331e-05,-1.34673e-07
243,1.77843e-05,-5.54506e-06,5.13009e-05,3.30927e-05,6.80266e-06,6.32878e-06
244,1.51556e-05,-2.73573e-05,6.21775e-05,3.19488e-05,-1.88718e-05,9.10718e-06
245,1.46549e-05,-3.04347e-05,6.54762e-05,3.5027e-05,-2.37348e-05,5.04926e-06
246,1.75445e-05,-7.53526e-06,5.88607e-05,4.1876e-05,-8.49775e-06,-9.24415e-07
247,2.24248e-05,1.00786e-05,4.42116e-05,4.71633e-05,6.41761e-06,-7.20967e-06
248,2.43385e-05,5.90445e-06,3.00935e-05,4.58271e-05,8.52323e-06,-1.09195e-05
249,2.09898e-05,-8.30146e-06,3.15029e-05,3.67726e-05,1.25483e-06,-1.25565e-05
250,1.55981e-05,-2.30992e-05,4.68781e-05,2.38383e-05,-2.11942e-06,-1.75864e-05
251,1.18957e-05,-2.1708e-05,5.84406e-05,2.03389e-05,5.22241e-06,-2.94551e-05
252,1.17083e-05,5.7925e-06,5.78489e-05,3.13741e-05,1.57164e-05,-4.64963e-05
253,1.58246e-05,3.54423e-05,4.85779e-05,4.16866e-05,1.86166e-05,-6.36751e-05
254,2.08235e-05,4.64049e-05,3.6626e-05,4.19475e-05,1.28122e-05,-7.40384e-05
255,1.99449e-05,4.69379e-05,3.23162e-05,3.7127e-05,2.04389e-06,-7.80395e-05
256,1.40661e-05,3.28987e-05,4.10399e-05,2.57597e-05,-6.84124e-06,-7.01163e-05
257,1.15826e-05,2.47963e-05,5.12933e-05,2.2535e-05,-4.89393e-06,-6.40796e-05
258,1.43189e-05,4.29597e-05,5.10732e-05,3.7833e-05,8.67704e-06,-7.35013e-05
259,1.75918e-05,5.66051e-05,3.95305e-05,4.82205e-05,2.15023e-05,-8.08106e-05
260,1.9629e-05,5.15782e-05,2.52579e-05,4.7336e-05,2.51429e-05,-7.95402e-05
261,1.9952e-05,4.52994e-05,2.19864e-05,4.88166e-05,1.56145e-05,-7.54181e-05
262,1.75545e-05,4.04318e-05,3.21916e-05,5.22442e-05,-3.99385e-06,-6.45135e-05
263,1.4345e-05,3.50565e-05,4.11146e-05,5.11193e-05,-1.56498e-05,-4.81005e-05
264,1.24159e-05,1.8699e-05,3.8973e-05,4.44116e-05,-1.15181e-05,-3.1994e-05
265,1.15971e-05,-6.3142e-06,3.26587e-05,3.7257e-05,-2.45251e-06,-2.03515e-05
266,1.18956e-05,-1.24358e-05,3.1356e-05,3.8447e-05,2.38885e-06,-1.5605e-05
267,1.11929e-05,2.75503e-06,3.15077e-05,4.89342e-05,2.67706e-06,-1.96421e-05
268,1.04503e-05,1.32893e-05,2.92878e-05,5.43035e-05,2.53042e-06,-2.5056e-05
269,1.18124e-05,1.27884e-05,2.9043e-05,5.06831e-05,1.32693e-06,-2.14372e-05
270,1.03017e-05,-7.63999e-07,3.77019e-05,3.89409e-05,-1.92137e-06,-1.18421e-05
271,6.04734e-06,-2.12782e-05,5.10764e-05,2.59719e-05,-1.87406e-06,-5.62339e-06
272,4.82691e-06,-2.85862e-05,6.03928e-05,2.28216e-05,3.2414e-06,-1.39091e-07
273,7.65917e-06,-1.50757e-05,6.03955e-05,3.26261e-05,1.05097e-05,8.08627e-06
274,1.22841e-05,-5.88753e-07,5.05809e-05,4.24936e-05,1.75985e-05,1.63334e-05
275,1.43035e-05,7.83697e-07,4.2575e-05,4.40612e-05,1.904e-05,2.19346e-05
276,1.0381e-05,-1.1349e-05,4.75937e-05,3.9375e-05,1.22852e-05,2.28349e-05
277,3.77503e-06,-3.1835e-05,5.85405e-05,3.04834e-05,8.21282e-06,2.01362e-05
278,9.81395e-07,-3.72004e-05,6.27223e-05,2.84479e-05,1.5089e-05,1.82699e-05
279,3.43281e-06,-1.77149e-05,5.93689e-05,3.76951e-05,2.40037e-05,2.02656e-05
280,7.81874e-06,3.06478e-06,5.19794e-05,4.70419e-05,2.42689e-05,1.8629e-05
281,1.04548e-05,6.54579e-06,4.43093e-05,4.91534e-05,1.8455e-05,1.40206e-05
282,9.79186e-06,-2.0613e-06,4.46805e-05,4.65831e-05,1.64864e-05,1.7932e-05
283,7.68135e-06,-2.70076e-05,5.6567e-05,3.80388e-05,2.99677e-05,3.17604e-05
284,5.8587e-06,-4.00969e-05,6.7777e-05,3.14832e-05,6.73908e-05,4.22955e-05
285,3.18188e-06,-1.72436e-05,6.91522e-05,3.27353e-05,0.000118261,4.38307e-05
286,2.4286e-06,-1.02932e-06,6.14344e-05,3.24961e-05,0.000152408,4.37823e-05
287,6.32073e-06,-5.69695e-06,5.13828e-05,3.0785e-05,0.000148143,4.46693e-05
288,8.6482e-06,-8.80668e-06,4.9617e-05,3.78703e-05,0.000110105,3.4591e-05
289,7.23202e-06,-7.05929e-06,5.631e-05,4.72497e-05,6.0507e-05,2.18792e-05
290,6.733e-06,-4.9977e-06,6.01203e-05,5.11676e-05,1.08271e-05,2.05421e-05
291,7.05579e-06,-1.77052e-05,5.70542e-05,4.35704e-05,-3.6687e-05,2.27671e-05
292,7.68675e-06,-3.82006e-05,5.47225e-05,3.09682e-05,-6.69646e-05,2.47573e-05
293,1.02235e-05,-3.99417e-05,5.81973e-05,3.1431e-05,-7.03726e-05,2.9045e-05
294,1.4315e-05,-1.97684e-05,5.9959e-05,4.08571e-05,-6.34638e-05,2.83379e-05
295,1.85262e-05,-3.1426e-06,5.29388e-05,4.10984e-05,-6.73252e-05,2.19537e-05
296,2.27099e-05,1.14584e-07,4.60295e-05,3.39476e-05,-8.04439e-05,2.52279e-05
297,2.43659e-05,-1.19028e-05,5.13721e-05,2.89846e-05,-8.36026e-05,3.07488e-05
298,2.08768e-05,-2.902e-05,6.26841e-05,2.68678e-05,-6.28923e-05,2.45199e-05
299,1.49894e-05,-3.03508e-05,6.97896e-05,2.73507e-05,-2.82271e-05,1.09676e-05
300,1.06532e-05,-1.16308e-05,6.93061e-05,3.4357e-05,1.48134e-06,-8.05237e-07
301,1.13067e-05,4.82009e-06,5.88732e-05,4.34544e-05,1.93129e-05,-5.47769e-06
302,1.49966e-05,3.27977e-06,4.49496e-05,4.69127e-05,2.50524e-05,2.28791e-07
303,1.64804e-05,-1.18026e-05,4.22296e-05,4.25429e-05,1.9212e-05,1.19078e-05
304,1.44638e-05,-3.07235e-05,5.21347e-05,3.30363e-05,1.28873e-05,1.50722e-05
305,1.12327e-05,-3.31956e-05,6.08131e-05,3.10189e-05,1.82689e-05,9.98386e-06
306,1.0893e-05,-1.2499e-05,6.00443e-05,4.15228e-05,2.93309e-05,1.19909e-05
307,1.48511e-05,7.72435e-06,5.13065e-05,4.97053e-05,3.24794e-05,2.28851e-05
308,1.80439e-05,8.49287e-06,4.19106e-05,5.05437e-05,2.51e-05,2.97741e-05
309,1.61721e-05,-4.83587e-06,4.28039e-05,5.05362e-05,1.25419e-05,2.93579e-05
310,1.11062e-05,-2.96866e-05,5.49843e-05,4.37789e-05,1.5689e-06,2.19818e-05
311,5.72714e-06,-3.76211e-05,6.64678e-05,3.99289e-05,1.78692e-07,8.57483e-06
312,2.95782e-06,-1.26641e-05,6.92609e-05,4.83341e-05,7.67825e-06,-1.83702e-06
313,4.58385e-06,1.64763e-06,6.19882e-05,5.23143e-05,1.56296e-05,-1.00828e-05
314,8.06276e-06,1.91791e-06,5.00698e-05,4.49864e-05,1.92239e-05,-1.79691e-05
315,9.00075e-06,1.05184e-05,4.74796e-05,4.02493e-05,1.68415e-05,-2.0093e-05
316,6.09439e-06,1.44807e-05,5.95626e-05,3.97423e-05,6.65347e-06,-2.27098e-05
317,1.72911e-06,1.14445e-05,7.2804e-05,3.78867e-05,-2.92488e-06,-2.82566e-05
318,-1.04024e-06,-4.97278e-06,7.61068e-05,2.8947e-05,2.00924e-06,-2.75541e-05
319,-1.3262e-06,-2.42635e-05,7.15919e-05,2.09196e-05,2.05912e-05,-1.82592e-05
320,-4.09402e-07,-2.22772e-05,6.85219e-05,2.0554e-05,4.05822e-05,-1.04154e-05
321,-1.64218e-07,2.19708e-06,6.89158e-05,2.3539e-05,4.70857e-05,-9.22924e-06
322,2.91078e-06,2.11501e-05,6.46246e-05,2.71944e-05,3.45545e-05,-1.04688e-05
323,1.10097e-05,2.35997e-05,5.70445e-05,2.8887e-05,1.36563e-05,-1.03511e-05
324,1.58198e-05,9.25714e-06,5.79003e-05,2.52138e-05,-3.83382e-06,-7.83052e-06
325,1.38834e-05,-1.23393e-05,6.54906e-05,1.73126e-05,-1.12365e-05,-4.39623e-06
326,1.02639e-05,-1.95289e-05,7.21418e-05,1.79508e-05,-1.1226e-05,-3.30141e-06
327,9.85136e-06,-6.20708e-06,7.28487e-05,2.87153e-05,-8.0878e-06,-7.73793e-06
328,1.41388e-05,9.24763e-06,6.51985e-05,3.87211e-05,-1.82431e-06,-1.46805e-05
329,1.96462e-05,9.31807e-06,5.63106e-05,4.26573e-05,2.57352e-06,-1.91442e-05
330,2.10734e-05,-7.08604e-06,5.82034e-05,4.04715e-05,-8.89617e-07,-2.17117e-05
331,1.73544e-05,-3.24875e-05,7.05608e-05,3.27473e-05,-5.33883e-06,-2.69773e-05
332,1.17521e-05,-4.01345e-05,8.00463e-05,3.01981e-05,-8.40973e-08,-3.5571e-05
333,9.17378e-06,-1.83065e-05,7.79945e-05,3.86209e-05,1.08694e-05,-4.22899e-05
334,1.21941e-05,6.64743e-06,6.62277e-05,4.56655e-05,1.67783e-05,-4.11793e-05
335,1.83563e-05,9.71612e-06,5.55669e-05,4.0518e-05,1.33936e-05,-3.46242e-05
336,2.17296e-05,-4.1317e-06,5.61744e-05,3.27485e-05,3.86903e-06,-2.9811e-05
337,2.02039e-05,-3.17321e-05,6.39826e-05,2.85855e-05,-2.41929e-06,-2.81222e-05
338,1.79307e-05,-4.27194e-05,6.66175e-05,3.04682e-05,2.21247e-06,-2.3651e-05
339,1.82927e-05,-1.49228e-05,6.20493e-05,4.28866e-05,1.24634e-05,-1.91846e-05
340,2.19029e-05,3.44752e-06,5.39457e-05,4.76492e-05,1.93266e-05,-1.88639e-05
341,2.58293e-05,-1.12729e-06,4.43786e-05,4.24623e-05,2.0345e-05,-1.10511e-05
342,2.49011e-05,5.96701e-07,3.99919e-05,3.90152e-05,1.61969e-05,-6.10777e-06
343,1.86161e-05,6.56696e-06,4.67484e-05,3.83563e-05,9.80978e-06,-1.16382e-05
344,1.43686e-05,8.22235e-06,5.66234e-05,4.11562e-05,8.76222e-06,-1.91167e-05
345,1.57816e-05,-1.04132e-05,5.7996e-05,4.05448e-05,1.3149e-05,-2.48827e-05
346,1.68066e-05,-3.44379e-05,5.38913e-05,3.56711e-05,1.79528e-05,-2.17961e-05
347,1.27045e-05,-3.41798e-05,5.37814e-05,3.41292e-05,2.49835e-05,-1.4707e-05
348,8.48857e-06,-1.14135e-05,5.37059e-05,3.8699e-05,3.58705e-05,-1.18648e-05
349,9.59778e-06,1.86268e-06,4.77481e-05,4.23725e-05,4.33818e-05,-1.85602e-05
350,1.50043e-05,-3.63263e-06,4.15631e-05,3.92919e-05,3.40414e-05,-2.6833e-05
351,1.72636e-05,-2.67491e-05,4.64563e-05,3.06557e-05,1.12177e-05,-2.984e-05
352,1.35589e-05,-5.36325e-05,5.58063e-05,2.20941e-05,-7.06516e-07,-2.36919e-05
353,9.37243e-06,-5.65283e-05,5.77187e-05,2.22886e-05,8.21684e-06,-1.58473e-05
354,8.17257e-06,-3.44339e-05,5.09605e-05,3.30182e-05,2.40424e-05,-1.34134e-05
355,1.00287e-05,-1.41199e-05,3.962e-05,4.20797e-05,3.53755e-05,-1.37823e-05
356,1.09702e-05,-1.15389e-05,3.28034e-05,4.21085e-05,4.2526e-05,-1.36881e-05
357,7.66824e-06,-2.4107e-05,3.82028e-05,3.50926e-05,4.65438e-05,-1.04167e-05
358,3.76721e-06,-4.59179e-05,5.22154e-05,2.46212e-05,5.40216e-05,-4.10844e-06
359,4.11412e-06,-4.97337e-05,6.18973e-05,1.94683e-05,7.46611e-05,3.21431e-07
360,7.03479e-06,-2.48922e-05,5.94643e-05,2.51169e-05,0.000101419,-3.74753e-06
361,9.37838e-06,7.56907e-07,4.57498e-05,3.36963e-05,0.000117827,-1.29427e-05
362,1.11116e-05,6.3149e-06,3.13307e-05,3.98276e-05,0.000116154,-2.1299e-05
363,1.18841e-05,1.81422e-06,2.93225e-05,4.19119e-05,9.23965e-05,-2.47443e-05
364,1.22173e-05,-1.73628e-05,4.13485e-05,3.51404e-05,4.50329e-05,-2.42322e-05
365,1.42698e-05,-2.33666e-05,5.33245e-05,2.67336e-05,-1.18757e-05,-2.05013e-05
366,1.60245e-05,7.40008e-06,5.50567e-05,2.7598e-05,-5.6643e-05,-1.73524e-05
367,1.64483e-05,2.90326e-05,4.73928e-05,3.24967e-05,-7.91866e-05,-2.2129e-05
368,1.89412e-05,3.03549e-05,3.79219e-05,3.53107e-05,-8.87658e-05,-2.81137e-05
369,2.09987e-05,3.22823e-05,3.87602e-05,3.95265e-05,-9.91568e-05,-2.23716e-05
370,1.79412e-05,2.98819e-05,5.08383e-05,4.60387e-05,-0.00010594,-1.98896e-05
371,1.34992e-05,2.58639e-05,5.93705e-05,5.05313e-05,-9.66447e-05,-2.2078e-05
372,1.23904e-05,9.99093e-06,5.82698e-05,4.4685e-05,-7.92167e-05,-2.08488e-05
373,1.47084e-05,-1.09319e-05,5.38036e-05,3.48285e-05,-6.57924e-05,-2.10577e-05
374,1.66594e-05,-8.50845e-06,5.32405e-05,3.19319e-05,-5.07928e-05,-2.71398e-05
375,1.69285e-05,1.59097e-05,5.41382e-05,3.79822e-05,-2.76918e-05,-3.49161e-05
376,1.93526e-05,2.89224e-05,4.91077e-05,4.4321e-05,-2.62684e-06,-3.7789e-05
377,2.35654e-05,1.95886e-05,4.26923e-05,4.549e-05,1.09031e-05,-3.59462e-05
378,2.399e-05,-3.0682e-06,4.62616e-05,3.92371e-05,1.07385e-05,-3.48255e-05
379,1.98476e-05,-2.30388e-05,5.57523e-05,2.93016e-05,9.19607e-06,-3.69136e-05
380,1.46354e-05,-2.22922e-05,6.00421e-05,2.63877e-05,1.52005e-05,-3.9993e-05
381,1.23444e-05,-7.63184e-07,5.60637e-05,3.4399e-05,2.27462e-05,-4.14723e-05
382,1.51214e-05,1.88005e-05,4.56505e-05,4.47688e-05,2.40217e-05,-4.65043e-05
383,1.84776e-05,1.8873e-05,3.69523e-05,4.66528e-05,2.02229e-05,-5.51991e-05
384,1.55588e-05,5.97087e-07,3.99975e-05,3.86249e-05,1.67367e-05,-5.66422e-05
385,9.0378e-06,-2.55558e-05,5.20603e-05,2.82664e-05,1.91217e-05,-5.09582e-05
386,6.86057e-06,-3.05626e-05,6.06908e-05,3.04746e-05,2.77624e-05,-4.37506e-05
387,9.67292e-06,-8.66054e-06,5.95574e-05,4.52331e-05,3.38558e-05,-3.70231e-05
388,1.31871e-05,1.15484e-05,5.01941e-05,5.62173e-05,3.02922e-05,-3.10517e-05
389,1.4336e-05,1.43088e-05,4.03442e-05,5.65413e-05,2.07866e-05,-3.25873e-05
390,1.30332e-05,4.93004e-06,3.80994e-05,4.88483e-05,1.31151e-05,-4.06149e-05
391,1.13208e-05,-2.02276e-05,4.3619e-05,3.17641e-05,1.29088e-05,-4.63387e-05
392,1.05127e-05,-3.07731e-05,5.02106e-05,2.40037e-05,2.04746e-05,-4.99402e-05
393,8.60874e-06,-3.00137e-06,5.37485e-05,3.47613e-05,2.93933e-05,-5.38577e-05
394,7.63313e-06,1.91742e-05,5.07721e-05,4.02614e-05,3.44651e-05,-4.94363e-05
395,8.98746e-06,2.19092e-05,4.25683e-05,3.68112e-05,3.5249e-05,-3.98201e-05
396,6.7248e-06,2.87495e-05,4.15357e-05,3.72144e-05,3.04998e-05,-3.13366e-05
397,7.57419e-07,3.42718e-05,5.21171e-05,3.92596e-05,2.56439e-05,-2.58611e-05
398,-2.72427e-06,3.39677e-05,6.03766e-05,3.99292e-05,2.76343e-05,-2.80367e-05
399,-2.03173e-06,1.35465e-05,5.84464e-05,4.08463e-05,3.09632e-05,-3.71241e-05
400,7.66918e-07,-1.78765e-05,5.3618e-05,4.34496e-05,3.01945e-05,-4.29438e-05
401,2.86599e-06,-2.2847e-05,5.51115e-05,4.64221e-05,2.7598e-05,-4.08403e-05
402,3.63344e-06,1.12188e-06,5.87001e-05,4.99279e-05,2.32982e-05,-3.33517e-05
403,5.79825e-06,2.17334e-05,5.47261e-05,4.92929e-05,1.96449e-05,-2.32903e-05
404,9.55456e-06,2.52051e-05,4.59544e-05,4.73264e-05,1.84405e-05,-2.16881e-05
405,7.96738e-06,9.28152e-06,4.58883e-05,4.2457e-05,1.663e-05,-3.04117e-05
406,-4.08681e-07,-1.4025e-05,5.4661e-05,3.17127e-05,1.52829e-05,-3.74809e-05
407,-7.16989e-06,-2.08358e-05,5.99013e-05,2.5325e-05,2.14025e-05,-3.51643e-05
408,-6.21631e-06,-6.07345e-06,5.61101e-05,2.88828e-05,3.68344e-05,-2.46429e-05
409,5.45711e-07,8.79714e-06,4.52542e-05,3.50587e-05,5.86094e-05,-1.47381e-05
410,7.47001e-06,9.56873e-06,3.56677e-05,3.53291e-05,7.78255e-05,-1.23292e-05
411,9.98918e-06,-2.68134e-06,3.81233e-05,3.06262e-05,8.68245e-05,-1.53484e-05
412,9.3138e-06,-2.49831e-05,4.962e-05,2.7474e-05,9.74517e-05,-1.87916e-05
413,9.69887e-06,-3.60221e-05,5.67163e-05,3.21439e-05,0.000121447,-2.28788e-05
414,1.14071e-05,-2.2025e-05,5.37755e-05,4.12005e-05,0.000145521,-2.26211e-05
415,1.401e-05,1.94131e-07,4.37698e-05,4.83745e-05,0.000149039,-1.76809e-05
416,1.77265e-05,8.61595e-06,3.49341e-05,4.74907e-05,0.000124896,-2.08232e-05
417,1.90605e-05,-1.73589e-06,3.72705e-05,4.02644e-05,7.26319e-05,-2.18247e-05
418,1.73383e-05,-3.43175e-05,4.77717e-05,2.86011e-05,3.98117e-06,-1.48166e-05
419,1.77084e-05,-5.27404e-05,5.25924e-05,2.42592e-05,-5.45062e-05,-1.42297e-05
420,1.93059e-05,-3.13694e-05,5.04071e-05,3.36813e-05,-8.30044e-05,-1.97661e-05
421,1.85654e-05,-1.27681e-05,4.44064e-05,3.95175e-05,-8.52752e-05,-1.36361e-05
422,1.65195e-05,-1.2716e-05,3.56708e-05,3.53739e-05,-8.4441e-05,1.85938e-06
423,1.5268e-05,-1.2162e-05,3.44722e-05,3.33669e-05,-9.4563e-05,6.42011e-06
424,1.56832e-05,-1.23033e-05,4.50699e-05,3.99431e-05,-9.60306e-05,2.98098e-06
425,1.63101e-05,-1.91905e-05,5.43486e-05,4.66089e-05,-6.22735e-05,7.83309e-06
426,1.72436e-05,-4.50082e-05,5.47864e-05,4.06054e-05,-1.07283e-05,2.01219e-05
427,1.83203e-05,-7.78798e-05,5.15589e-05,2.35958e-05,1.94765e-05,1.82275e-05
428,1.61013e-05,-8.5328e-05,5.50826e-05,1.65461e-05,2.15312e-05,8.18763e-06
429,1.38278e-05,-6.56018e-05,6.20289e-05,3.02586e-05,1.03675e-05,7.92513e-06
430,1.50081e-05,-4.99939e-05,5.8617e-05,4.41448e-05,-4.07249e-07,1.79146e-05
431,1.70877e-05,-5.04014e-05,4.58801e-05,4.28435e-05,-1.02149e-05,3.15135e-05
432,1.65682e-05,-6.61793e-05,4.07744e-05,3.02604e-05,-2.01173e-05,4.06097e-05
433,1.40272e-05,-8.51874e-05,4.80021e-05,1.78559e-05,-1.88445e-05,4.29026e-05
434,1.13689e-05,-8.45768e-05,5.69215e-05,1.5508e-05,-1.10295e-06,3.73626e-05
435,8.99009e-06,-5.91929e-05,5.73601e-05,2.04555e-05,1.61864e-05,3.05557e-05
436,8.89711e-06,-3.24523e-05,4.61676e-05,2.48454e-05,2.00055e-05,2.93221e-05
437,1.20898e-05,-2.11863e-05,3.26283e-05,2.75989e-05,1.56228e-05,3.04651e-05
438,1.4681e-05,-2.47382e-05,2.96929e-05,2.79988e-05,1.00598e-05,2.22284e-05
439,1.28848e-05,-4.02051e-05,3.76412e-05,2.29398e-05,7.53319e-06,5.91455e-06
440,8.04868e-06,-4.07949e-05,4.62785e-05,2.33879e-05,1.09349e-05,-3.86275e-06
441,4.42593e-06,-1.08931e-05,4.968e-05,3.50093e-05,1.83776e-05,4.32157e-06
442,4.76196e-06,1.89858e-05,4.5952e-05,4.56936e-05,2.56196e-05,1.52046e-05
443,7.40226e-06,2.53402e-05,3.92878e-05,4.90459e-05,3.05021e-05,1.16258e-05
444,9.23301e-06,1.88404e-05,4.08425e-05,4.70903e-05,2.79395e-05,7.4237e-06
445,8.2024e-06,7.9347e-07,5.10386e-05,3.87379e-05,2.24676e-05,8.06149e-06
446,3.81758e-06,-1.36862e-07,5.61292e-05,3.32379e-05,2.54457e-05,1.1656e-05
447,1.46714e-06,3.45824e-05,5.41186e-05,3.98817e-05,3.41937e-05,1.48223e-05
448,7.43677e-06,5.87109e-05,4.9128e-05,4.80955e-05,3.76104e-05,1.39066e-05
449,1.75858e-05,6.03895e-05,4.08248e-05,4.94266e-05,3.17619e-05,1.70338e-05
450,2.07308e-05,6.37034e-05,3.92042e-05,4.92952e-05,1.72174e-05,1.93935e-05
451,1.28655e-05,6.79386e-05,5.06887e-05,5.18565e-05,4.84901e-06,1.77862e-05
452,5.24074e-06,7.0789e-05,5.92004e-05,5.03276e-05,7.89855e-06,1.36486e-05
453,7.33946e-06,5.56424e-05,5.5403e-05,4.03851e-05,1.82385e-05,5.27754e-06
454,1.34508e-05,2.4036e-05,5.01257e-05,2.90221e-05,2.39228e-05,-1.9044e-06
455,1.37666e-05,1.42323e-05,5.15864e-05,2.82337e-05,2.57817e-05,-1.64429e-06
456,1.11938e-05,2.94492e-05,5.14772e-05,4.01735e-05,2.53725e-05,-2.89937e-06
457,1.25853e-05,3.89654e-05,4.08412e-05,5.39893e-05,2.50665e-05,-9.95563e-06
458,1.67884e-05,3.57399e-05,2.86473e-05,6.41592e-05,2.40741e-05,-2.40972e-05
459,1.69272e-05,2.00702e-05,2.95283e-05,6.33966e-05,2.14739e-05,-4.16912e-05
460,1.18655e-05,1.39031e-06,3.94493e-05,5.23398e-05,2.36611e-05,-5.04487e-05
461,7.12835e-06,-1.48043e-06,4.63322e-05,4.74349e-05,3.3602e-05,-5.09066e-05
462,6.57793e-06,1.29544e-05,4.53678e-05,5.52654e-05,4.3847e-05,-5.40879e-05
463,1.06387e-05,2.36346e-05,3.68206e-05,6.24961e-05,4.81484e-05,-6.19373e-05
464,1.55922e-05,2.11099e-05,2.95468e-05,6.12526e-05,4.25996e-05,-6.00401e-05
465,1.75299e-05,9.52477e-06,3.53812e-05,5.52113e-05,2.60112e-05,-4.82336e-05
466,1.60566e-05,-8.17195e-06,5.20229e-05,4.47958e-05,6.77399e-06,-3.53064e-05
467,1.27126e-05,-1.36602e-05,6.58263e-05,3.85683e-05,-4.91784e-06,-2.59188e-05
468,8.90408e-06,3.41198e-06,6.78968e-05,4.52516e-05,-9.8396e-06,-2.01589e-05
469,7.70657e-06,1.92855e-05,5.75652e-05,5.37861e-05,-1.5389e-05,-1.94886e-05
470,9.16683e-06,1.67645e-05,4.46995e-05,5.62593e-05,-2.27438e-05,-1.89909e-05
471,1.00317e-05,2.59592e-06,4.43523e-05,5.38233e-05,-2.76765e-05,-1.13759e-05
472,1.08184e-05,-2.40293e-05,5.67357e-05,4.43148e-05,-2.42836e-05,3.30196e-06
473,1.47574e-05,-3.4197e-05,6.51637e-05,3.74065e-05,-1.05044e-05,1.52827e-05
474,1.87974e-05,-9.83927e-06,5.96473e-05,4.15996e-05,7.0599e-06,1.86741e-05
475,2.08509e-05,5.18873e-06,4.32325e-05,4.48105e-05,1.86816e-05,9.93875e-06
476,2.42272e-05,3.12744e-06,2.96884e-05,4.10489e-05,2.04479e-05,-1.4653e-05
477,2.66781e-05,5.58018e-06,3.24273e-05,3.55463e-05,1.10021e-05,-4.90568e-05
478,2.06704e-05,9.04864e-06,4.75822e-05,3.33343e-05,5.33894e-07,-7.92413e-05
479,9.26936e-06,8.65951e-06,5.80756e-05,3.41517e-05,4.57719e-06,-8.87774e-05
480,4.13519e-06,-6.67804e-06,5.5574e-05,2.50295e-05,1.51052e-05,-7.93802e-05
481,7.77348e-06,-2.66425e-05,4.80235e-05,1.10631e-05,1.55798e-05,-6.53435e-05
482,1.35303e-05,-2.64708e-05,4.56411e-05,8.8289e-06,1.0436e-05,-4.94896e-05
483,1.59109e-05,-5.28962e-06,4.69966e-05,2.00161e-05,9.42466e-06,-3.08024e-05
484,1.74955e-05,1.16427e-05,4.39419e-05,3.25307e-05,1.46942e-05,-1.37691e-05
485,2.00489e-05,1.43333e-05,4.01392e-05,3.82618e-05,1.92808e-05,-1.26217e-06
486,1.90613e-05,-6.26293e-07,4.79161e-05,3.52498e-05,1.54374e-05,8.39491e-06
487,1.45155e-05,-2.42134e-05,6.19567e-05,2.56681e-05,1.04631e-05,1.82399e-05
488,1.00799e-05,-2.96781e-05,6.88861e-05,1.90156e-05,1.43147e-05,2.81183e-05
489,8.41188e-06,-1.01445e-05,6.44886e-05,2.09277e-05,2.28194e-05,3.60753e-05
490,1.03033e-05,8.46562e-06,5.0898e-05,2.7596e-05,2.89664e-05,4.2811e-05
491,1.31596e-05,7.57043e-06,3.72556e-05,3.37428e-05,2.84011e-05,5.09434e-05
492,1.26538e-05,-8.30542e-06,3.53064e-05,3.45917e-05,1.95738e-05,5.75165e-05
493,8.94715e-06,-3.29331e-05,4.48444e-05,2.83905e-05,1.47508e-05,5.78612e-05
494,6.13253e-06,-4.37573e-05,5.36346e-05,2.62095e-05,2.87015e-05,5.63983e-05
495,8.01395e-06,-2.53625e-05,5.32435e-05,3.16539e-05,5.57288e-05,6.35808e-05
496,1.42174e-05,-4.59298e-07,4.42934e-05,3.28613e-05,7.34872e-05,7.53799e-05
497,1.90132e-05,6.8203e-06,3.57985e-05,2.96689e-05,6.67126e-05,7.58716e-05
498,1.63828e-05,-7.45377e-06,3.8092e-05,3.07437e-05,4.11707e-05,6.12514e-05
499,8.28974e-06,-4.12979e-05,4.96137e-05,2.53798e-05,1.59529e-05,3.99807e-05
500,3.29655e-06,-5.53753e-05,5.8033e-05,1.81726e-05,5.07516e-06,2.42703e-05
501,3.71279e-06,-3.15553e-05,5.75334e-05,2.54621e-05,5.86232e-06,2.02023e-05
502,7.6306e-06,-1.40726e-05,4.92648e-05,2.87939e-05,4.52475e-06,1.91669e-05
503,1.4423e-05,-1.04408e-05,4.0058e-05,2.5243e-05,1.50233e-06,1.50939e-05
504,1.92789e-05,-5.40824e-06,4.17297e-05,2.85729e-05,8.83408e-06,3.26834e-06
505,1.63571e-05,-4.47162e-06,5.47451e-05,3.39027e-05,2.98538e-05,-9.88406e-06
506,1.00897e-05,-6.25562e-06,6.60057e-05,3.84126e-05,5.465e-05,-1.36219e-05
507,8.01354e-06,-2.11019e-05,6.52004e-05,3.96791e-05,6.29459e-05,-1.22579e-05
508,9.87286e-06,-4.46697e-05,5.78814e-05,3.63283e-05,5.21529e-05,-1.12904e-05
509,1.0223e-05,-4.66608e-05,5.60409e-05,3.59212e-05,3.96951e-05,-1.01408e-05
510,8.73416e-06,-2.59492e-05,5.65082e-05,4.3473e-05,3.7877e-05,-4.83268e-06
511,8.25695e-06,-1.22757e-05,4.87974e-05,4.81081e-05,4.96971e-05,7.65894e-06
512,9.32134e-06,-1.40862e-05,3.78226e-05,4.82013e-05,5.82221e-05,2.84003e-05
513,9.34665e-06,-3.02262e-05,4.10134e-05,4.28889e-05,4.79998e-05,5.14623e-05
514,6.97895e-06,-5.01663e-05,5.48283e-05,3.36087e-05,2.80889e-05,6.48901e-05
515,3.95656e-06,-5.12624e-05,6.50413e-05,3.19119e-05,1.15068e-05,6.34668e-05
516,2.94962e-06,-2.8798e-05,6.62686e-05,3.89418e-05,-1.03948e-06,5.09622e-05
517,7.50236e-06,-8.51273e-06,5.87985e-05,4.55806e-05,-1.31114e-05,3.99022e-05
518,1.5605e-05,-5.98918e-06,5.14167e-05,4.65212e-05,-3.14394e-05,3.73362e-05
519,2.02827e-05,-1.82611e-05,5.38599e-05,4.20355e-05,-6.18764e-05,3.53082e-05
520,1.77542e-05,-3.77169e-05,6.2806e-05,3.26158e-05,-8.8865e-05,3.01102e-05
521,1.07195e-05,-4.10381e-05,6.79361e-05,2.94881e-05,-8.67333e-05,2.42986e-05
522,5.9755e-06,-1.77071e-05,6.65281e-05,3.80947e-05,-5.43112e-05,2.11218e-05
523,7.43564e-06,4.08575e-06,5.84194e-05,4.78169e-05,-1.48464e-05,1.99969e-05
524,1.23514e-05,3.17817e-07,4.74319e-05,5.0977e-05,1.02814e-05,1.32848e-05
525,1.46735e-05,-1.99514e-05,4.55922e-05,4.73964e-05,1.43049e-05,3.69856e-08
526,1.24146e-05,-4.90871e-05,5.66609e-05,3.81196e-05,8.26608e-06,-1.07731e-05
527,1.01751e-05,-5.68166e-05,6.6955e-05,3.21987e-05,9.01509e-06,-1.63334e-05
528,1.04456e-05,-2.42154e-05,6.95804e-05,3.94116e-05,1.60701e-05,-2.65676e-05
529,1.10977e-05,-3.46026e-07,6.4815e-05,4.84666e-05,1.82822e-05,-4.4659e-05
530,1.10042e-05,-7.47455e-07,5.43501e-05,4.99152e-05,1.31561e-05,-5.57786e-05
531,1.03771e-05,-1.24943e-06,5.19536e-05,4.92165e-05,3.19392e-06,-5.30736e-05
532,8.01282e-06,-6.81172e-07,6.30909e-05,4.50511e-05,-2.64898e-06,-4.71371e-05
533,5.65477e-06,1.78822e-06,7.12879e-05,3.91629e-05,2.2131e-06,-3.38275e-05
534,7.03791e-06,-1.1059e-05,6.59747e-05,3.29633e-05,7.66491e-06,-9.87225e-06
535,1.12886e-05,-3.44516e-05,5.61429e-05,2.80864e-05,7.48348e-06,3.27718e-06
536,1.43897e-05,-3.61625e-05,5.29249e-05,2.72405e-05,6.82027e-06,-5.72835e-06
537,1.47693e-05,-1.26209e-05,5.42015e-05,3.04143e-05,5.93464e-06,-2.31817e-05
538,1.58659e-05,5.03114e-06,5.13168e-05,3.31408e-05,6.15644e-06,-3.09301e-05
539,2.01133e-05,6.82072e-06,4.56372e-05,3.40368e-05,6.64994e-06,-2.66779e-05
540,2.27416e-05,-4.65156e-06,4.72092e-05,2.78903e-05,4.37607e-06,-2.21114e-05
541,2.08112e-05,-2.10196e-05,5.47677e-05,1.83947e-05,9.16864e-07,-4.32397e-05
542,1.66445e-05,-2.31165e-05,6.19655e-05,1.79124e-05,-3.95033e-07,-9.66302e-05
543,1.33218e-05,-5.39943e-06,6.35328e-05,2.67776e-05,1.49631e-06,-0.000145966
544,1.28089e-05,1.23339e-05,5.39077e-05,3.54539e-05,8.14819e-06,-0.000154953
545,1.46875e-05,1.36646e-05,4.06924e-05,4.00378e-05,1.83658e-05,-0.000134396
546,1.65721e-05,-5.61053e-07,3.99693e-05,3.70348e-05,2.51001e-05,-0.000113208
547,1.59483e-05,-2.29902e-05,4.99534e-05,2.50297e-05,2.5928e-05,-9.01574e-05
548,1.28856e-05,-2.71871e-05,5.51622e-05,2.13753e-05,2.64877e-05,-5.31129e-05
549,1.01039e-05,-4.16347e-06,5.06343e-05,3.26842e-05,3.19523e-05,-1.4819e-05
550,9.42178e-06,1.89093e-05,4.12879e-05,4.55626e-05,3.87058e-05,7.83069e-06
551,9.07382e-06,2.29358e-05,3.37908e-05,4.79669e-05,4.05953e-05,1.98259e-05
552,6.14779e-06,1.17923e-05,3.56396e-05,3.89386e-05,3.62637e-05,2.94113e-05
553,2.09222e-06,-1.7481e-05,4.7213e-05,2.27862e-05,2.7896e-05,5.10698e-05
554,-2.58304e-08,-3.34326e-05,5.74072e-05,1.57403e-05,1.6108e-05,8.52106e-05
555,-1.00487e-07,-9.33029e-06,5.88479e-05,2.41092e-05,3.28118e-06,0.000114119
556,2.64365e-06,1.0205e-05,5.2561e-05,3.06243e-05,-6.1621e-06,0.000122162
557,7.74725e-06,5.58532e-06,4.38512e-05,3.07807e-05,-1.75453e-05,0.000111488
558,1.10755e-05,2.86418e-06,4.14261e-05,2.83994e-05,-4.02135e-05,0.00010299
559,9.50019e-06,2.72512e-06,4.75676e-05,2.66728e-05,-5.43389e-05,0.000106752
560,5.61583e-06,3.44018e-06,5.17318e-05,3.06615e-05,-3.33054e-05,0.000120849
561,2.16412e-06,-7.52258e-06,4.65396e-05,2.75471e-05,3.9272e-09,0.000137159
562,-7.32121e-07,-3.00076e-05,4.08406e-05,2.0024e-05,1.94987e-05,0.000148352
563,-1.21777e-07,-3.0442e-05,4.45721e-05,2.19994e-05,3.65596e-05,0.000154147
564,5.70333e-06,-7.21733e-06,4.87435e-05,3.23164e-05,4.80775e-05,0.000152313
565,1.21286e-05,8.71138e-06,4.36824e-05,4.1272e-05,4.01452e-05,0.00013686
566,1.56025e-05,1.02435e-05,3.40321e-05,4.83741e-05,1.43425e-05,0.000103561
567,1.38174e-05,-2.32867e-06,3.31424e-05,4.88394e-05,-1.4049e-05,6.38663e-05
568,8.44245e-06,-2.20998e-05,4.17036e-05,4.20529e-05,-2.37603e-05,3.92912e-05
569,5.86029e-06,-2.71674e-05,5.12532e-05,3.92854e-05,-8.39415e-06,2.81224e-05
570,8.5358e-06,-1.10896e-05,5.6635e-05,4.7853e-05,1.45231e-05,1.18678e-05
571,1.3496e-05,3.47547e-06,5.27897e-05,6.05961e-05,2.78107e-05,-2.32771e-05
572,1.63115e-05,4.27735e-06,4.29924e-05,6.56748e-05,2.91272e-05,-6.65099e-05
573,1.45994e-05,-4.80441e-06,4.11881e-05,6.16007e-05,2.3973e-05,-9.2273e-05
574,1.09216e-05,-2.23205e-05,5.12544e-05,5.30905e-05,2.12067e-05,-9.12581e-05
575,9.77242e-06,-2.96347e-05,6.05051e-05,4.96154e-05,2.45194e-05,-7.47876e-05
576,1.05742e-05,-1.14404e-05,6.03458e-05,5.4767e-05,2.7959e-05,-5.53314e-05
577,1.09637e-05,1.14444e-05,5.11476e-05,5.87839e-05,2.4102e-05,-3.52108e-05
578,1.17274e-05,1.57463e-05,3.98531e-05,5.63907e-05,1.54741e-05,-1.61406e-05
579,1.3426e-05,3.25209e-06,3.8257e-05,5.25376e-05,6.43226e-06,-4.77409e-06
580,1.41356e-05,-2.57608e-05,5.0157e-05,4.1741e-05,1.3442e-06,-7.1154e-06
581,1.35034e-05,-3.93486e-05,6.26084e-05,3.53218e-05,3.46682e-06,-5.4526e-06
582,1.25576e-05,-1.22567e-05,6.40311e-05,4.2633e-05,4.52782e-06,2.61276e-05
583,1.18197e-05,8.07353e-06,5.40598e-05,5.10535e-05,-1.93632e-06,8.26831e-05
584,1.14531e-05,7.17813e-06,4.19792e-05,5.46553e-05,-6.1978e-06,0.000122788
585,1.20777e-05,9.25505e-06,4.25769e-05,5.78065e-05,-5.32055e-06,0.000122884
586,1.35318e-05,9.71825e-06,5.59186e-05,5.8275e-05,-1.15921e-06,0.000101563
587,1.6187e-05,7.14017e-06,6.61121e-05,5.81166e-05,1.23056e-05,8.12198e-05
588,1.84933e-05,-1.03214e-05,6.48561e-05,5.19955e-05,2.92168e-05,6.86863e-05
589,1.84613e-05,-3.58401e-05,5.5794e-05,3.97479e-05,3.95557e-05,5.92061e-05
590,1.75219e-05,-3.64319e-05,5.25252e-05,3.23495e-05,4.62273e-05,4.83897e-05
591,1.81842e-05,-1.00834e-05,5.70569e-05,3.35097e-05,5.10102e-05,3.36017e-05
592,2.00417e-05,9.61076e-06,5.609e-05,3.88758e-05,5.21545e-05,1.53586e-05
593,1.96514e-05,1.35431e-05,4.91877e-05,4.20653e-05,4.46077e-05,3.89227e-07
594,1.55579e-05,3.54876e-06,4.77631e-05,3.66483e-05,2.61719e-05,-1.27588e-05
595,1.11266e-05,-1.02014e-05,5.27172e-05,2.27318e-05,6.84741e-06,-2.95212e-05
596,1.14309e-05,-9.19186e-06,5.80956e-05,1.47144e-05,-1.9275e-06,-4.5327e-05
597,1.43997e-05,9.52539e-06,5.94532e-05,2.27273e-05,8.47088e-07,-5.28197e-05
598,1.60649e-05,2.49217e-05,5.45202e-05,3.70832e-05,9.61709e-06,-5.74829e-05
599,1.71605e-05,2.23532e-05,4.81761e-05,4.03627e-05,1.67675e-05,-6.64034e-05
600,1.75578e-05,2.71529e-06,5.00863e-05,3.02726e-05,1.84348e-05,-7.15264e-05
601,1.65056e-05,-2.53646e-05,6.03167e-05,1.9191e-05,2.01794e-05,-6.67132e-05
602,1.36248e-05,-3.18113e-05,6.85236e-05,2.10771e-05,2.81114e-05,-6.29686e-05
603,9.68974e-06,-7.77607e-06,6.98166e-05,3.37132e-05,3.88577e-05,-6.38881e-05
604,8.3106e-06,1.44826e-05,6.48037e-05,4.30937e-05,4.28455e-05,-6.13186e-05
605,1.03448e-05,1.2164e-05,5.81494e-05,4.50698e-05,3.36179e-05,-5.17284e-05
606,1.13641e-05,-4.40936e-06,6.00746e-05,4.23013e-05,1.50952e-05,-4.11629e-05
607,9.63305e-06,-3.17263e-05,7.19163e-05,3.05685e-05,7.02871e-06,-3.7666e-05
608,7.04799e-06,-4.36678e-05,7.98096e-05,2.11788e-05,2.54567e-05,-4.32037e-05
609,4.05755e-06,-2.22606e-05,7.59074e-05,2.97433e-05,6.1519e-05,-5.8411e-05
610,3.57658e-06,-3.51843e-06,6.33486e-05,4.15475e-05,9.01082e-05,-7.80265e-05
611,8.31124e-06,6.25118e-07,5.24522e-05,4.43733e-05,9.63468e-05,-9.52554e-05
612,1.13901e-05,3.82931e-06,5.3723e-05,4.44925e-05,8.60413e-05,-0.000116349
613,7.82814e-06,5.37282e-06,6.32999e-05,4.41313e-05,7.19823e-05,-0.000136677
614,4.65401e-06,6.5829e-06,6.86984e-05,4.27219e-05,5.39318e-05,-0.000140032
615,5.38143e-06,-8.27748e-06,6.41695e-05,3.61166e-05,2.65776e-05,-0.000135444
616,6.51744e-06,-3.29392e-05,5.66948e-05,2.74801e-05,-2.59935e-06,-0.000125844
617,5.31393e-06,-3.44735e-05,5.8436e-05,2.5126e-05,-2.52257e-05,-0.000110643
618,3.52251e-06,-1.2246e-05,6.29889e-05,3.04284e-05,-4.35089e-05,-9.79192e-05
619,6.1837e-06,1.64748e-06,5.49751e-05,3.20834e-05,-5.53598e-05,-9.87035e-05
620,1.14362e-05,-6.43713e-07,4.02943e-05,3.22266e-05,-6.0165e-05,-0.000110455
621,1.29843e-05,-1.56587e-05,3.87614e-05,2.92324e-05,-6.58868e-05,-0.000120022
622,1.10899e-05,-3.29432e-05,4.91827e-05,2.06929e-05,-7.17556e-05,-0.000119327
623,7.58745e-06,-3.18378e-05,5.7969e-05,1.98038e-05,-7.01016e-05,-0.000109232
624,3.85427e-06,-8.8852e-06,5.74314e-05,3.27195e-05,-5.58739e-05,-9.67788e-05
625,5.00531e-06,1.34849e-05,4.73122e-05,4.35354e-05,-3.38391e-05,-8.899e-05
626,1.16821e-05,1.77397e-05,3.72172e-05,4.08542e-05,-2.08499e-05,-9.29034e-05
627,1.61048e-05,2.71575e-06,3.88825e-05,3.15997e-05,-2.61058e-05,-0.000102962
628,1.38389e-05,-2.32839e-05,5.01403e-05,2.42431e-05,-3.69714e-05,-0.000108362
629,9.3796e-06,-3.05317e-05,5.84309e-05,2.50414e-05,-3.63105e-05,-0.000108997
630,8.28806e-06,-1.02768e-05,5.90287e-05,3.15557e-05,-2.34291e-05,-0.000106975
631,1.17138e-05,8.77245e-06,5.21782e-05,3.76251e-05,-7.78788e-06,-9.81477e-05
632,1.65791e-05,8.05468e-06,4.39279e-05,3.87142e-05,4.79519e-06,-9.20252e-05
633,1.83323e-05,-5.63114e-06,4.62078e-05,3.61148e-05,1.0362e-05,-9.06224e-05
634,1.60889e-05,-3.08644e-05,5.86268e-05,2.62848e-05,9.03124e-06,-8.26932e-05
635,1.31298e-05,-4.2893e-05,6.58756e-05,2.34357e-05,8.99221e-06,-6.78723e-05
636,1.14058e-05,-2.34358e-05,6.29056e-05,3.38269e-05,1.5326e-05,-6.5275e-05
637,1.25128e-05,-4.43709e-06,5.21495e-05,3.54551e-05,2.36655e-05,-8.16464e-05
638,1.67107e-05,3.66042e-07,3.7709e-05,2.78441e-05,2.91436e-05,-9.43738e-05
639,1.76403e-05,7.05592e-07,3.17511e-05,2.5628e-05,2.75595e-05,-9.13595e-05
640,1.41522e-05,-3.71932e-06,4.01549e-05,2.70368e-05,2.19622e-05,-8.59117e-05
641,1.41497e-05,-5.64594e-06,5.21148e-05,2.85844e-05,2.53338e-05,-8.33476e-05
642,1.8149e-05,-1.52636e-05,5.41556e-05,2.5125e-05,3.76747e-05,-7.70747e-05
643,1.94657e-05,-3.54031e-05,5.00332e-05,2.02829e-05,4.84596e-05,-6.78665e-05
644,1.57315e-05,-3.64416e-05,5.22251e-05,2.06468e-05,5.6936e-05,-6.51169e-05
645,1.32871e-05,-1.29263e-05,5.42236e-05,2.61059e-05,6.40417e-05,-6.98898e-05
646,1.89052e-05,7.01953e-06,4.36329e-05,2.96717e-05,6.43042e-05,-7.21216e-05
647,2.77299e-05,1.22278e-05,2.7481e-05,3.08071e-05,5.32395e-05,-6.6825e-05
648,2.99758e-05,-2.48858e-06,2.43486e-05,2.63049e-05,3.25365e-05,-5.76101e-05
649,2.62941e-05,-2.43928e-05,3.45883e-05,1.67018e-05,1.34685e-05,-4.80335e-05
650,2.2728e-05,-2.78355e-05,4.48538e-05,1.50754e-05,8.25508e-06,-3.74825e-05
651,2.16788e-05,-1.00504e-05,4.47566e-05,2.56554e-05,1.49397e-05,-2.23262e-05
652,2.23982e-05,4.17293e-06,3.25139e-05,3.81858e-05,2.32541e-05,-5.69884e-06
653,2.14188e-05,3.76955e-06,1.83981e-05,4.29115e-05,2.82227e-05,4.69593e-06
654,1.61335e-05,-9.76087e-06,1.72362e-05,4.12062e-05,3.6843e-05,1.28596e-05
655,1.0528e-05,-3.3354e-05,2.9538e-05,3.27351e-05,6.02502e-05,2.31888e-05
656,9.43435e-06,-4.01745e-05,4.14084e-05,2.77097e-05,9.50521e-05,3.36388e-05
657,1.10046e-05,-1.63092e-05,4.35042e-05,3.39146e-05,0.000119644,4.42267e-05
658,1.24632e-05,8.14831e-06,3.58082e-05,4.13016e-05,0.000115396,5.37527e-05
659,1.27297e-05,1.0901e-05,2.72172e-05,4.15818e-05,8.43571e-05,5.7875e-05
660,1.00747e-05,-3.41373e-06,3.05078e-05,3.81127e-05,4.12565e-05,5.83625e-05
661,6.48992e-06,-3.31273e-05,4.50881e-05,2.69731e-05,2.10702e-06,5.07273e-05
662,6.03336e-06,-4.32804e-05,5.55516e-05,2.02734e-05,-2.17378e-05,3.81586e-05
663,8.47389e-06,-1.55743e-05,5.56036e-05,2.95046e-05,-3.36774e-05,2.90431e-05
664,1.28265e-05,5.46946e-06,4.61966e-05,3.8236e-05,-4.13527e-05,3.72309e-05
665,1.6671e-05,7.44164e-06,3.36285e-05,4.24317e-05,-4.59288e-05,5.58332e-05
666,1.52424e-05,1.05793e-05,3.19898e-05,4.55713e-05,-4.80054e-05,6.08623e-05
667,1.04336e-05,1.25214e-05,4.49011e-05,4.92269e-05,-4.19608e-05,5.64189e-05
668,8.38915e-06,1.1702e-05,5.74491e-05,5.25376e-05,-2.71434e-05,4.71033e-05
669,1.03837e-05,-7.12235e-06,5.99803e-05,4.58247e-05,-1.83573e-05,4.2376e-05
670,1.57459e-05,-3.31577e-05,5.728e-05,3.72688e-05,-1.86858e-05,4.6544e-05
671,2.06518e-05,-3.3863e-05,5.73873e-05,3.75931e-05,-1.6471e-05,5.69017e-05
672,2.10081e-05,-1.0305e-05,5.93591e-05,4.47754e-05,-1.2061e-05,6.6773e-05
673,1.97979e-05,6.77607e-06,5.56813e-05,5.10082e-05,-1.3931e-05,6.93667e-05
674,1.9395e-05,8.26262e-06,4.78142e-05,5.54389e-05,-2.27915e-05,6.42564e-05
675,1.60819e-05,-7.18521e-06,4.89182e-05,5.18344e-05,-2.87236e-05,5.41106e-05
676,1.02213e-05,-2.82199e-05,5.96031e-05,3.92889e-05,-2.04423e-05,4.65555e-05
677,5.8129e-06,-3.12568e-05,6.7665e-05,3.36999e-05,-1.38501e-06,4.30041e-05
678,4.42979e-06,-1.18246e-05,6.63632e-05,4.17156e-05,1.3268e-05,3.91053e-05
679,6.24293e-06,8.13384e-06,5.48822e-05,5.20148e-05,1.70061e-05,3.35149e-05
680,8.44747e-06,1.25445e-05,4.17218e-05,5.48416e-05,1.24675e-05,2.87217e-05
681,7.0765e-06,2.95715e-06,4.10234e-05,5.12077e-05,5.92538e-06,2.93164e-05
682,3.3818e-06,-1.67097e-05,5.23349e-05,4.30174e-05,5.79251e-06,3.64643e-05
683,2.5627e-06,-2.39182e-05,6.32195e-05,4.08565e-05,1.2831e-05,4.14069e-05
684,5.44142e-06,-7.45798e-06,6.70456e-05,4.86259e-05,1.94053e-05,4.72614e-05
685,8.59588e-06,1.01801e-05,6.15167e-05,5.36832e-05,2.31038e-05,5.82398e-05
686,1.08788e-05,1.24258e-05,5.02299e-05,5.30569e-05,2.52211e-05,6.46337e-05
687,1.19165e-05,3.8236e-06,4.56375e-05,4.78424e-05,2.16751e-05,6.85174e-05
688,9.70743e-06,-1.98989e-05,5.33558e-05,3.4602e-05,1.51636e-05,7.21506e-05
689,6.10466e-06,-2.68702e-05,6.08473e-05,3.25327e-05,1.70774e-05,6.96677e-05
690,3.54426e-06,4.29389e-06,5.80311e-05,4.66756e-05,2.52827e-05,6.83801e-05
691,1.92242e-06,2.12244e-05,4.8249e-05,5.07718e-05,2.81585e-05,6.30509e-05
692,3.55643e-06,1.1544e-05,3.85579e-05,4.55353e-05,2.39442e-05,4.77677e-05
693,8.49074e-06,1.05317e-05,3.6765e-05,4.60366e-05,1.51422e-05,2.74941e-05
694,1.05482e-05,1.35819e-05,4.52146e-05,4.99497e-05,8.48137e-06,1.64881e-05
695,9.18108e-06,1.37548e-05,5.24687e-05,5.6715e-05,1.35902e-05,1.54509e-05
696,9.05396e-06,-1.41666e-07,4.82698e-05,5.43578e-05,2.3275e-05,1.23613e-05
697,1.03628e-05,-2.45518e-05,3.96532e-05,4.20143e-05,2.23938e-05,1.08263e-05
698,1.07305e-05,-3.01351e-05,3.85142e-05,3.85184e-05,1.42372e-05,1.52961e-05
699,9.11715e-06,-1.23838e-05,4.22875e-05,4.87515e-05,8.91653e-06,2.10683e-05
700,8.41406e-06,1.81563e-06,4.16532e-05,5.96667e-05,7.40999e-06,1.56369e-05
701,8.58974e-06,2.35242e-06,3.50786e-05,6.42585e-05,5.32111e-06,3.54804e-06
702,5.3228e-06,-1.30552e-05,3.24841e-05,5.65381e-05,4.02274e-06,-2.08956e-06
703,2.77775e-06,-3.27036e-05,3.60669e-05,3.81265e-05,8.02125e-06,-1.1339e-06
704,6.77029e-06,-3.30132e-05,4.12105e-05,2.89111e-05,1.56053e-05,2.99307e-07
705,1.43508e-05,-1.18436e-05,4.31406e-05,4.14635e-05,2.04612e-05,6.7383e-06
706,2.03279e-05,7.68095e-06,3.60054e-05,6.25544e-05,1.92159e-05,1.89717e-05
707,2.24237e-05,1.14437e-05,2.4251e-05,7.21927e-05,1.31685e-05,2.6763e-05
708,2.02971e-05,2.00641e-06,2.41153e-05,6.52143e-05,6.6349e-06,1.99541e-05
709,1.6172e-05,-1.84028e-05,3.88945e-05,4.95388e-05,6.70661e-06,6.57016e-06
710,1.27965e-05,-2.65742e-05,5.24957e-05,4.43296e-05,1.5958e-05,9.50681e-07
711,1.20469e-05,-7.96274e-06,5.42379e-05,5.44428e-05,2.79229e-05,5.79967e-06
712,1.59044e-05,1.48462e-05,4.54995e-05,6.43133e-05,3.44976e-05,1.30806e-05
713,2.15334e-05,1.95257e-05,3.49636e-05,6.42095e-05,3.14989e-05,9.3048e-06
714,2.20557e-05,1.00174e-05,3.32608e-05,5.89211e-05,1.64511e-05,-2.44834e-06
715,1.74041e-05,-1.46993e-05,4.11749e-05,4.85423e-05,-1.24878e-06,-1.02287e-05
716,1.4647e-05,-2.55255e-05,4.75399e-05,4.22129e-05,-4.44412e-06,-1.14048e-05
717,1.67929e-05,-1.44332e-06,4.67936e-05,4.49436e-05,9.60937e-06,-4.02906e-06
718,2.28056e-05,1.11664e-05,3.89049e-05,4.22476e-05,3.09687e-05,6.4418e-06
719,3.0064e-05,-1.98454e-06,2.82629e-05,3.85118e-05,5.39488e-05,2.15008e-05
720,3.07417e-05,-9.78724e-06,2.87357e-05,4.27986e-05,6.9711e-05,4.53495e-05
721,2.10231e-05,-7.30678e-06,4.4153e-05,4.62635e-05,7.01275e-05,5.87793e-05
722,1.0564e-05,4.79776e-07,5.75865e-05,4.39239e-05,6.17636e-05,5.53989e-05
723,9.66477e-06,-4.95519e-06,5.53681e-05,3.38409e-05,4.71121e-05,3.79121e-05
724,1.55803e-05,-2.23545e-05,4.46126e-05,2.34092e-05,2.56716e-05,2.38755e-05
725,1.86084e-05,-2.355e-05,4.08812e-05,2.68533e-05,3.90217e-06,2.32465e-05
726,1.83335e-05,-3.92791e-06,4.08009e-05,4.07075e-05,-1.42562e-05,2.39098e-05
727,1.83049e-05,1.22545e-05,3.50177e-05,4.83241e-05,-2.38118e-05,2.60892e-05
728,1.80248e-05,1.35518e-05,3.00516e-05,4.74254e-05,-1.83597e-05,2.7158e-05
729,1.62981e-05,-3.10695e-06,3.58239e-05,4.24959e-05,-6.42899e-06,2.24139e-05
730,1.26824e-05,-2.8902e-05,4.56516e-05,3.82755e-05,-3.23203e-06,1.69484e-05
731,9.30932e-06,-3.76148e-05,5.08722e-05,3.80463e-05,-4.00565e-06,1.74414e-05
732,9.114e-06,-2.0765e-05,4.91883e-05,4.14049e-05,3.34854e-06,2.17913e-05
733,1.3211e-05,-8.21309e-07,4.10514e-05,4.31026e-05,1.90878e-05,2.74402e-05
734,1.78222e-05,5.2536e-06,3.42462e-05,3.89135e-05,3.07506e-05,3.13926e-05
735,1.74348e-05,-3.35552e-06,3.8299e-05,2.90022e-05,2.8507e-05,2.56537e-05
736,1.35425e-05,-2.33229e-05,5.03051e-05,1.58975e-05,1.8516e-05,1.63744e-05
737,1.03201e-05,-2.71184e-05,5.94303e-05,1.07351e-05,1.03532e-05,1.77749e-05
738,7.61295e-06,-9.25755e-07,6.22133e-05,1.90415e-05,2.36457e-06,2.44843e-05
739,6.74123e-06,2.37787e-05,5.79613e-05,2.89587e-05,-8.9812e-06,2.73813e-05
740,9.69616e-06,2.67614e-05,4.91147e-05,3.35017e-05,-1.69623e-05,2.3582e-05
741,1.25241e-05,1.57307e-05,4.45954e-05,3.53717e-05,-1.29347e-05,1.45732e-05
742,1.11858e-05,-1.27755e-05,4.96635e-05,3.03069e-05,3.38474e-06,1.22517e-05
743,6.93599e-06,-2.62415e-05,5.71509e-05,2.74078e-05,2.343e-05,1.51327e-05
744,3.8207e-06,1.57676e-06,5.98105e-05,3.61415e-05,3.74001e-05,1.85775e-05
745,4.79647e-06,2.45948e-05,5.49221e-05,4.23714e-05,3.80541e-05,1.89632e-05
746,7.82574e-06,2.81777e-05,4.58899e-05,3.74156e-05,2.52039e-05,1.28598e-05
747,8.75151e-06,2.92725e-05,4.5432e-05,3.37166e-05,4.59235e-06,7.46842e-06
748,6.89608e-06,2.89773e-05,5.61903e-05,3.46859e-05,-1.11992e-05,7.19269e-06
749,6.03768e-06,2.90323e-05,6.14477e-05,3.4833e-05,-9.10104e-06,1.54678e-05
750,9.19687e-06,1.43005e-05,5.64349e-05,2.66349e-05,3.40291e-06,2.53527e-05
751,1.17267e-05,-1.11201e-05,5.22712e-05,1.62042e-05,1.65084e-05,2.76754e-05
752,7.58529e-06,-1.89452e-05,5.48457e-05,1.59668e-05,3.08266e-05,2.11488e-05
753,2.82913e-06,-1.12245e-06,5.76229e-05,2.21154e-05,4.18884e-05,1.00918e-05
754,5.1459e-06,1.48508e-05,5.16248e-05,2.65377e-05,4.60797e-05,-2.17549e-06
755,1.04002e-05,1.59347e-05,4.34826e-05,2.78168e-05,4.152e-05,-1.06343e-05
756,1.08338e-05,-1.70049e-06,4.95227e-05,2.3267e-05,2.76186e-05,-1.40392e-05
757,7.80426e-06,-2.5859e-05,6.3764e-05,1.52718e-05,1.32399e-05,-1.69842e-05
758,6.50575e-06,-3.18575e-05,7.07566e-05,1.36623e-05,8.94309e-06,-1.8614e-05
759,7.79813e-06,-1.29628e-05,6.66178e-05,1.99817e-05,1.04448e-05,-1.76125e-05
760,1.12793e-05,9.25139e-06,5.3406e-05,2.76526e-05,1.12481e-05,-1.89748e-05
761,1.31511e-05,1.50621e-05,4.13787e-05,2.97613e-05,9.82368e-06,-2.72708e-05
762,9.32868e-06,3.55968e-06,4.47748e-05,2.48755e-05,5.9343e-06,-3.66848e-05
763,2.69289e-06,-1.85125e-05,6.05959e-05,1.74828e-05,4.80499e-06,-4.01449e-05
764,-2.38033e-06,-2.97883e-05,7.0421e-05,1.57707e-05,1.25327e-05,-3.86988e-05
765,-4.23786e-06,-1.8761e-05,6.71572e-05,2.34472e-05,2.51275e-05,-3.97011e-05
766,-1.60768e-06,-4.2784e-06,5.69701e-05,3.41165e-05,3.31337e-05,-4.48582e-05
767,3.48413e-06,-7.33735e-06,4.96435e-05,3.9807e-05,3.3028e-05,-4.98505e-05
768,5.58452e-06,-2.17422e-05,5.20819e-05,3.64215e-05,2.61429e-05,-5.0166e-05
769,3.1714e-06,-4.6996e-05,6.09401e-05,2.1432e-05,1.85137e-05,-5.00468e-05
770,-4.6414e-07,-5.66839e-05,6.54187e-05,1.1245e-05,1.797e-05,-5.18812e-05
771,-2.70107e-06,-2.96458e-05,6.439e-05,2.0659e-05,2.45926e-05,-5.12683e-05
772,-1.56571e-06,-1.08958e-05,6.00666e-05,2.86853e-05,2.96825e-05,-4.96616e-05
773,2.89735e-06,-1.22782e-05,5.28189e-05,2.22175e-05,2.74249e-05,-4.7598e-05
774,5.22723e-06,-8.01516e-06,5.06409e-05,2.02978e-05,1.73398e-05,-4.80136e-05
775,2.78611e-06,4.54178e-07,6.13711e-05,2.45315e-05,7.27597e-06,-5.05307e-05
776,-7.2302e-07,1.05184e-05,7.4448e-05,3.0149e-05,7.62682e-06,-4.95386e-05
777,-4.71558e-06,3.99681e-06,7.59217e-05,3.21995e-05,1.45192e-05,-4.59512e-05
778,-5.56839e-06,-1.37545e-05,7.15708e-05,2.99294e-05,1.86338e-05,-4.16454e-05
779,-5.36066e-07,-1.18185e-05,7.21377e-05,3.24093e-05,1.76164e-05,-4.12716e-05
780,7.14326e-06,1.32027e-05,7.38499e-05,3.61176e-05,1.26317e-05,-4.0633e-05
781,1.39911e-05,3.00879e-05,6.86568e-05,3.83916e-05,9.19493e-06,-3.72879e-05
782,1.50013e-05,2.91889e-05,6.16111e-05,4.06414e-05,8.31841e-06,-3.4716e-05
783,9.07903e-06,1.18144e-05,6.45313e-05,3.85062e-05,7.31766e-06,-3.45452e-05
784,2.67979e-06,-1.28277e-05,7.14102e-05,3.09804e-05,7.1322e-06,-3.46857e-05
785,1.14981e-06,-2.10747e-05,7.08834e-05,2.98622e-05,1.01473e-05,-3.70414e-05
786,2.19487e-06,-7.07496e-06,6.4002e-05,3.84387e-05,1.43819e-05,-4.19618e-05
787,5.46517e-06,9.36444e-06,5.35096e-05,4.59762e-05,1.71543e-05,-4.47352e-05
788,1.20264e-05,1.02801e-05,4.31901e-05,4.7245e-05,1.97409e-05,-4.94908e-05
789,1.73479e-05,-7.30145e-06,4.23673e-05,4.18262e-05,2.13468e-05,-5.81638e-05
790,1.76237e-05,-3.87629e-05,5.27979e-05,3.05809e-05,2.03337e-05,-6.80937e-05
791,1.51865e-05,-4.99187e-05,6.27292e-05,2.74537e-05,2.10158e-05,-7.44942e-05
792,1.38294e-05,-2.57808e-05,6.17803e-05,3.66457e-05,2.72139e-05,-7.25192e-05
793,1.48039e-05,-6.11205e-07,5.00153e-05,4.34656e-05,3.38376e-05,-6.87919e-05
794,1.73891e-05,-1.98212e-07,3.65396e-05,4.1712e-05,3.26762e-05,-7.18234e-05
795,1.85659e-05,-1.54595e-05,3.32288e-05,3.6949e-05,2.42755e-05,-7.8456e-05
796,1.79379e-05,-4.02841e-05,4.4102e-05,2.79583e-05,2.71127e-05,-8.10346e-05
797,1.84952e-05,-4.70932e-05,5.97257e-05,1.97204e-05,6.07132e-05,-7.13466e-05
798,1.95065e-05,-1.84248e-05,6.89027e-05,2.95369e-05,0.000109114,-5.30497e-05
799,1.98514e-05,1.10727e-06,6.40782e-05,4.10449e-05,0.000133121,-4.17873e-05
800,2.29532e-05,-4.20998e-06,5.00002e-05,4.11227e-05,0.000118054,-3.77497e-05
801,2.75894e-05,-2.86425e-06,4.63865e-05,3.96048e-05,7.39537e-05,-3.18549e-05
802,2.50764e-05,2.54124e-06,5.69616e-05,3.74112e-05,1.92167e-05,-3.02593e-05
803,1.63687e-05,2.76647e-06,6.34964e-05,3.77859e-05,-3.18152e-05,-3.09609e-05
804,1.07126e-05,-1.4723e-05,6.05999e-05,3.20145e-05,-6.95632e-05,-3.14974e-05
805,9.28187e-06,-4.32103e-05,5.84038e-05,2.33798e-05,-8.99377e-05,-3.11003e-05
806,7.84736e-06,-4.77213e-05,6.20358e-05,2.67869e-05,-9.63395e-05,-3.23258e-05
807,7.36811e-06,-2.61151e-05,6.52808e-05,3.69173e-05,-8.95544e-05,-3.429e-05
808,1.29397e-05,-6.69557e-06,6.15598e-05,4.07886e-05,-7.25755e-05,-3.52598e-05
809,1.99225e-05,9.32311e-07,5.47517e-05,3.9173e-05,-5.71933e-05,-3.54493e-05
810,1.92567e-05,-7.17565e-06,5.5055e-05,3.48626e-05,-5.06072e-05,-3.59996e-05
811,1.35945e-05,-2.48626e-05,6.09463e-05,2.92763e-05,-3.744e-05,-3.45086e-05
812,1.0901e-05,-2.81253e-05,6.61247e-05,2.94205e-05,-2.23631e-06,-2.64701e-05
813,1.26974e-05,-9.77359e-06,6.53794e-05,3.55202e-05,4.19923e-05,-1.54938e-05
814,1.73341e-05,7.13451e-06,5.48566e-05,4.03317e-05,6.99904e-05,-5.18184e-06
815,2.23427e-05,7.18253e-06,4.27435e-05,4.185e-05,7.13662e-05,8.92391e-06
816,2.49326e-05,-6.50321e-06,4.29263e-05,4.02961e-05,5.47632e-05,3.17444e-05
817,2.61998e-05,-2.71661e-05,5.39815e-05,3.26446e-05,3.79842e-05,5.18425e-05
818,2.67551e-05,-3.03716e-05,6.17152e-05,2.71468e-05,3.14119e-05,5.87151e-05
819,2.54674e-05,-8.31337e-06,5.97874e-05,3.268e-05,2.85318e-05,5.11307e-05
820,2.46767e-05,1.16536e-05,5.06625e-05,4.03049e-05,1.82452e-05,3.5594e-05
821,2.67449e-05,1.25451e-05,4.20124e-05,3.92739e-05,-1.50822e-07,1.94961e-05
822,2.72275e-05,1.52007e-06,4.34557e-05,3.29743e-05,-1.92289e-05,6.16334e-06
823,2.28185e-05,-2.44456e-05,5.56381e-05,2.59271e-05,-3.1187e-05,-5.68066e-06
824,1.87828e-05,-3.52629e-05,6.74406e-05,2.14059e-05,-3.10805e-05,-1.94884e-05
825,1.82869e-05,-5.71926e-06,7.13182e-05,2.44225e-05,-2.14944e-05,-4.49743e-05
826,1.89712e-05,1.4204e-05,6.67511e-05,2.69059e-05,-1.0175e-05,-6.33204e-05
827,1.96253e-05,1.10027e-05,5.6756e-05,2.31766e-05,-4.52614e-06,-6.47478e-05
828,1.72379e-05,1.23857e-05,5.26296e-05,2.02502e-05,-7.65343e-06,-6.74917e-05
829,1.22553e-05,1.22799e-05,6.14732e-05,2.44466e-05,-1.15348e-05,-8.45152e-05
830,1.0755e-05,8.14709e-06,7.06541e-05,3.43155e-05,-6.3411e-06,-0.000102684
831,1.11077e-05,-7.95002e-06,7.03712e-05,3.43905e-05,1.59802e-06,-9.55271e-05
832,8.48671e-06,-3.31383e-05,6.58877e-05,2.58645e-05,5.5314e-06,-7.63046e-05
833,4.78732e-06,-3.95777e-05,6.39494e-05,2.29455e-05,9.76196e-06,-7.14736e-05
834,4.20133e-06,-2.04411e-05,6.17001e-05,3.16684e-05,1.53133e-05,-8.69773e-05
835,7.34602e-06,-1.13828e-06,5.46015e-05,4.00513e-05,1.8154e-05,-0.000101391
836,1.06661e-05,5.45231e-06,4.74977e-05,4.18562e-05,1.35941e-05,-9.48698e-05
837,9.73285e-06,-5.81624e-06,4.978e-05,3.89334e-05,1.56927e-06,-7.1034e-05
838,3.88019e-06,-2.57605e-05,5.7904e-05,3.19248e-05,-6.58526e-06,-4.46484e-05
839,-2.54337e-06,-3.01041e-05,6.29222e-05,3.01946e-05,-8.03011e-07,-2.01009e-05
840,-4.339e-06,-9.63864e-06,6.11394e-05,3.93838e-05,1.29473e-05,4.54496e-06
841,-1.02026e-06,1.29947e-05,5.28072e-05,5.4498e-05,2.31653e-05,2.13702e-05
842,2.99052e-06,1.66638e-05,4.51045e-05,6.77607e-05,2.29024e-05,2.617e-05
843,4.22006e-06,1.86096e-06,4.74452e-05,7.09756e-05,1.35452e-05,2.86782e-05
844,4.05831e-06,-2.20118e-05,5.87294e-05,5.99461e-05,4.94755e-06,3.63613e-05
845,5.17648e-06,-2.94856e-05,6.69299e-05,4.99877e-05,6.4391e-06,4.54706e-05
846,6.61608e-06,-1.06047e-05,6.48332e-05,5.39409e-05,1.56834e-05,5.413e-05
847,7.62225e-06,6.70486e-06,5.39452e-05,6.38887e-05,2.4095e-05,6.036e-05
848,9.22312e-06,4.455e-06,4.25584e-05,6.59007e-05,2.65898e-05,5.9863e-05
849,1.0313e-05,-9.28013e-06,4.15608e-05,5.92538e-05,2.22167e-05,5.63561e-05
850,1.02195e-05,-3.63611e-05,5.18261e-05,4.85111e-05,1.53763e-05,5.72797e-05
851,9.47181e-06,-5.03855e-05,5.94476e-05,4.44737e-05,1.18186e-05,5.96501e-05
852,9.13938e-06,-2.52362e-05,5.75402e-05,5.06015e-05,1.1415e-05,5.1945e-05
853,1.2524e-05,1.76165e-06,4.88123e-05,5.33758e-05,1.2279e-05,3.95766e-05
854,2.07757e-05,6.95118e-06,3.81522e-05,4.92031e-05,1.31889e-05,3.66547e-05
855,2.74688e-05,8.28231e-06,3.53012e-05,4.69846e-05,1.38374e-05,4.43043e-05
856,2.54593e-05,8.32532e-06,4.22503e-05,4.5658e-05,1.7096e-05,6.66913e-05
857,1.89626e-05,7.20251e-06,4.80884e-05,4.89923e-05,2.57199e-05,0.000104151
858,1.59263e-05,-7.49604e-06,4.73569e-05,5.01978e-05,3.35375e-05,0.000140297
859,1.69129e-05,-2.66523e-05,4.58107e-05,4.07276e-05,2.93669e-05,0.000161932
860,1.85287e-05,-2.16101e-05,4.86466e-05,3.35088e-05,2.01025e-05,0.000173718
861,2.02507e-05,2.63355e-06,5.00915e-05,3.58019e-05,1.89542e-05,0.000179124
862,2.39167e-05,1.79709e-05,4.23857e-05,4.46426e-05,2.34627e-05,0.000175412
863,2.79559e-05,1.70783e-05,3.40508e-05,5.00696e-05,2.20726e-05,0.000161538
864,2.76068e-05,1.41152e-06,3.75276e-05,4.54801e-05,1.24523e-05,0.000139126
865,2.1824e-05,-2.2419e-05,4.56253e-05,3.60463e-05,3.44557e-06,0.000109794
866,1.49762e-05,-2.93293e-05,4.83869e-05,3.35447e-05,2.42894e-06,7.24268e-05
867,1.12706e-05,-1.04279e-05,4.41971e-05,4.07173e-05,8.07678e-06,2.5973e-05
868,1.39816e-05,8.60214e-06,3.436e-05,4.88116e-05,1.5152e-05,-2.78307e-05
869,1.96206e-05,8.11065e-06,2.59884e-05,5.11302e-05,1.9393e-05,-8.71483e-05
870,1.97054e-05,-7.5952e-06,2.89802e-05,4.7596e-05,1.87467e-05,-0.00014746
871,1.38947e-05,-3.11373e-05,4.07012e-05,3.91369e-05,1.90079e-05,-0.000189912
872,9.251e-06,-3.8128e-05,4.89246e-05,3.59663e-05,2.86081e-05,-0.000201255
873,8.60554e-06,-1.6393e-05,4.77932e-05,4.11639e-05,4.6042e-05,-0.000189622
874,9.59363e-06,9.66756e-06,3.83946e-05,4.30815e-05,5.98651e-05,-0.000165968
875,1.08691e-05,1.72643e-05,2.88603e-05,4.41844e-05,5.95404e-05,-0.000136328
876,1.09853e-05,3.63133e-06,3.13308e-05,4.71811e-05,4.54642e-05,-0.000105703
877,8.94645e-06,-2.74672e-05,4.60971e-05,4.17172e-05,2.87256e-05,-7.72566e-05
878,8.05478e-06,-4.02179e-05,5.79405e-05,3.46814e-05,1.76065e-05,-5.82988e-05
879,9.71618e-06,-1.06088e-05,5.72236e-05,3.91442e-05,1.30518e-05,-5.14448e-05
880,1.15738e-05,1.32624e-05,4.71563e-05,4.56594e-05,1.93381e-05,-5.29641e-05
881,1.31553e-05,1.28996e-05,3.76767e-05,4.76742e-05,4.79037e-05,-5.4443e-05
882,1.25136e-05,1.33066e-05,3.63988e-05,5.01761e-05,9.11366e-05,-5.16316e-05
883,8.01854e-06,1.48959e-05,4.17244e-05,4.78277e-05,0.00012292,-4.24405e-05
884,1.52839e-06,1.57915e-05,4.77636e-05,3.8679e-05,0.00012165,-3.0366e-05
885,-1.89892e-06,9.06346e-07,4.84482e-05,3.07894e-05,8.45212e-05,-2.4392e-05
886,-5.33792e-07,-2.64073e-05,4.59443e-05,2.60085e-05,3.3358e-05,-2.32798e-05
887,2.97917e-07,-2.96723e-05,4.67003e-05,2.6829e-05,-7.99557e-06,-2.11443e-05
888,-2.04879e-06,-7.66749e-06,4.45686e-05,3.38599e-05,-2.69223e-05,-1.90549e-05
889,-2.98555e-06,6.49375e-06,3.5508e-05,4.25872e-05,-3.33246e-05,-2.14846e-05
890,5.41876e-07,6.54535e-06,2.76992e-05,4.73081e-05,-4.91924e-05,-2.12147e-05
891,3.74996e-06,-6.80587e-06,3.29664e-05,4.07412e-05,-8.09951e-05,-1.65356e-05
892,1.56464e-06,-2.53486e-05,4.44867e-05,2.87155e-05,-0.000112847,-9.34251e-06
893,-3.57798e-06,-2.76696e-05,5.03412e-05,2.36056e-05,-0.000119427,1.33394e-06
894,-4.51527e-06,-7.16523e-06,4.83247e-05,2.93051e-05,-9.4982e-05,1.34636e-05
895,1.01825e-06,1.38613e-05,4.03015e-05,3.86099e-05,-5.63671e-05,1.98608e-05
896,7.14604e-06,1.73967e-05,3.42331e-05,4.4324e-05,-2.54809e-05,1.45152e-05
897,8.34967e-06,1.77132e-06,3.87776e-05,3.9726e-05,-1.42198e-05,9.33731e-07
898,7.64744e-06,-2.44392e-05,5.04454e-05,2.56659e-05,-1.5584e-05,-9.81081e-06
899,9.17189e-06,-3.51055e-05,5.77039e-05,1.77945e-05,-1.21435e-05,-1.15365e-05
900,1.16777e-05,-1.90565e-05,5.64157e-05,2.34058e-05,7.63083e-07,-9.35903e-06
901,1.32954e-05,1.92549e-06,4.77602e-05,3.39613e-05,1.37475e-05,-8.56474e-06
902,1.41481e-05,6.15897e-06,3.94508e-05,4.29218e-05,1.80781e-05,-1.03667e-05
903,1.33466e-05,-4.02609e-06,4.25636e-05,4.02882e-05,1.16133e-05,-1.58259e-05
904,1.18665e-05,-2.99954e-05,5.58257e-05,2.33121e-05,1.97625e-06,-2.73353e-05
905,1.35623e-05,-4.24652e-05,6.49171e-05,1.40003e-05,1.32694e-06,-4.21668e-05
906,1.6369e-05,-1.9786e-05,6.44953e-05,2.25689e-05,9.78442e-06,-5.11795e-05
907,1.59667e-05,-5.35209e-06,5.52762e-05,2.65952e-05,1.64745e-05,-4.52903e-05
908,1.63169e-05,-3.18478e-06,4.44528e-05,2.73197e-05,1.51729e-05,-2.37944e-05
909,2.0618e-05,4.97355e-06,4.8675e-05,3.47624e-05,6.64222e-06,-6.89059e-06
910,2.31873e-05,9.22502e-06,6.41347e-05,3.75037e-05,-9.94251e-07,-7.3391e-06
911,2.03914e-05,1.0023e-05,7.01474e-05,3.89481e-05,3.35032e-06,-1.7978e-05
912,1.64018e-05,-4.5518e-06,6.21769e-05,3.38477e-05,1.40549e-05,-3.68119e-05
913,1.59634e-05,-2.60763e-05,5.08159e-05,2.41497e-05,1.95579e-05,-5.84003e-05
914,1.5974e-05,-2.21843e-05,4.80239e-05,2.39203e-05,2.09524e-05,-7.28462e-05
915,1.48708e-05,5.2277e-06,4.89168e-05,3.27297e-05,1.93255e-05,-7.28122e-05
916,1.53409e-05,1.96222e-05,4.28073e-05,3.78642e-05,1.78243e-05,-6.43531e-05
917,1.73458e-05,1.60135e-05,3.51769e-05,3.92809e-05,1.44318e-05,-5.6199e-05
918,1.96389e-05,-2.01043e-06,3.95367e-05,3.43168e-05,5.86716e-06,-5.14361e-05
919,2.18678e-05,-2.49829e-05,5.12137e-05,2.51808e-05,1.06012e-06,-4.55808e-05
920,2.32497e-05,-3.28598e-05,5.86314e-05,2.66013e-05,7.3305e-06,-3.71967e-05
921,2.3143e-05,-1.9046e-05,5.73897e-05,3.8057e-05,1.95429e-05,-2.65854e-05
922,2.38151e-05,-1.71178e-06,4.73849e-05,4.36479e-05,2.8644e-05,-1.11494e-05
923,2.39288e-05,2.19122e-06,3.77128e-05,3.71028e-05,2.94831e-05,5.70085e-06
924,1.98159e-05,-1.07724e-05,3.98067e-05,2.92879e-05,2.3326e-05,1.87952e-05
925,1.38206e-05,-3.40976e-05,5.28638e-05,2.43499e-05,2.01092e-05,2.79314e-05
926,1.03368e-05,-3.89799e-05,6.47692e-05,2.31638e-05,2.58224e-05,2.97799e-05
927,8.73419e-06,-1.65438e-05,6.76396e-05,2.70088e-05,3.35248e-05,1.42779e-05
928,8.02847e-06,5.39795e-06,6.0254e-05,3.05046e-05,3.59511e-05,-1.14895e-05
929,8.69407e-06,7.14928e-06,5.01428e-05,2.91365e-05,3.31249e-05,-2.20569e-05
930,8.12451e-06,-3.41403e-06,4.97774e-05,2.86263e-05,2.52412e-05,-5.41003e-06
931,5.35558e-06,-2.75879e-05,5.89579e-05,2.61469e-05,1.6796e-05,1.95096e-05
932,4.67849e-06,-3.95473e-05,6.30168e-05,2.56198e-05,1.6952e-05,3.41532e-05
933,7.9391e-06,-1.64339e-05,5.66295e-05,3.12617e-05,2.52713e-05,3.31635e-05
934,1.22972e-05,1.67323e-06,4.60026e-05,3.60803e-05,3.12569e-05,2.36759e-05
935,1.52324e-05,2.48912e-06,3.87472e-05,4.35087e-05,2.75093e-05,1.65048e-05
936,1.32551e-05,7.31597e-06,4.34774e-05,5.23516e-05,1.33148e-05,1.61538e-05
937,6.57402e-06,1.05384e-05,5.82619e-05,5.36212e-05,7.73753e-08,1.51367e-05
938,9.21156e-07,8.07722e-06,6.73921e-05,5.29896e-05,2.33115e-06,1.12784e-05
939,-3.71389e-07,-1.0659e-05,6.47103e-05,4.76661e-05,1.26713e-05,5.24202e-06
940,6.65572e-07,-3.25286e-05,5.93297e-05,3.55001e-05,1.91798e-05,5.01666e-06
941,3.56213e-07,-3.03517e-05,6.08256e-05,3.01751e-05,3.116e-05,1.08775e-05
942,4.61169e-07,-6.54309e-06,6.23183e-05,3.66514e-05,5.9247e-05,6.34407e-06
943,3.9009e-06,6.49101e-06,5.53888e-05,4.4161e-05,9.40345e-05,-5.04917e-06
944,8.13131e-06,-3.36284e-07,4.49375e-05,4.71969e-05,0.000111701,-1.45345e-05
945,8.16828e-06,-1.93701e-05,4.28396e-05,4.24822e-05,0.000102303,-1.78399e-05
946,6.45586e-06,-3.9423e-05,4.90781e-05,3.27389e-05,8.06113e-05,-1.27925e-05
947,7.3396e-06,-3.97927e-05,5.72956e-05,3.09468e-05,6.04174e-05,-7.61108e-07
948,9.01949e-06,-1.84902e-05,6.09194e-05,3.92646e-05,3.93384e-05,3.66021e-06
949,9.89366e-06,-5.68095e-08,5.18449e-05,4.60267e-05,1.16919e-05,-4.56413e-06
950,1.00746e-05,2.0618e-06,3.78155e-05,4.63698e-05,-2.18977e-05,-1.40226e-05
951,9.44407e-06,-7.79879e-06,3.60718e-05,4.21458e-05,-5.32646e-05,-1.5196e-05
952,8.67542e-06,-2.64497e-05,4.66521e-05,3.4205e-05,-6.92209e-05,-1.09914e-05
953,9.12918e-06,-3.1433e-05,5.44314e-05,3.33015e-05,-6.16851e-05,-1.13738e-05
954,9.62461e-06,-1.19082e-05,5.32301e-05,4.56591e-05,-3.36707e-05,-1.95039e-05
955,9.86341e-06,5.62619e-06,4.41064e-05,5.44271e-05,3.25682e-06,-3.15641e-05
956,1.22795e-05,1.55821e-06,3.3713e-05,4.50475e-05,3.25819e-05,-4.06234e-05
957,1.55838e-05,-1.31956e-05,3.40774e-05,3.30777e-05,4.02135e-05,-4.23276e-05
958,1.62883e-05,-3.64071e-05,4.66968e-05,2.23199e-05,3.22623e-05,-4.51561e-05
959,1.482e-05,-4.56917e-05,5.66276e-05,2.14665e-05,3.13978e-05,-4.91812e-05
960,1.25681e-05,-2.03777e-05,5.54482e-05,3.48984e-05,4.60858e-05,-4.13079e-05
961,1.21113e-05,1.13664e-07,4.52722e-05,3.67865e-05,5.98309e-05,-2.63115e-05
962,1.55193e-05,9.70258e-07,3.43229e-05,3.14603e-05,6.01414e-05,-1.39335e-05
963,1.64572e-05,3.45668e-06,3.41141e-05,3.70375e-05,5.25681e-05,-1.35895e-05
964,1.02148e-05,5.33035e-06,4.32839e-05,4.7011e-05,5.42318e-05,-2.25821e-05
965,3.76444e-06,8.16498e-06,5.07664e-05,5.3274e-05,8.66445e-05,-3.15934e-05
966,1.99275e-06,-2.61457e-06,5.12888e-05,5.10164e-05,0.000125669,-3.48661e-05
967,4.25322e-06,-2.77884e-05,4.85221e-05,4.43414e-05,0.000132398,-3.06515e-05
968,8.39934e-06,-3.462e-05,5.05235e-05,4.51107e-05,0.000122794,-2.45082e-05
969,1.17205e-05,-1.00773e-05,5.34073e-05,5.24632e-05,0.000110979,-2.24277e-05
970,1.39337e-05,1.27771e-05,4.92474e-05,5.6832e-05,7.81405e-05,-2.60379e-05
971,1.5909e-05,1.35793e-05,4.11775e-05,5.86187e-05,1.37498e-05,-2.87149e-05
972,1.48021e-05,-4.56051e-06,4.15269e-05,5.81324e-05,-6.43784e-05,-2.33797e-05
973,1.01479e-05,-2.64005e-05,5.06489e-05,5.43285e-05,-0.000137743,-1.24981e-05
974,8.74448e-06,-2.91171e-05,5.55695e-05,5.40725e-05,-0.00019707,-7.00952e-06
975,1.27907e-05,-9.08716e-06,4.86965e-05,6.10457e-05,-0.000226678,-6.58665e-06
976,1.67431e-05,1.04864e-05,3.30543e-05,6.56453e-05,-0.000219257,-3.20902e-07
977,1.62625e-05,1.09467e-05,2.19503e-05,6.13751e-05,-0.000191478,1.57839e-05
978,1.33867e-05,-4.72577e-06,2.68464e-05,5.27563e-05,-0.000166323,3.81188e-05
979,1.23846e-05,-2.54824e-05,4.18862e-05,4.43e-05,-0.000144781,5.74199e-05
980,1.29721e-05,-2.63354e-05,5.23848e-05,4.41144e-05,-0.00011243,6.46499e-05
981,1.40233e-05,-4.1573e-06,5.24418e-05,5.33888e-05,-6.84517e-05,6.48037e-05
982,1.9018e-05,1.26124e-05,4.30651e-05,5.61986e-05,-3.14069e-05,5.9252e-05
983,2.66054e-05,1.15038e-05,3.29644e-05,4.76619e-05,-1.51121e-05,4.85251e-05
984,2.82419e-05,2.57001e-06,3.51392e-05,3.958e-05,-1.42571e-05,4.20171e-05
985,2.3034e-05,-2.24722e-05,4.91868e-05,2.82736e-05,-1.22298e-05,4.48836e-05
986,1.9081e-05,-3.55339e-05,5.91077e-05,1.94135e-05,1.95196e-06,5.38375e-05
987,2.15645e-05,-1.1259e-05,5.9677e-05,2.67287e-05,2.3058e-05,5.86017e-05
988,2.88499e-05,6.28459e-06,5.41186e-05,3.3558e-05,3.50434e-05,5.68971e-05
989,3.28207e-05,8.6031e-06,4.48086e-05,3.41763e-05,3.28214e-05,4.93584e-05
990,2.77429e-05,1.60783e-05,4.23424e-05,3.71564e-05,2.44399e-05,3.51088e-05
991,1.71441e-05,1.62111e-05,5.14333e-05,3.98488e-05,2.21204e-05,1.52065e-05
992,9.45859e-06,1.15587e-05,5.91734e-05,3.91554e-05,3.3663e-05,4.05197e-06
993,9.52002e-06,-3.41558e-06,5.92769e-05,2.91771e-05,4.77361e-05,-1.11521e-06
994,1.31504e-05,-2.61143e-05,5.85515e-05,1.52562e-05,5.0623e-05,-1.14282e-05
995,1.42023e-05,-2.65428e-05,6.12212e-05,1.07099e-05,4.8321e-05,-2.11195e-05
996,1.29373e-05,-3.76875e-06,6.04868e-05,1.67112e-05,4.77468e-05,-3.03595e-05
997,1.10469e-05,1.39592e-05,4.95185e-05,2.14537e-05,4.94556e-05,-4.13941e-05
998,9.10465e-06,1.6746e-05,3.8992e-05,2.14671e-05,4.90492e-05,-5.22149e-05
999,7.29973e-06,4.92585e-06,4.33624e-05,1.77307e-05,4.06308e-05,-5.49889e-05
1000,6.11755e-06,-1.48587e-05,5.58038e-05,1.38746e-05,3.47418e-05,-5.35176e-05
1001,6.90191e-06,-2.0428e-05,6.24773e-05,1.73798e-05,3.9791e-05,-5.00039e-05
1002,8.96279e-06,-4.80912e-06,5.89488e-05,2.74704e-05,4.8981e-05,-4.04152e-05
1003,1.16928e-05,1.00275e-05,4.76899e-05,3.45431e-05,5.56055e-05,-2.57997e-05
1004,1.45613e-05,1.00915e-05,3.91614e-05,3.49277e-05,5.69968e-05,-1.65754e-05
1005,1.47395e-05,-1.01718e-06,4.37464e-05,3.11356e-05,5.20006e-05,-2.04224e-05
1006,1.25146e-05,-1.95968e-05,5.6097e-05,2.56394e-05,4.63523e-05,-3.21348e-05
1007,1.14363e-05,-2.59411e-05,6.38607e-05,2.49831e-05,4.67844e-05,-3.9579e-05
1008,1.33361e-05,-6.32992e-06,6.44813e-05,3.16903e-05,4.99236e-05,-3.80305e-05
1009,1.70366e-05,1.9402e-05,5.73525e-05,3.63311e-05,4.94345e-05,-3.31395e-05
1010,1.89822e-05,2.58189e-05,4.27642e-05,3.21933e-05,4.35918e-05,-3.12029e-05
1011,1.57316e-05,9.34232e-06,3.21747e-05,2.48479e-05,3.33193e-05,-3.62481e-05
1012,8.32817e-06,-2.16554e-05,3.56153e-05,1.98382e-05,2.61862e-05,-4.43487e-05
1013,2.38891e-06,-3.12374e-05,4.42614e-05,2.60727e-05,3.16451e-05,-4.8668e-05
1014,8.35327e-07,-1.0699e-06,4.62989e-05,4.02371e-05,4.38939e-05,-5.04266e-05
1015,4.55562e-06,1.63602e-05,4.04296e-05,4.24487e-05,4.91455e-05,-5.9819e-05
1016,1.17161e-05,1.32036e-05,3.49007e-05,3.21162e-05,4.41961e-05,-7.49224e-05
1017,1.36643e-05,1.74514e-05,3.86933e-05,2.74717e-05,3.39336e-05,-7.25808e-05
1018,8.30894e-06,2.15794e-05,4.93406e-05,3.07627e-05,2.45703e-05,-4.72689e-05
1019,5.01411e-06,2.15492e-05,5.6475e-05,3.30819e-05,2.4025e-05,-2.61623e-05
1020,7.6792e-06,4.48216e-06,5.44698e-05,2.72835e-05,2.77731e-05,-2.092e-05
1021,1.05226e-05,-2.28504e-05,4.96198e-05,1.70298e-05,2.81336e-05,-2.58609e-05
1022,9.02765e-06,-2.97962e-05,4.71078e-05,1.5877e-05,2.94361e-05,-3.36888e-05
1023,8.53959e-06,-1.15912e-05,4.25102e-05,2.85139e-05,3.13428e-05,-3.78301e-05
1024,1.43406e-05,9.32054e-07,3.36489e-05,4.25775e-05,2.98958e-05,-3.27827e-05
1025,2.08479e-05,1.02143e-06,2.88303e-05,4.88604e-05,2.39961e-05,-2.2503e-05
1026,1.89801e-05,-1.00955e-05,3.85438e-05,4.49203e-05,1.65197e-05,-1.52894e-05
1027,1.1955e-05,-2.70756e-05,5.13154e-05,3.23443e-05,1.40369e-05,-1.0555e-05
1028,7.8671e-06,-3.02074e-05,5.39487e-05,2.62145e-05,1.98509e-05,-5.56372e-06
1029,9.50283e-06,-1.22565e-05,4.87822e-05,3.41089e-05,2.77199e-05,-3.83777e-06
1030,1.63706e-05,6.332e-06,4.04698e-05,4.41214e-05,2.78505e-05,-1.39616e-05
1031,2.14688e-05,9.85851e-06,3.43991e-05,4.56883e-05,1.68242e-05,-2.54954e-05
1032,1.86938e-05,-2.11738e-06,3.90507e-05,3.90005e-05,2.64264e-06,-2.1227e-05
1033,1.22991e-05,-2.45862e-05,5.28943e-05,2.87199e-05,-1.34782e-06,-8.50753e-06
1034,1.02853e-05,-3.14909e-05,6.3696e-05,2.61441e-05,6.43785e-06,-5.55323e-06
1035,1.35191e-05,-1.21488e-05,6.51144e-05,3.60804e-05,1.66929e-05,-1.01174e-05
1036,1.83747e-05,6.85699e-06,5.8184e-05,4.45249e-05,2.31563e-05,-1.32576e-05
1037,2.10276e-05,5.73494e-06,4.99381e-05,4.45416e-05,2.42239e-05,-9.51044e-06
1038,1.81365e-05,-8.34047e-06,5.05459e-05,3.77402e-05,1.77346e-05,5.20874e-07
1039,1.12597e-05,-3.58063e-05,5.88992e-05,2.69345e-05,7.92715e-06,3.62978e-06
1040,6.94311e-06,-4.75113e-05,6.45578e-05,2.4295e-05,5.05209e-06,2.2027e-06
1041,6.36688e-06,-2.32149e-05,6.55825e-05,3.27544e-05,1.11045e-05,8.82357e-06
1042,6.1623e-06,-5.60317e-06,5.99145e-05,3.81985e-05,1.79778e-05,2.77121e-05
1043,5.89704e-06,-3.11376e-06,4.79043e-05,3.91829e-05,1.70278e-05,4.9775e-05
1044,4.26271e-06,3.82767e-06,4.09501e-05,4.34983e-05,5.24807e-06,5.91979e-05
1045,-5.01464e-07,3.44189e-06,4.53013e-05,4.64138e-05,-5.96367e-06,5.70785e-05
1046,-3.90541e-06,1.04647e-06,5.34758e-05,4.61783e-05,2.36793e-06,4.89882e-05
1047,2.39552e-07,-9.87906e-06,5.87853e-05,3.87198e-05,2.67868e-05,3.82393e-05
1048,7.48948e-06,-2.79302e-05,6.09674e-05,3.13272e-05,5.12863e-05,3.31202e-05
1049,1.09553e-05,-2.85139e-05,6.19161e-05,3.36214e-05,6.88873e-05,3.61262e-05
1050,1.28928e-05,-9.62671e-06,6.1906e-05,4.28576e-05,7.58544e-05,3.62975e-05
1051,1.52044e-05,4.53335e-06,5.76635e-05,4.76426e-05,7.30862e-05,2.6717e-05
1052,1.75341e-05,5.85205e-06,5.06329e-05,4.44962e-05,5.79663e-05,1.30157e-05
1053,1.97561e-05,-6.28637e-06,5.30854e-05,3.52306e-05,2.89285e-05,-5.41295e-06
1054,2.21755e-05,-2.50569e-05,6.32219e-05,2.4574e-05,-3.26487e-06,-2.95826e-05
1055,2.19696e-05,-2.86549e-05,6.77366e-05,2.43939e-05,-2.16026e-05,-4.73368e-05
1056,1.91056e-05,-9.53202e-06,6.12716e-05,3.76474e-05,-1.89792e-05,-4.89716e-05
1057,1.89339e-05,1.00909e-05,4.76024e-05,5.26223e-05,-2.99595e-06,-3.74851e-05
1058,2.13676e-05,7.81332e-06,3.77513e-05,5.58166e-05,1.18581e-05,-1.90647e-05
1059,2.09229e-05,-1.42881e-05,4.13117e-05,4.79482e-05,1.53626e-05,-4.64044e-06
1060,1.69238e-05,-4.20041e-05,5.26324e-05,3.66839e-05,1.3575e-05,-6.65445e-06
1061,1.3239e-05,-4.90989e-05,5.90957e-05,3.40583e-05,2.04576e-05,-2.76441e-05
1062,1.13299e-05,-2.59645e-05,5.85689e-05,4.35e-05,3.65374e-05,-5.87231e-05
1063,1.15641e-05,-2.28904e-07,5.29928e-05,5.27862e-05,4.6795e-05,-8.47886e-05
1064,1.25374e-05,6.2403e-06,4.66676e-05,4.97136e-05,4.17829e-05,-0.00010177
1065,1.00727e-05,-9.32646e-07,4.82469e-05,3.98392e-05,2.6529e-05,-0.000115351
1066,2.6925e-06,-2.74556e-05,5.85882e-05,3.08475e-05,1.23946e-05,-0.000119852
1067,-3.7931e-06,-4.3787e-05,6.76399e-05,2.87344e-05,5.49944e-06,-0.000116078
1068,-3.73373e-06,-2.50852e-05,7.07515e-05,3.58874e-05,2.31734e-06,-9.97678e-05
1069,3.24962e-06,-1.0042e-05,6.53622e-05,3.80794e-05,-1.23791e-06,-6.90094e-05
1070,1.03785e-05,-1.08094e-05,5.29821e-05,3.68413e-05,-7.14856e-06,-4.28508e-05
1071,1.05974e-05,-1.08204e-05,4.82963e-05,4.17676e-05,-1.99127e-05,-3.35771e-05
1072,7.94239e-06,-9.82731e-06,5.69381e-05,4.22588e-05,-3.33364e-05,-3.6287e-05
1073,8.26309e-06,-7.28589e-06,6.45182e-05,4.13633e-05,-3.40526e-05,-3.81145e-05
1074,1.02085e-05,-1.93133e-05,6.49942e-05,3.75321e-05,-2.14096e-05,-3.75762e-05
1075,1.06129e-05,-4.10338e-05,6.5209e-05,3.22285e-05,-4.78042e-06,-3.16547e-05
1076,8.09747e-06,-3.96201e-05,7.09744e-05,3.41736e-05,9.76695e-06,-2.51242e-05
1077,6.8075e-06,-1.30606e-05,7.51822e-05,3.97098e-05,1.67959e-05,-2.16595e-05
1078,1.04936e-05,8.35153e-06,6.74262e-05,4.45162e-05,1.57725e-05,-2.10734e-05
1079,1.67052e-05,1.3739e-05,5.58761e-05,5.06714e-05,1.33733e-05,-2.35042e-05
1080,1.82067e-05,1.07643e-07,5.66346e-05,5.12189e-05,1.34161e-05,-2.45844e-05
1081,1.35577e-05,-2.07757e-05,6.57364e-05,4.37459e-05,1.89022e-05,-2.11691e-05
1082,9.17077e-06,-2.38599e-05,6.88396e-05,4.20827e-05,2.8992e-05,-1.46744e-05
1083,8.88624e-06,-4.52565e-06,6.37582e-05,5.05863e-05,3.40091e-05,-1.31388e-05
1084,1.27146e-05,1.34082e-05,5.62382e-05,5.71409e-05,2.96009e-05,-1.3983e-05
1085,1.76749e-05,1.44129e-05,5.35166e-05,5.44115e-05,1.87293e-05,-9.48528e-06
1086,1.75096e-05,1.52476e-06,5.90679e-05,4.928e-05,3.42946e-06,2.20032e-06
1087,1.00934e-05,-2.2083e-05,6.71098e-05,4.49285e-05,-1.12083e-05,1.8391e-05
1088,1.84238e-06,-3.40911e-05,7.03735e-05,4.57614e-05,-1.86157e-05,3.34997e-05
1089,-1.40038e-06,-2.02125e-05,6.76636e-05,5.16274e-05,-1.97507e-05,3.70966e-05
1090,1.36665e-06,-1.44173e-06,5.86992e-05,5.55519e-05,-1.90408e-05,2.92161e-05
1091,6.82403e-06,4.47225e-06,4.8637e-05,4.95931e-05,-1.56595e-05,1.26659e-05
1092,9.85226e-06,-1.65149e-06,4.9334e-05,4.27959e-05,-1.02056e-05,-5.37208e-06
1093,9.72536e-06,-2.3773e-05,6.01081e-05,3.74654e-05,-2.76188e-06,-1.77975e-05
1094,9.59914e-06,-3.44746e-05,6.59168e-05,3.08625e-05,8.18979e-06,-2.83936e-05
1095,1.07421e-05,-9.9166e-06,6.27549e-05,3.34261e-05,1.80211e-05,-3.73528e-05
1096,1.3462e-05,1.01373e-05,5.54848e-05,3.82501e-05,2.18061e-05,-3.86971e-05
1097,1.69882e-05,9.67684e-06,4.92599e-05,3.99932e-05,2.07109e-05,-1.9571e-05
1098,1.70192e-05,1.32676e-05,5.28796e-05,4.14818e-05,1.39889e-05,2.16235e-05
1099,1.18902e-05,1.44824e-05,6.48326e-05,3.86188e-05,5.84406e-06,5.84521e-05
1100,7.17023e-06,1.27794e-05,7.05351e-05,3.62042e-05,7.08937e-06,7.09108e-05
1101,6.8381e-06,-2.85051e-06,6.57146e-05,3.17113e-05,1.31384e-05,7.06635e-05
1102,1.04002e-05,-2.58883e-05,6.0404e-05,2.91519e-05,1.49996e-05,7.97376e-05
1103,1.29437e-05,-2.34332e-05,6.32768e-05,3.58914e-05,1.46815e-05,0.000102801
1104,1.21996e-05,5.3946e-06,6.78522e-05,4.38415e-05,1.42686e-05,0.00011921
1105,1.31597e-05,2.35477e-05,6.16719e-05,4.6686e-05,1.55374e-05,0.000108282
1106,1.73626e-05,1.92445e-05,5.14121e-05,4.71707e-05,1.55713e-05,7.22249e-05
1107,1.84092e-05,-1.88034e-07,5.26072e-05,4.24079e-05,1.23353e-05,3.35942e-05
1108,1.42188e-05,-2.11946e-05,6.04491e-05,3.16687e-05,1.25106e-05,9.1435e-06
1109,9.92594e-06,-2.23107e-05,6.36683e-05,2.83516e-05,1.64548e-05,1.70395e-06
1110,9.51984e-06,-3.06949e-06,5.98383e-05,3.6652e-05,1.82358e-05,8.41532e-06
1111,1.3917e-05,1.57175e-05,4.93881e-05,4.48208e-05,2.00727e-05,2.07633e-05
1112,1.81506e-05,1.91514e-05,3.90238e-05,4.51391e-05,2.20409e-05,2.7319e-05
1113,1.66377e-05,9.11054e-06,3.89758e-05,3.935e-05,1.94271e-05,2.86827e-05
1114,1.09499e-05,-1.05973e-05,4.81162e-05,3.12214e-05,1.55216e-05,3.39748e-05
1115,7.10377e-06,-1.6655e-05,5.66484e-05,2.99281e-05,1.74693e-05,3.66424e-05
1116,7.78231e-06,-1.38798e-07,5.87428e-05,3.84031e-05,2.27712e-05,3.29848e-05
1117,1.17583e-05,1.65974e-05,5.16505e-05,4.67007e-05,2.3564e-05,2.88739e-05
1118,1.50088e-05,1.53914e-05,3.88629e-05,4.55308e-05,1.57778e-05,2.13234e-05
1119,1.3165e-05,3.19321e-06,3.35514e-05,3.57873e-05,-1.01623e-06,1.152e-05
1120,6.99683e-06,-2.18743e-05,4.2248e-05,2.50799e-05,-1.62008e-05,8.15221e-06
1121,2.27364e-06,-3.47924e-05,5.51953e-05,2.46533e-05,-1.50014e-05,8.90287e-06
1122,2.96388e-06,-1.36698e-05,6.06726e-05,3.68012e-05,-2.04416e-06,-2.96709e-07
1123,7.3134e-06,1.04449e-06,5.45179e-05,4.41866e-05,6.27848e-06,-6.15468e-06
1124,9.45564e-06,2.10103e-06,4.3019e-05,4.5714e-05,5.90483e-06,-2.52081e-06
1125,8.25667e-06,8.99621e-06,3.95681e-05,4.87763e-05,-5.96275e-07,-4.9977e-06
1126,7.56855e-06,1.60638e-05,4.77877e-05,4.66788e-05,-4.18888e-06,-1.59517e-05
1127,8.23014e-06,1.96008e-05,5.44451e-05,4.56511e-05,7.52665e-06,-3.32443e-05
1128,9.06487e-06,6.1983e-06,5.09778e-05,4.05687e-05,2.77754e-05,-5.03141e-05
1129,7.0401e-06,-1.85707e-05,4.46845e-05,2.91581e-05,4.04295e-05,-6.41999e-05
1130,2.8424e-06,-2.30596e-05,4.36906e-05,2.13266e-05,4.48499e-05,-6.80863e-05
1131,3.89412e-06,-2.02532e-06,4.28182e-05,2.37073e-05,4.48907e-05,-6.28809e-05
1132,1.20902e-05,1.42861e-05,3.70124e-05,3.13921e-05,3.89732e-05,-5.06254e-05
1133,2.00381e-05,1.44134e-05,3.32105e-05,3.59478e-05,2.36794e-05,-3.50574e-05
1134,1.89353e-05,-2.58868e-06,4.00832e-05,2.73758e-05,1.30495e-06,-2.16772e-05
1135,1.0779e-05,-2.92898e-05,5.00061e-05,1.00426e-05,-1.47001e-05,-1.20636e-05
1136,5.57264e-06,-3.96131e-05,5.16777e-05,7.08053e-06,-1.46537e-05,-7.41217e-06
1137,7.10204e-06,-2.28226e-05,4.64944e-05,2.21219e-05,-5.39216e-06,-5.00969e-06
1138,1.33465e-05,-2.98988e-06,3.73489e-05,3.78582e-05,3.13737e-06,-3.66556e-06
1139,1.90135e-05,1.43039e-06,2.89853e-05,4.17607e-05,9.5543e-06,-2.75033e-06
1140,1.9258e-05,-7.8461e-06,2.95628e-05,3.56575e-05,1.98919e-05,-1.32547e-06
1141,1.5428e-05,-2.74958e-05,3.9351e-05,2.41507e-05,3.63034e-05,3.54816e-06
1142,1.22219e-05,-3.63151e-05,4.99227e-05,1.92824e-05,4.8878e-05,5.75097e-06
1143,1.06863e-05,-2.068e-05,5.51312e-05,3.02975e-05,4.55719e-05,2.72403e-06
1144,1.10523e-05,-4.67946e-07,5.17072e-05,4.68798e-05,2.76801e-05,-2.17148e-06
1145,1.26379e-05,3.62789e-06,4.2448e-05,5.14825e-05,7.82373e-06,-9.95704e-06
1146,1.1186e-05,-7.55551e-06,3.96456e-05,4.49416e-05,-6.69732e-06,-1.57283e-05
1147,6.57855e-06,-3.27407e-05,4.83036e-05,3.40131e-05,-1.53263e-05,-8.06653e-06
1148,4.55363e-06,-4.32332e-05,5.87752e-05,2.85398e-05,-1.76019e-05,5.31476e-06
1149,7.81599e-06,-1.8605e-05,6.12201e-05,3.5988e-05,-1.59359e-05,8.06999e-06
1150,1.33874e-05,4.21482e-07,5.13217e-05,5.01691e-05,-1.49741e-05,-1.40353e-06
1151,1.67099e-05,7.80139e-07,3.63556e-05,5.80044e-05,-1.53466e-05,-1.40425e-05
1152,1.50566e-05,3.28516e-06,3.13622e-05,6.0866e-05,-1.73416e-05,-2.28992e-05
1153,1.16013e-05,5.643e-06,4.01119e-05,6.40562e-05,-1.64324e-05,-2.78029e-05
1154,9.22654e-06,9.43402e-06,5.06355e-05,6.39671e-05,-6.93967e-06,-2.90214e-05
1155,7.86529e-06,-1.52368e-08,5.13133e-05,5.70301e-05,1.42238e-06,-2.92295e-05
1156,8.36949e-06,-2.05722e-05,4.61562e-05,4.63981e-05,3.82541e-07,-3.04635e-05
1157,8.86903e-06,-1.99555e-05,4.53431e-05,4.68547e-05,-9.44245e-07,-3.73752e-05
1158,1.00324e-05,3.22333e-06,4.75388e-05,5.69943e-05,3.36526e-06,-4.81143e-05
1159,1.3495e-05,1.69006e-05,4.47191e-05,6.24815e-05,9.1811e-06,-5.92683e-05
1160,1.61658e-05,1.24621e-05,3.72747e-05,5.84045e-05,7.51784e-06,-6.80404e-05
1161,1.48736e-05,-5.46709e-06,3.58791e-05,4.52766e-05,-1.82746e-06,-6.88208e-05
1162,1.18738e-05,-2.54474e-05,4.20989e-05,3.17716e-05,-6.39112e-06,-6.37568e-05
1163,1.1743e-05,-2.71675e-05,4.77828e-05,3.03926e-05,-1.98851e-06,-5.78263e-05
1164,1.36442e-05,-8.62789e-06,4.54767e-05,4.19639e-05,3.75423e-06,-5.31066e-05
1165,1.64763e-05,9.56458e-06,3.37734e-05,5.02183e-05,6.70606e-06,-4.96521e-05
1166,1.98905e-05,1.22265e-05,2.23607e-05,4.85239e-05,5.91001e-06,-5.0351e-05
1167,2.03991e-05,-9.15869e-07,2.54438e-05,4.11164e-05,4.09833e-06,-5.25988e-05
1168,1.65695e-05,-2.43407e-05,4.21202e-05,3.14437e-05,1.06476e-05,-5.13423e-05
1169,1.26379e-05,-3.39971e-05,5.61744e-05,2.901e-05,2.39634e-05,-4.50954e-05
1170,1.25069e-05,-1.76252e-05,5.90368e-05,3.65487e-05,2.75013e-05,-3.68681e-05
1171,1.50918e-05,2.01798e-06,5.21151e-05,4.44043e-05,1.69117e-05,-3.41847e-05
1172,1.81154e-05,5.88822e-06,4.099e-05,4.70792e-05,4.72556e-06,-3.64102e-05
1173,1.97565e-05,-5.42769e-06,3.68199e-05,4.21493e-05,-7.1003e-07,-3.66963e-05
1174,1.87586e-05,-3.63174e-05,4.58219e-05,2.98914e-05,1.12248e-05,-3.99292e-05
1175,1.6315e-05,-5.22582e-05,5.71397e-05,2.52448e-05,5.26933e-05,-5.55054e-05
1176,1.44047e-05,-2.54222e-05,6.03385e-05,3.34648e-05,0.000107597,-7.55376e-05
1177,1.5228e-05,-1.79882e-06,5.38667e-05,4.07198e-05,0.000135872,-8.5376e-05
1178,1.88309e-05,6.73057e-07,4.18145e-05,4.01022e-05,0.000120362,-8.36576e-05
1179,2.01156e-05,6.98449e-07,3.49609e-05,3.73497e-05,7.55895e-05,-7.64306e-05
1180,1.52342e-05,2.25512e-06,3.738e-05,3.82852e-05,2.27351e-05,-7.22516e-05
1181,1.05042e-05,8.29248e-06,4.18283e-05,4.15678e-05,-2.58618e-05,-7.17216e-05
1182,1.22147e-05,1.06433e-06,4.23657e-05,3.4466e-05,-6.70869e-05,-6.73786e-05
1183,1.4716e-05,-1.91845e-05,3.98504e-05,2.14272e-05,-9.69656e-05,-5.75723e-05
1184,1.2032e-05,-2.43381e-05,3.79496e-05,1.91686e-05,-0.000108277,-4.17136e-05
1185,7.85645e-06,-6.44415e-06,3.54051e-05,3.0294e-05,-9.48248e-05,-2.40443e-05
1186,8.86503e-06,1.01532e-05,2.91968e-05,3.91102e-05,-6.00009e-05,-1.49867e-05
1187,1.36095e-05,1.29799e-05,2.35608e-05,3.76451e-05,-1.80263e-05,-1.35351e-05
1188,1.49365e-05,-1.63634e-06,2.87154e-05,2.98228e-05,1.84943e-05,-8.55101e-06
1189,1.13855e-05,-2.24103e-05,4.10193e-05,2.12179e-05,4.34784e-05,4.24615e-06
1190,7.22e-06,-2.5198e-05,4.91749e-05,1.99887e-05,5.14877e-05,2.4502e-05
1191,6.74374e-06,-7.0958e-06,5.01167e-05,2.76796e-05,4.50574e-05,4.79048e-05
1192,1.16484e-05,9.15098e-06,4.43602e-05,3.48055e-05,3.55697e-05,6.60853e-05
1193,1.68464e-05,1.1275e-05,3.71684e-05,3.31781e-05,2.46251e-05,6.95875e-05
1194,1.60411e-05,1.71913e-06,3.72607e-05,2.37421e-05,8.30349e-06,5.8543e-05
1195,1.28016e-05,-1.73468e-05,4.4734e-05,1.11094e-05,-5.85457e-06,4.25732e-05
1196,1.20839e-05,-2.472e-05,5.24697e-05,1.02527e-05,-6.14262e-06,2.54507e-05
1197,1.22147e-05,-9.09274e-06,5.60518e-05,2.79838e-05,5.5296e-06,3.32736e-06
1198,1.18933e-05,7.3543e-06,5.13594e-05,4.16444e-05,1.92473e-05,-1.51666e-05
1199,1.22185e-05,7.06474e-06,4.02462e-05,3.66305e-05,2.99859e-05,-2.25254e-05
1200,1.28842e-05,-1.03449e-06,3.58289e-05,2.74941e-05,3.90207e-05,-2.04559e-05
1201,1.27342e-05,-2.16988e-05,4.49217e-05,2.17137e-05,5.41217e-05,-8.88744e-06
1202,1.10138e-05,-3.36098e-05,5.70753e-05,2.44189e-05,7.65779e-05,6.71115e-07
1203,8.46545e-06,-1.37223e-05,6.27898e-05,3.03704e-05,9.03543e-05,3.82352e-06
1204,8.75204e-06,1.23765e-06,5.84332e-05,2.9574e-05,8.49134e-05,5.00842e-06
1205,1.4252e-05,2.48865e-06,4.63187e-05,2.60403e-05,6.47674e-05,8.19076e-06
1206,1.85924e-05,7.22725e-06,4.02758e-05,2.40897e-05,3.33407e-05,1.22727e-05
1207,1.65371e-05,9.10195e-06,4.82036e-05,2.91633e-05,-5.08137e-06,1.59064e-05
1208,1.35753e-05,8.08953e-06,6.08981e-05,3.34645e-05,-3.56154e-05,2.00321e-05
1209,1.35621e-05,-4.85498e-06,6.60721e-05,2.45575e-05,-4.63675e-05,1.74541e-05
1210,1.3647e-05,-2.40801e-05,6.3193e-05,1.32001e-05,-4.27008e-05,1.1675e-05
1211,1.4435e-05,-2.46089e-05,6.24619e-05,1.76766e-05,-2.93331e-05,1.12993e-05
1212,1.78974e-05,-6.10525e-06,6.29356e-05,3.25514e-05,-9.22886e-06,1.59922e-05
1213,2.02804e-05,5.25015e-06,5.44715e-05,3.872e-05,5.61693e-06,1.97901e-05
1214,2.08082e-05,1.25425e-06,4.30293e-05,3.64221e-05,8.8927e-06,1.92624e-05
1215,1.66573e-05,-1.72767e-05,4.45411e-05,3.02028e-05,5.20686e-06,1.93728e-05
1216,7.97962e-06,-4.06952e-05,5.59335e-05,2.37051e-05,5.07357e-06,2.32245e-05
1217,3.03324e-06,-4.41474e-05,6.39377e-05,2.61681e-05,1.37465e-05,2.44302e-05
1218,5.76153e-06,-2.08997e-05,6.11351e-05,4.06485e-05,2.38841e-05,1.7372e-05
1219,1.27462e-05,3.29363e-06,4.85109e-05,5.58271e-05,2.78457e-05,2.68692e-06
1220,1.76491e-05,8.43197e-06,3.4891e-05,6.47501e-05,2.34028e-05,-1.2233e-05
1221,1.59605e-05,-3.28122e-06,3.11177e-05,6.49892e-05,1.55633e-05,-1.91835e-05
1222,1.09097e-05,-2.58281e-05,3.79116e-05,5.64243e-05,1.36898e-05,-2.07049e-05
1223,9.25018e-06,-3.10193e-05,4.60506e-05,5.14191e-05,2.03928e-05,-2.23568e-05
1224,1.01694e-05,-3.20149e-06,4.87707e-05,5.43006e-05,2.77186e-05,-1.97157e-05
1225,1.00047e-05,3.1115e-05,4.37262e-05,5.41171e-05,2.90996e-05,-1.24391e-05
1226,9.7655e-06,4.36256e-05,3.54694e-05,4.84655e-05,2.53271e-05,-9.059e-06
1227,1.17087e-05,3.1228e-05,3.53341e-05,4.47479e-05,1.91058e-05,-1.23707e-05
1228,1.52527e-05,-9.30868e-07,4.69064e-05,4.3245e-05,1.44469e-05,-1.7769e-05
1229,1.83953e-05,-2.07101e-05,5.83074e-05,4.27483e-05,1.61081e-05,-2.02671e-05
1230,1.83361e-05,-3.33252e-06,5.97166e-05,4.88288e-05,2.20915e-05,-2.17817e-05
1231,1.62042e-05,1.28283e-05,5.07044e-05,4.93476e-05,2.72095e-05,-2.21293e-05
1232,1.37673e-05,1.2488e-05,3.9224e-05,4.27222e-05,3.01868e-05,-2.50727e-05
1233,9.99824e-06,1.19922e-05,3.75181e-05,4.09184e-05,2.70758e-05,-2.67349e-05
1234,6.58551e-06,1.10798e-05,4.89989e-05,3.72666e-05,2.17815e-05,-2.57721e-05
1235,5.88947e-06,1.14564e-05,6.05429e-05,3.63651e-05,2.6255e-05,-2.13527e-05
1236,4.24754e-06,-1.62481e-06,6.15316e-05,3.10942e-05,3.46143e-05,-1.51819e-05
1237,-4.40247e-07,-2.4572e-05,5.83012e-05,2.02713e-05,3.71323e-05,-1.15509e-05
1238,-4.40808e-06,-2.63214e-05,6.00722e-05,1.28069e-05,3.71393e-05,-1.39815e-05
1239,-5.30839e-06,-7.10061e-06,6.31e-05,1.37964e-05,3.93682e-05,-2.4379e-05
1240,-2.60005e-06,5.96695e-06,5.96088e-05,1.91315e-05,5.42671e-05,-2.80082e-05
1241,9.00145e-07,9.00706e-06,5.3217e-05,2.71023e-05,7.99135e-05,-2.6256e-05
1242,-7.4156e-07,-9.17264e-07,5.63859e-05,3.07324e-05,9.72355e-05,-2.42592e-05
1243,-5.13138e-06,-2.05428e-05,6.65961e-05,2.13522e-05,9.97794e-05,-2.28884e-05
1244,-5.86229e-06,-2.68459e-05,7.22018e-05,9.56878e-06,8.66014e-05,-1.59254e-05
1245,-2.35473e-06,-9.88721e-06,6.85802e-05,9.12597e-06,5.32862e-05,-4.15014e-06
1246,2.57257e-06,7.98724e-06,5.62159e-05,1.87235e-05,1.22754e-05,3.73283e-06
1247,7.55383e-06,7.76373e-06,4.38331e-05,2.70792e-05,-1.43545e-05,3.13373e-06
1248,1.26844e-05,-8.83765e-06,4.33881e-05,2.78897e-05,-2.13998e-05,-3.53764e-06
1249,1.72612e-05,-3.16176e-05,5.46016e-05,1.89147e-05,-2.10413e-05,-8.6912e-06
1250,1.9545e-05,-3.78736e-05,6.52219e-05,1.52963e-05,-2.5156e-05,-3.68768e-06
1251,1.86746e-05,-1.7758e-05,6.82702e-05,2.41206e-05,-3.2547e-05,1.1753e-05
1252,1.7476e-05,3.61247e-06,6.41671e-05,3.40687e-05,-2.93152e-05,2.23689e-05
1253,1.76669e-05,4.82173e-06,5.78586e-05,3.62178e-05,-9.11135e-06,2.34555e-05
1254,1.60402e-05,-1.29e-05,5.83495e-05,3.13842e-05,1.05845e-05,1.93209e-05
1255,1.11489e-05,-4.51935e-05,6.53428e-05,2.08859e-05,1.2875e-05,1.13671e-05
1256,8.74749e-06,-5.70903e-05,6.69683e-05,1.73817e-05,5.02663e-06,-3.27376e-07
1257,1.04136e-05,-2.85865e-05,6.23909e-05,2.38606e-05,1.03431e-06,-3.00337e-06
1258,1.14374e-05,-5.8283e-06,5.53829e-05,2.55796e-05,-7.90102e-07,3.14946e-06
1259,1.14739e-05,-4.71491e-06,4.67249e-05,2.37502e-05,-1.05903e-05,2.15672e-07
1260,1.03813e-05,-5.85891e-06,4.7104e-05,2.57845e-05,-2.89195e-05,-3.72266e-06
1261,8.4701e-06,-9.39271e-06,5.99143e-05,3.21044e-05,-3.99819e-05,-1.88368e-07
1262,1.16244e-05,-1.14084e-05,7.04039e-05,3.8083e-05,-2.89014e-05,1.90402e-06
1263,1.92257e-05,-2.52334e-05,7.07651e-05,3.25696e-05,-6.86247e-06,3.29914e-06
1264,2.22968e-05,-4.96259e-05,6.75492e-05,2.27196e-05,9.94648e-06,1.09211e-05
1265,1.87842e-05,-5.33633e-05,6.77826e-05,2.52038e-05,1.99027e-05,2.06903e-05
1266,1.41932e-05,-2.68815e-05,6.88523e-05,3.82617e-05,2.27666e-05,2.14674e-05
1267,1.34847e-05,-3.55781e-06,6.62449e-05,4.9964e-05,1.9661e-05,2.01221e-05
1268,1.75297e-05,5.57392e-07,6.29583e-05,5.51759e-05,1.18589e-05,2.23745e-05
1269,1.84512e-05,-1.58477e-05,6.48502e-05,5.11752e-05,3.80302e-06,2.15029e-05
1270,1.41097e-05,-3.81456e-05,6.8614e-05,4.31445e-05,3.58165e-06,1.52981e-05
1271,9.99995e-06,-3.97702e-05,7.00324e-05,4.12947e-05,1.13372e-05,1.374e-05
1272,8.84091e-06,-1.77212e-05,6.76032e-05,4.59379e-05,1.93592e-05,2.14145e-05
1273,1.35463e-05,3.33651e-06,5.90518e-05,4.73893e-05,2.07152e-05,3.2474e-05
1274,2.33055e-05,9.27482e-06,4.9122e-05,4.55452e-05,1.20304e-05,3.78751e-05
1275,2.91418e-05,1.24881e-06,4.86464e-05,4.34242e-05,-1.95064e-06,3.48639e-05
1276,2.59885e-05,-1.9785e-05,5.75096e-05,3.87625e-05,-7.6814e-06,2.6797e-05
1277,1.85964e-05,-2.97996e-05,6.54439e-05,3.64642e-05,1.55356e-06,1.92863e-05
1278,1.27386e-05,-1.45713e-05,6.7001e-05,4.3702e-05,1.64333e-05,1.64392e-05
1279,1.11088e-05,5.54017e-06,6.05981e-05,5.58154e-05,2.62873e-05,1.57396e-05
1280,1.1576e-05,1.04053e-05,5.06749e-05,6.04625e-05,2.82062e-05,1.57376e-05
1281,9.71171e-06,-4.77815e-07,4.79121e-05,5.48137e-05,2.15052e-05,1.50063e-05
1282,5.95638e-06,-2.80623e-05,5.53421e-05,4.13406e-05,1.13803e-05,1.35302e-05
1283,4.33445e-06,-4.1209e-05,6.17669e-05,3.47981e-05,1.00399e-05,8.37433e-06
1284,4.43072e-06,-1.89552e-05,6.12866e-05,4.38819e-05,2.43829e-05,4.34621e-06
1285,6.23212e-06,-4.39286e-09,5.42574e-05,5.4736e-05,4.71535e-05,1.07119e-05
1286,9.98109e-06,-4.49533e-08,4.26216e-05,5.94923e-05,6.14744e-05,2.00707e-05
1287,1.02805e-05,8.93462e-07,3.85734e-05,6.33499e-05,5.62915e-05,1.98231e-05
1288,4.6627e-06,4.59979e-06,4.73007e-05,6.79051e-05,4.24941e-05,1.68378e-05
1289,1.30443e-07,8.38677e-06,5.71196e-05,7.62308e-05,3.68969e-05,1.93163e-05
1290,7.93245e-07,-4.83554e-06,6.06457e-05,7.61551e-05,3.60024e-05,1.93747e-05
1291,2.94012e-06,-3.01971e-05,5.96172e-05,6.47263e-05,3.02198e-05,1.34881e-05
1292,2.14812e-06,-3.45551e-05,5.94148e-05,6.04368e-05,2.1591e-05,1.05728e-05
1293,1.63415e-06,-9.51364e-06,6.0025e-05,6.90118e-05,1.25943e-05,1.44743e-05
1294,4.10065e-06,1.22048e-05,5.58411e-05,7.41278e-05,4.93391e-07,1.81543e-05
1295,6.4098e-06,1.43501e-05,4.91283e-05,6.74497e-05,-1.81429e-05,1.46204e-05
1296,7.55975e-06,-2.31006e-06,4.9762e-05,5.39792e-05,-3.93673e-05,7.2858e-06
1297,7.23372e-06,-2.53558e-05,5.63109e-05,4.35798e-05,-4.62264e-05,3.02303e-06
1298,5.68263e-06,-2.99629e-05,5.97845e-05,4.65477e-05,-2.93456e-05,4.54364e-06
1299,2.95481e-06,-1.15411e-05,5.61804e-05,5.87401e-05,-2.26527e-06,5.11997e-06
1300,2.5537e-06,8.1682e-06,4.56628e-05,6.56559e-05,1.75565e-05,1.91637e-06
1301,7.91836e-06,1.08657e-05,3.51108e-05,5.9817e-05,2.21959e-05,-2.23298e-06
1302,1.53109e-05,-2.01674e-06,3.51716e-05,4.67487e-05,1.39048e-05,-1.06854e-05
1303,1.91337e-05,-2.36564e-05,4.49668e-05,3.5014e-05,4.62918e-06,-2.46449e-05
1304,1.85512e-05,-2.87767e-05,5.34151e-05,3.62259e-05,6.36268e-06,-3.75407e-05
1305,1.59199e-05,-9.0715e-06,5.39377e-05,4.88306e-05,2.06881e-05,-3.95691e-05
1306,1.35166e-05,1.17175e-05,4.64894e-05,5.64695e-05,4.05974e-05,-2.86688e-05
1307,1.34397e-05,1.63666e-05,3.77953e-05,5.12043e-05,5.6687e-05,-1.70594e-05
1308,1.53464e-05,5.61138e-06,3.87616e-05,4.02893e-05,6.05213e-05,-1.68887e-05
1309,1.60269e-05,-2.52329e-05,5.03651e-05,2.63434e-05,5.09949e-05,-2.55179e-05
1310,1.39437e-05,-4.29289e-05,6.10326e-05,1.49661e-05,3.62078e-05,-3.22932e-05
1311,1.10839e-05,-2.0303e-05,6.32139e-05,1.31841e-05,2.32527e-05,-3.07504e-05
1312,1.07167e-05,1.9352e-06,5.50765e-05,1.33691e-05,1.40164e-05,-2.67571e-05
1313,1.51699e-05,8.62918e-06,4.16301e-05,1.49855e-05,9.43652e-06,-2.85795e-05
1314,1.94892e-05,1.35154e-05,3.6256e-05,1.95303e-05,2.14775e-06,-2.59828e-05
1315,1.82884e-05,1.47675e-05,4.36929e-05,2.28332e-05,-1.03574e-05,-1.79607e-05
1316,1.54231e-05,1.36479e-05,5.20783e-05,2.41072e-05,-1.1461e-05,-1.36121e-05
1317,1.66874e-05,-2.34335e-07,5.21571e-05,1.7398e-05,3.2767e-06,-1.08526e-05
1318,2.31306e-05,-2.39227e-05,4.73633e-05,8.54448e-06,1.98235e-05,-3.29846e-06
1319,2.75902e-05,-2.71013e-05,4.35127e-05,1.00374e-05,2.80007e-05,1.12794e-05
1320,2.55463e-05,-4.7804e-06,3.77509e-05,2.10757e-05,3.35148e-05,2.46535e-05
1321,2.39598e-05,1.01386e-05,2.60562e-05,3.00308e-05,4.71502e-05,3.13741e-05
1322,2.74338e-05,6.38781e-06,1.58297e-05,3.30761e-05,5.81159e-05,2.7637e-05
1323,2.98892e-05,-1.28924e-05,1.868e-05,3.03774e-05,4.86058e-05,2.04061e-05
1324,2.52963e-05,-3.1237e-05,3.03411e-05,2.37747e-05,2.13429e-05,1.31793e-05
1325,1.80342e-05,-2.87543e-05,3.94017e-05,2.20573e-05,-3.17562e-06,4.61517e-06
1326,1.70559e-05,-7.44127e-06,3.95778e-05,3.05046e-05,-1.50208e-05,-2.84197e-06
1327,2.46213e-05,8.61915e-06,3.08858e-05,3.92713e-05,-2.54648e-05,-2.32378e-06
1328,3.29169e-05,7.45765e-06,2.10881e-05,3.77423e-05,-5.02337e-05,1.51953e-06
1329,3.29816e-05,-7.51645e-06,2.22418e-05,3.103e-05,-8.55368e-05,-7.99779e-06
1330,2.61934e-05,-2.96868e-05,3.56578e-05,2.69439e-05,-0.000105273,-3.99816e-05
1331,2.07003e-05,-3.4581e-05,4.80834e-05,3.15905e-05,-9.03736e-05,-8.07025e-05
1332,2.02597e-05,-1.47905e-05,4.90085e-05,4.39753e-05,-5.15924e-05,-0.000101034
1333,2.08707e-05,3.90101e-06,3.77758e-05,5.06812e-05,-1.7983e-05,-8.76096e-05
1334,1.71395e-05,7.82788e-06,2.48104e-05,4.86899e-05,-8.51755e-06,-5.94134e-05
1335,8.10637e-06,8.09458e-07,2.47162e-05,4.16182e-05,-1.9261e-05,-4.28866e-05
1336,-1.62743e-06,-2.34373e-05,3.75674e-05,2.67486e-05,-2.87254e-05,-4.34887e-05
1337,-6.05429e-06,-3.67135e-05,4.90858e-05,1.95966e-05,-2.00683e-05,-5.67791e-05
1338,-4.1859e-06,-1.24347e-05,5.21077e-05,2.97161e-05,6.98182e-07,-6.59314e-05
1339,7.64524e-07,7.42668e-06,4.52828e-05,3.51642e-05,1.49906e-05,-5.47204e-05
1340,5.54062e-06,5.34204e-06,3.22907e-05,2.91925e-05,1.5428e-05,-3.32051e-05
1341,7.02601e-06,3.84466e-06,2.91914e-05,2.94566e-05,7.3867e-06,-2.23191e-05
1342,4.34526e-06,2.8132e-06,4.19334e-05,3.32538e-05,2.47149e-06,-2.47828e-05
1343,1.15949e-06,4.71486e-06,5.29295e-05,3.62505e-05,1.09296e-05,-2.96681e-05
1344,4.74053e-07,-6.66515e-06,5.13632e-05,3.1013e-05,2.37861e-05,-2.57696e-05
1345,3.63739e-06,-2.72291e-05,4.56767e-05,2.00534e-05,2.98945e-05,-1.43264e-05
1346,7.29111e-06,-2.55492e-05,4.694e-05,1.92357e-05,3.62724e-05,-3.71259e-06
1347,7.99744e-06,1.25213e-06,5.11833e-05,2.5549e-05,4.63098e-05,-3.75093e-07
1348,8.3252e-06,1.86376e-05,4.69725e-05,3.07321e-05,5.47706e-05,-2.74937e-07
1349,1.08932e-05,1.67454e-05,3.7237e-05,3.25796e-05,5.12442e-05,-1.94587e-06
1350,1.39518e-05,-8.62237e-08,3.7586e-05,3.00165e-05,3.00959e-05,-4.86574e-06
1351,1.30801e-05,-1.96327e-05,4.88569e-05,2.45283e-05,8.40919e-06,-8.41912e-06
1352,9.16747e-06,-1.9687e-05,5.86179e-05,2.42568e-05,5.30631e-06,-8.356e-06
1353,6.56905e-06,3.69232e-06,5.78994e-05,3.21213e-05,1.5424e-05,-7.42859e-06
1354,8.63777e-06,2.44246e-05,4.45536e-05,4.03292e-05,2.36025e-05,-9.80257e-06
1355,1.36734e-05,2.35978e-05,2.94358e-05,4.28771e-05,2.51399e-05,-1.01868e-05
1356,1.52352e-05,6.61883e-06,3.06102e-05,3.723e-05,2.43462e-05,-8.26148e-06
1357,1.18794e-05,-1.84505e-05,4.81347e-05,2.4614e-05,2.67081e-05,-8.86603e-06
1358,8.7752e-06,-2.61838e-05,6.3807e-05,1.66678e-05,3.12118e-05,-9.06734e-06
1359,9.96794e-06,-6.81774e-06,6.64412e-05,2.25179e-05,2.93749e-05,-2.57028e-06
1360,1.51728e-05,1.45641e-05,5.64929e-05,3.95527e-05,1.71073e-05,4.13473e-06
1361,2.08772e-05,1.74647e-05,4.37406e-05,5.23406e-05,9.2735e-07,4.47982e-06
1362,2.258e-05,5.29067e-06,4.22852e-05,5.24053e-05,-1.09531e-05,-6.3492e-06
1363,2.01904e-05,-2.19772e-05,5.37213e-05,4.14459e-05,-1.41904e-05,-2.32965e-05
1364,1.71294e-05,-3.4808e-05,6.43154e-05,3.2573e-05,-7.84443e-06,-3.62653e-05
1365,1.45549e-05,-1.06151e-05,6.70019e-05,4.17192e-05,4.76441e-06,-3.59708e-05
1366,1.19588e-05,1.33749e-05,6.27132e-05,5.19994e-05,1.6299e-05,-2.83401e-05
1367,9.26992e-06,1.44055e-05,5.69281e-05,5.09678e-05,2.25971e-05,-1.766e-05
1368,5.54691e-06,1.14023e-05,6.12548e-05,5.03327e-05,2.19567e-05,-6.43417e-06
1369,4.27458e-07,1.17485e-05,7.59555e-05,5.11434e-05,1.83184e-05,3.53695e-06
1370,-2.3865e-06,1.48582e-05,8.71748e-05,4.95326e-05,1.98208e-05,1.26359e-05
1371,-4.86493e-08,2.0324e-06,8.90295e-05,4.44725e-05,2.44922e-05,1.66509e-05
1372,3.07379e-06,-2.48181e-05,8.98024e-05,4.01244e-05,2.91001e-05,1.67004e-05
1373,2.61462e-06,-2.98683e-05,9.38759e-05,4.29371e-05,3.37263e-05,1.83516e-05
1374,8.60545e-07,-5.77525e-06,9.26302e-05,5.08824e-05,3.25539e-05,2.76882e-05
1375,2.86517e-06,1.47549e-05,8.23829e-05,5.38615e-05,2.4346e-05,3.92733e-05
1376,7.44352e-06,1.84482e-05,7.17422e-05,5.02745e-05,1.36505e-05,4.56321e-05
1377,7.97444e-06,4.98498e-06,7.27408e-05,4.32146e-05,5.02265e-06,4.35e-05
1378,3.55201e-06,-1.62444e-05,8.17714e-05,3.62512e-05,6.87865e-06,3.64411e-05
1379,-7.09278e-07,-2.14649e-05,8.69049e-05,3.57807e-05,2.01962e-05,2.56953e-05
1380,-1.56605e-06,-5.44602e-06,8.37192e-05,4.21429e-05,3.30807e-05,1.53466e-05
1381,2.31677e-06,9.26675e-06,7.18374e-05,4.69914e-05,3.8352e-05,8.86976e-06
1382,9.23921e-06,5.81237e-06,5.76407e-05,4.4424e-05,3.64656e-05,7.43328e-06
1383,1.37009e-05,-1.16217e-05,5.16642e-05,3.67338e-05,2.86964e-05,8.42524e-06
1384,1.33509e-05,-3.37994e-05,5.39841e-05,2.94967e-05,2.101e-05,4.58332e-06
1385,1.16976e-05,-3.70777e-05,5.64001e-05,3.16554e-05,2.21897e-05,-5.38573e-06
1386,1.27654e-05,-1.72866e-05,5.34409e-05,4.33757e-05,2.98113e-05,-1.69314e-05
1387,1.61451e-05,-3.77699e-07,4.15569e-05,5.05323e-05,3.00359e-05,-2.67095e-05
1388,1.82718e-05,1.39829e-07,2.68907e-05,4.63181e-05,1.458e-05,-3.54536e-05
1389,1.52688e-05,-1.18691e-05,2.4073e-05,3.97259e-05,-8.47677e-06,-4.01068e-05
1390,8.28704e-06,-3.8284e-05,3.48393e-05,3.40844e-05,-1.97083e-05,-3.744e-05
1391,4.19945e-06,-4.95226e-05,4.47709e-05,2.94601e-05,-9.51344e-06,-2.35029e-05
1392,5.37966e-06,-2.38433e-05,4.58542e-05,3.21678e-05,9.60157e-06,-8.45788e-06
1393,1.00842e-05,2.19719e-06,3.80104e-05,3.46145e-05,2.35585e-05,-8.77125e-06
1394,1.77426e-05,8.8019e-06,2.73425e-05,3.57349e-05,2.90057e-05,-1.81705e-05
1395,2.13509e-05,7.51522e-06,2.53001e-05,3.68744e-05,2.21297e-05,-2.90068e-05
1396,1.67506e-05,2.38568e-06,3.28927e-05,3.11474e-05,6.55879e-06,-3.21095e-05
1397,1.27172e-05,-1.50511e-06,4.06575e-05,2.80981e-05,-4.12243e-06,-2.51573e-05
1398,1.26057e-05,-1.32147e-05,4.27114e-05,2.77232e-05,-1.51202e-06,-2.15039e-05
1399,1.22697e-05,-2.85894e-05,4.1612e-05,2.40692e-05,1.0906e-05,-1.81812e-05
1400,1.17871e-05,-2.41271e-05,4.21109e-05,2.06958e-05,2.19636e-05,-1.2839e-05
1401,1.23209e-05,4.41747e-07,4.08483e-05,2.56342e-05,2.65329e-05,-1.07919e-05
1402,1.51927e-05,1.76691e-05,3.29926e-05,3.13366e-05,2.92609e-05,-1.59474e-05
1403,1.85312e-05,1.82801e-05,2.55285e-05,3.16419e-05,2.99325e-05,-2.38871e-05
1404,1.69111e-05,3.35997e-06,3.04858e-05,2.86851e-05,2.46771e-05,-2.94141e-05
1405,1.26208e-05,-1.7053e-05,4.31215e-05,2.52643e-05,1.88431e-05,-2.70507e-05
1406,1.31663e-05,-2.01598e-05,5.15424e-05,2.6278e-05,2.02522e-05,-1.85301e-05
1407,1.73498e-05,1.07939e-08,5.00032e-05,3.06166e-05,2.74779e-05,-7.99076e-06
1408,2.04072e-05,1.99083e-05,4.08532e-05,3.11186e-05,3.2748e-05,1.11643e-06
1409,2.3526e-05,2.15119e-05,3.49352e-05,2.66804e-05,2.86351e-05,8.47025e-06
1410,2.63481e-05,6.76944e-06,4.24998e-05,2.13299e-05,1.66956e-05,1.48177e-05
1411,2.50644e-05,-1.71586e-05,5.78007e-05,1.18989e-05,8.57948e-06,1.34049e-05
1412,2.0334e-05,-2.4949e-05,6.49866e-05,9.31025e-06,1.28867e-05,1.77202e-06
1413,1.83658e-05,-5.30945e-06,5.96355e-05,2.18998e-05,2.89362e-05,-1.14134e-05
1414,2.30923e-05,1.57718e-05,4.79401e-05,3.18549e-05,5.12004e-05,-1.41632e-05
1415,3.02528e-05,1.80689e-05,3.99767e-05,2.74335e-05,7.01605e-05,-6.86576e-06
1416,3.09397e-05,5.85959e-06,4.44306e-05,1.68193e-05,7.53719e-05,2.38812e-06
1417,2.37356e-05,-2.23019e-05,5.74244e-05,1.08262e-05,6.84737e-05,1.07822e-06
1418,1.64695e-05,-3.46932e-05,6.56063e-05,1.72141e-05,6.30265e-05,-6.50336e-06
1419,1.50076e-05,-1.02434e-05,6.47157e-05,3.40925e-05,6.37402e-05,-9.80134e-06
1420,1.81687e-05,4.70197e-06,5.6958e-05,3.82755e-05,6.02236e-05,-7.73578e-06
1421,2.14956e-05,-6.18609e-07,4.80565e-05,2.75318e-05,4.06819e-05,-6.38643e-06
1422,2.02882e-05,-2.98056e-06,4.70107e-05,2.30956e-05,5.69015e-06,-5.93002e-06
1423,1.44421e-05,-2.27946e-06,5.30497e-05,2.40742e-05,-2.58364e-05,-6.08755e-06
1424,1.0712e-05,1.42793e-06,5.63896e-05,2.89037e-05,-4.18547e-05,-6.28496e-06
1425,1.12306e-05,-1.01374e-05,5.56143e-05,2.98706e-05,-5.29838e-05,-5.90642e-06
1426,1.20575e-05,-3.39587e-05,5.54827e-05,2.66584e-05,-6.6456e-05,-6.57499e-06
1427,1.10415e-05,-3.56563e-05,5.75805e-05,2.52459e-05,-7.17954e-05,-4.0428e-06
1428,1.01294e-05,-1.2646e-05,5.62051e-05,3.02292e-05,-5.81474e-05,2.3919e-06
1429,1.16054e-05,5.68997e-06,4.59076e-05,3.66204e-05,-2.88237e-05,1.07116e-05
1430,1.21181e-05,5.54866e-06,3.39509e-05,4.04494e-05,-2.25394e-06,1.64014e-05
1431,8.03831e-06,-1.3411e-05,3.5835e-05,3.78838e-05,5.37206e-06,1.69439e-05
1432,2.62161e-06,-3.27228e-05,4.7667e-05,3.01699e-05,2.10356e-06,1.4516e-05
1433,1.78029e-06,-2.79631e-05,5.49335e-05,3.14855e-05,4.40773e-06,1.20001e-05
1434,6.31567e-06,-4.66269e-06,5.28242e-05,4.4452e-05,1.43028e-05,1.33479e-05
1435,1.36112e-05,8.46204e-06,4.1061e-05,5.55593e-05,2.39149e-05,1.81673e-05
1436,1.99775e-05,3.79993e-06,2.6993e-05,5.43698e-05,2.45061e-05,2.21713e-05
1437,2.11609e-05,-9.6015e-06,2.42568e-05,4.6197e-05,1.4799e-05,2.30677e-05
1438,1.70977e-05,-2.76669e-05,3.61864e-05,3.46564e-05,6.25945e-06,2.32659e-05
1439,1.21631e-05,-3.23667e-05,5.11994e-05,2.89353e-05,8.13733e-06,2.58738e-05
1440,1.01581e-05,-1.55454e-05,5.91261e-05,3.78533e-05,1.20047e-05,3.1948e-05
1441,1.19522e-05,4.70323e-07,5.62572e-05,5.38514e-05,7.74385e-06,3.75191e-05
1442,1.50108e-05,1.10807e-06,4.76642e-05,6.07619e-05,-2.41514e-07,4.02469e-05
1443,1.44917e-05,-1.31911e-05,4.7066e-05,5.40721e-05,-3.94162e-06,4.2737e-05
1444,1.00521e-05,-4.20148e-05,5.79384e-05,3.94563e-05,-1.89277e-06,3.9693e-05
1445,5.2758e-06,-5.18237e-05,6.70896e-05,2.97943e-05,4.60995e-06,2.77213e-05
1446,2.45192e-06,-2.21772e-05,6.70155e-05,2.90147e-05,1.2556e-05,9.14927e-06
1447,3.00852e-06,1.27381e-06,5.855e-05,3.41206e-05,1.81615e-05,-9.85455e-06
1448,5.53483e-06,1.28654e-06,4.66777e-05,3.69206e-05,1.74183e-05,-1.15965e-05
1449,4.20639e-06,1.99321e-06,4.20903e-05,3.8868e-05,8.55958e-06,2.24216e-06
1450,-1.10438e-06,3.87817e-06,4.8826e-05,4.06405e-05,-2.87435e-07,9.60934e-06
1451,-3.70239e-06,4.32655e-06,5.57761e-05,4.00219e-05,2.33106e-06,9.82674e-06
1452,-2.71613e-06,-1.14099e-05,5.41709e-05,3.50662e-05,1.1064e-05,7.9907e-06
1453,-4.64066e-07,-3.71784e-05,5.06001e-05,2.8062e-05,1.83186e-05,5.57515e-06
1454,1.96912e-06,-4.0858e-05,5.4421e-05,3.08533e-05,3.00837e-05,9.53302e-06
1455,5.65681e-06,-2.00125e-05,6.18291e-05,4.05549e-05,4.04628e-05,1.30823e-05
1456,1.07374e-05,-7.47975e-06,6.07428e-05,4.41501e-05,4.14339e-05,5.28815e-06
1457,1.27326e-05,-1.25344e-05,5.25911e-05,3.91377e-05,3.59545e-05,-1.03372e-05
1458,1.00096e-05,-2.88163e-05,5.22198e-05,3.04193e-05,2.8407e-05,-2.06905e-05
1459,5.98114e-06,-4.10798e-05,5.92751e-05,2.23611e-05,2.32751e-05,-1.65598e-05
1460,2.79258e-06,-3.31362e-05,6.45371e-05,2.06233e-05,1.99019e-05,-8.22994e-06
1461,6.05192e-07,-1.02544e-05,6.54311e-05,2.60029e-05,1.22256e-05,-9.21606e-06
1462,2.56948e-06,6.04975e-06,6.09648e-05,3.07631e-05,2.43565e-06,-1.84177e-05
1463,7.94124e-06,4.64222e-06,5.45568e-05,2.94943e-05,-1.74001e-06,-2.83823e-05
1464,9.77839e-06,-9.54784e-06,5.42303e-05,2.33587e-05,-1.86652e-06,-3.78794e-05
1465,6.35618e-06,-2.9537e-05,6.16622e-05,1.72571e-05,-1.57526e-06,-4.39812e-05
1466,3.11593e-06,-3.49758e-05,7.05325e-05,2.2658e-05,2.54732e-06,-4.57051e-05
1467,5.4834e-06,-1.73438e-05,7.36207e-05,3.61945e-05,1.32198e-05,-4.98182e-05
1468,1.29235e-05,3.98366e-07,6.52637e-05,4.2083e-05,3.35112e-05,-5.55519e-05
1469,1.8708e-05,-8.18786e-07,5.05425e-05,4.1153e-05,7.21788e-05,-5.75694e-05
1470,1.62169e-05,-1.42467e-05,4.52259e-05,4.10924e-05,0.000126091,-5.64864e-05
1471,7.75396e-06,-3.97938e-05,5.54099e-05,3.83471e-05,0.000178077,-5.25522e-05
1472,2.14028e-06,-4.97023e-05,6.7491e-05,3.94546e-05,0.000211839,-4.5353e-05
1473,4.16233e-06,-2.25806e-05,6.87635e-05,4.98273e-05,0.000214224,-3.57452e-05
1474,1.27591e-05,-1.32205e-06,6.04468e-05,5.53444e-05,0.000180733,-3.53154e-05
1475,2.21155e-05,-6.2083e-07,5.31598e-05,5.59919e-05,0.000112697,-4.17811e-05
1476,2.28644e-05,4.00172e-06,5.81467e-05,5.9771e-05,5.97267e-06,-4.78986e-05
1477,1.31794e-05,1.18731e-05,7.10991e-05,6.31803e-05,-0.000124092,-5.28069e-05
1478,3.63134e-06,1.4204e-05,7.4211e-05,6.53328e-05,-0.000224506,-5.11193e-05
1479,3.40106e-06,-2.95797e-06,6.46775e-05,6.03904e-05,-0.000241735,-4.65062e-05
1480,9.42826e-06,-2.79914e-05,5.69601e-05,5.3735e-05,-0.000183362,-3.90016e-05
1481,1.25668e-05,-3.06615e-05,5.9425e-05,5.24112e-05,-0.000109311,-3.2689e-05
1482,1.25807e-05,-7.16042e-06,6.40692e-05,5.7395e-05,-6.60654e-05,-2.9831e-05
1483,1.54734e-05,1.34007e-05,6.16687e-05,6.0536e-05,-5.13225e-05,-3.25322e-05
1484,2.0577e-05,1.73392e-05,5.50783e-05,6.22035e-05,-3.93392e-05,-3.71511e-05
1485,2.03959e-05,3.33948e-06,5.41033e-05,6.18504e-05,-2.7431e-05,-3.78776e-05
1486,1.48772e-05,-1.69325e-05,5.97264e-05,5.27236e-05,-2.03936e-05,-3.53228e-05
1487,1.19787e-05,-2.09126e-05,6.64246e-05,4.57303e-05,-1.48852e-05,-3.30441e-05
1488,1.32091e-05,-4.21429e-06,6.74599e-05,5.25148e-05,-1.05149e-05,-2.8056e-05
1489,1.53611e-05,1.34915e-05,5.80805e-05,6.39877e-05,-9.79457e-06,-2.20917e-05
1490,1.62326e-05,1.7227e-05,4.68806e-05,6.55178e-05,-1.1067e-05,-2.23183e-05
1491,1.55689e-05,4.59313e-06,4.83318e-05,6.03076e-05,-8.26908e-06,-2.86161e-05
1492,1.44119e-05,-2.02145e-05,6.05312e-05,5.27898e-05,4.32691e-06,-3.19637e-05
1493,1.42961e-05,-2.88068e-05,6.96109e-05,5.16584e-05,2.69103e-05,-2.58483e-05
1494,1.63123e-05,-9.16497e-06,6.99507e-05,5.90931e-05,5.27107e-05,-1.29912e-05
1495,2.05667e-05,1.15234e-05,6.27698e-05,6.36935e-05,7.42321e-05,-2.06137e-06
1496,2.37966e-05,1.19329e-05,5.38752e-05,6.00083e-05,8.60463e-05,-2.53987e-06
1497,2.11276e-05,8.19328e-07,5.34238e-05,5.24045e-05,8.51263e-05,-5.11268e-06
1498,1.5137e-05,-2.25111e-05,6.25472e-05,4.03885e-05,7.50104e-05,1.40091e-06
1499,1.30278e-05,-3.42477e-05,6.81993e-05,3.52364e-05,6.43985e-05,9.3748e-06
1500,1.56457e-05,-1.14932e-05,6.44934e-05,4.99325e-05,5.08174e-05,-6.23183e-07
1501,2.06855e-05,5.81897e-06,5.55002e-05,6.59446e-05,2.60688e-05,-1.0428e-05
1502,2.46263e-05,6.40959e-06,4.6831e-05,6.69832e-05,-5.00861e-06,-5.04692e-06
1503,2.09341e-05,9.34518e-06,4.67608e-05,6.05228e-05,-3.21961e-05,-3.1808e-07
1504,9.29868e-06,8.41765e-06,5.59053e-05,5.52226e-05,-4.75569e-05,-1.80206e-06
1505,-9.02942e-07,6.44156e-06,6.46441e-05,5.4638e-05,-4.48298e-05,-6.48433e-06
1506,-3.38675e-06,-8.14956e-06,6.54349e-05,4.68915e-05,-3.11044e-05,-1.00754e-05
1507,-7.14674e-08,-3.21359e-05,6.24857e-05,3.25089e-05,-1.62806e-05,-1.606e-05
1508,2.55735e-06,-3.55257e-05,6.26209e-05,2.94928e-05,2.03494e-06,-2.27604e-05
1509,6.45347e-07,-1.2721e-05,5.97648e-05,4.13633e-05,2.15392e-05,-2.08033e-05
1510,-7.07087e-07,6.0213e-06,4.84364e-05,4.96393e-05,2.89042e-05,-1.07224e-05
1511,1.02687e-06,1.09877e-05,3.71025e-05,4.56371e-05,1.94848e-05,8.56721e-07
1512,1.58568e-06,1.45848e-07,3.98425e-05,3.3628e-05,5.16403e-06,1.08803e-05
1513,-1.15715e-06,-2.07714e-05,5.05261e-05,1.99518e-05,2.12667e-06,1.9929e-05
1514,-3.84607e-06,-2.85465e-05,5.35236e-05,1.49115e-05,1.32616e-05,2.9808e-05
1515,-4.53528e-06,-1.4274e-05,4.7349e-05,2.04719e-05,2.60243e-05,3.84853e-05
1516,-8.73122e-07,2.24502e-06,3.79478e-05,2.9269e-05,3.05793e-05,3.77294e-05
1517,7.26788e-06,4.5637e-06,3.13454e-05,3.45177e-05,2.8846e-05,2.37601e-05
1518,1.25302e-05,-5.20404e-06,3.30889e-05,3.16321e-05,2.57512e-05,4.49107e-06
1519,1.13677e-05,-2.46783e-05,4.13277e-05,2.06127e-05,2.22913e-05,-1.17449e-05
1520,7.53203e-06,-3.09346e-05,4.75311e-05,1.61842e-05,2.1448e-05,-2.31988e-05
1521,6.22028e-06,-1.07611e-05,4.73058e-05,2.19311e-05,2.48971e-05,-2.97835e-05
1522,8.74034e-06,1.39864e-05,3.98009e-05,2.81255e-05,2.59188e-05,-3.0391e-05
1523,1.17499e-05,2.23249e-05,2.9802e-05,3.04979e-05,1.76984e-05,-2.44917e-05
1524,1.11329e-05,1.2975e-05,2.76003e-05,3.04049e-05,2.24425e-06,-4.9438e-06
1525,9.50893e-06,-1.8646e-05,3.59922e-05,2.2766e-05,-1.12163e-05,2.52731e-05
1526,1.26184e-05,-3.62863e-05,4.5753e-05,1.57423e-05,-1.3333e-05,4.06153e-05
1527,1.8592e-05,-1.57845e-05,4.99159e-05,1.95351e-05,-4.74802e-06,2.79866e-05
1528,2.34168e-05,-3.37994e-07,4.44486e-05,2.2589e-05,6.10716e-06,5.85094e-06
1529,2.5928e-05,-5.61328e-07,3.19074e-05,2.17851e-05,1.29342e-05,-5.26203e-06
1530,2.27679e-05,4.01105e-06,2.62827e-05,2.21561e-05,1.47655e-05,-6.04655e-06
1531,1.72538e-05,1.03828e-05,3.52099e-05,2.48049e-05,1.71269e-05,1.57596e-06
1532,1.42873e-05,1.27523e-05,4.67345e-05,2.66485e-05,2.08549e-05,1.16751e-05
1533,1.33763e-05,-1.77282e-06,4.61887e-05,2.42869e-05,2.00504e-05,1.40551e-05
1534,1.76668e-05,-2.35761e-05,3.85598e-05,1.79737e-05,1.75212e-05,1.52945e-05
1535,2.32449e-05,-2.48176e-05,3.81729e-05,1.95725e-05,2.07443e-05,2.43849e-05
1536,2.2143e-05,-3.66997e-06,4.19982e-05,3.35901e-05,2.75014e-05,3.41133e-05
1537,1.90481e-05,1.44529e-05,3.69034e-05,4.33177e-05,3.01496e-05,3.34509e-05
1538,2.2186e-05,1.80303e-05,2.5765e-05,4.73351e-05,2.67883e-05,2.4132e-05
1539,2.74793e-05,1.15246e-06,2.48274e-05,4.53671e-05,2.09653e-05,1.95391e-05
1540,2.74456e-05,-2.54423e-05,3.51492e-05,3.99925e-05,1.87318e-05,2.27976e-05
1541,2.33558e-05,-3.20007e-05,4.48077e-05,3.91201e-05,2.21081e-05,1.95785e-05
1542,2.05608e-05,-1.23512e-05,4.41375e-05,4.45059e-05,2.6223e-05,7.08214e-06
1543,2.10804e-05,5.80327e-06,3.28426e-05,4.83733e-05,2.75808e-05,-1.11916e-06
1544,2.14331e-05,3.778e-06,2.41177e-05,4.94577e-05,2.24486e-05,-9.88453e-07
1545,1.72139e-05,-1.28331e-05,3.08284e-05,4.91789e-05,9.03385e-06,-2.81056e-06
1546,1.06401e-05,-3.51865e-05,4.71766e-05,4.35497e-05,-3.88635e-06,-8.67906e-06
1547,6.42357e-06,-4.21372e-05,5.7447e-05,3.9534e-05,-3.83987e-06,-8.99494e-06
1548,5.17219e-06,-2.61751e-05,5.44897e-05,4.69935e-05,1.04023e-05,-6.43813e-08
1549,7.15469e-06,-5.90819e-06,3.97416e-05,5.64809e-05,2.69059e-05,7.45933e-06
1550,1.27343e-05,5.92698e-06,2.4586e-05,5.64948e-05,3.14931e-05,8.49891e-06
1551,1.6451e-05,7.59294e-06,2.37303e-05,5.03838e-05,2.10792e-05,5.71549e-06
1552,1.36447e-05,-8.50692e-06,3.47797e-05,3.98312e-05,8.39218e-06,1.00673e-05
1553,8.58862e-06,-1.25946e-05,4.02449e-05,3.69627e-05,7.42604e-06,2.12574e-05
1554,5.45044e-06,2.05383e-05,3.71644e-05,4.95426e-05,1.50047e-05,2.94427e-05
