Time_Index,DELTOID_Affected,DELTOID_NonAffected,BICEPS_Affected,BICEPS_NonAffected,FOREARM_Affected,FOREARM_NonAffected
1,3.17824e-05,1.65257e-05,7.78337e-05,6.76507e-05,-1.80274e-05,2.59916e-05
2,3.58068e-06,2.08346e-05,-2.4701e-06,5.83443e-05,-1.28541e-05,2.02125e-05
3,-3.2188e-05,1.92776e-05,-8.50819e-05,3.98474e-05,-3.58818e-06,1.20609e-05
4,-3.24365e-05,1.43513e-05,-7.02098e-05,3.46057e-05,-1.04011e-06,9.90525e-06
5,7.39548e-06,1.01131e-05,3.74201e-05,4.59012e-05,-6.92367e-06,1.6708e-05
6,3.87292e-05,8.78599e-06,0.000116871,6.17227e-05,-1.38059e-05,2.19416e-05
7,3.40172e-05,1.38193e-05,0.00011267,7.26171e-05,-1.73139e-05,1.79398e-05
8,1.84324e-06,2.02819e-05,4.69936e-05,7.04539e-05,-1.89086e-05,1.0714e-05
9,-4.1128e-05,2.00619e-05,-4.8302e-05,6.00369e-05,-1.67552e-05,6.30457e-06
10,-5.04894e-05,1.35033e-05,-5.84762e-05,5.55709e-05,-1.1341e-05,8.96476e-06
11,-1.09852e-05,8.12352e-06,4.53689e-05,5.6631e-05,-1.13949e-05,1.57629e-05
12,2.71069e-05,7.28247e-06,0.00012668,5.36349e-05,-1.33567e-05,2.05988e-05
13,2.94538e-05,1.67246e-05,0.000116915,5.76177e-05,-1.10089e-05,2.20049e-05
14,3.39989e-06,2.71648e-05,5.38605e-05,6.11681e-05,-3.82176e-06,2.00976e-05
15,-4.87204e-05,2.1447e-05,-4.56778e-05,4.98964e-05,5.50326e-08,1.15406e-05
16,-6.935e-05,6.64594e-06,-6.00572e-05,3.88229e-05,-1.08226e-06,6.75706e-06
17,-1.99289e-05,4.44798e-06,5.05648e-05,4.65486e-05,-3.76081e-06,1.39809e-05
18,1.91388e-05,1.04107e-05,0.000107325,5.91224e-05,-5.82252e-06,2.13676e-05
19,2.30121e-05,1.13187e-05,9.36945e-05,6.00945e-05,-8.45522e-06,2.34614e-05
20,2.19592e-05,8.36654e-06,7.7868e-05,5.3129e-05,-9.05072e-06,2.17482e-05
21,2.05182e-05,9.54267e-06,6.00028e-05,5.78491e-05,-8.39887e-06,1.92692e-05
22,2.11166e-05,1.50791e-05,5.4956e-05,6.91606e-05,-1.00629e-05,1.95618e-05
23,-3.01281e-06,1.53173e-05,8.11875e-06,6.48076e-05,-1.10315e-05,1.747e-05
24,-3.81554e-05,7.01402e-06,-5.28602e-05,5.06575e-05,-9.25658e-06,1.42335e-05
25,-3.47404e-05,6.82937e-07,-2.65836e-05,4.87634e-05,-5.27594e-06,1.78012e-05
26,4.33627e-06,-5.89027e-07,5.61856e-05,5.5283e-05,-4.01607e-06,2.52519e-05
27,2.76188e-05,3.4849e-06,9.50821e-05,6.307e-05,-6.1425e-07,2.596e-05
28,2.63627e-05,8.62234e-06,8.09391e-05,6.50349e-05,7.51724e-06,2.03058e-05
29,2.89807e-06,7.89647e-06,1.31388e-05,5.46799e-05,9.1625e-06,1.2243e-05
30,-2.93168e-05,2.42353e-06,-6.15279e-05,4.07702e-05,2.6808e-06,4.89407e-06
31,-3.73887e-05,1.59072e-06,-4.26773e-05,3.97414e-05,-5.22393e-06,2.99517e-06
32,-1.22687e-05,4.79752e-06,5.57212e-05,4.42633e-05,-9.97446e-06,9.42019e-06
33,1.51663e-05,5.7842e-06,0.000115874,4.91349e-05,-1.24235e-05,1.86258e-05
34,2.11398e-05,7.78117e-06,0.000100001,5.93189e-05,-9.90309e-06,2.3095e-05
35,1.61112e-07,1.21283e-05,3.81394e-05,6.10228e-05,-4.24735e-06,1.9533e-05
36,-3.78024e-05,1.35837e-05,-3.97025e-05,4.73845e-05,-1.9752e-06,9.44621e-06
37,-4.45546e-05,1.07563e-05,-3.71648e-05,3.94709e-05,-2.48156e-06,2.90946e-06
38,-6.70873e-06,8.57562e-06,6.09778e-05,4.5845e-05,-3.17584e-06,6.73613e-06
39,2.86886e-05,8.50073e-06,0.000130623,5.30629e-05,-7.69677e-06,1.25843e-05
40,3.28126e-05,1.20977e-05,0.000117971,6.35841e-05,-1.13847e-05,1.22811e-05
41,1.17274e-05,1.60299e-05,6.40475e-05,6.50292e-05,-1.35981e-05,9.29013e-06
42,-3.8473e-05,1.59302e-05,-2.48311e-05,5.18627e-05,-2.08743e-05,8.51507e-06
43,-6.12483e-05,1.03034e-05,-4.27389e-05,4.62417e-05,-1.79349e-05,9.65448e-06
44,-1.87668e-05,1.06489e-05,5.38488e-05,5.66208e-05,-7.14839e-06,1.06117e-05
45,1.39349e-05,1.81521e-05,9.82237e-05,5.74568e-05,-1.06613e-05,9.8666e-06
46,1.57587e-05,2.18596e-05,7.96247e-05,4.75524e-05,-2.61401e-05,9.01101e-06
47,1.72113e-05,1.93732e-05,7.43248e-05,4.7001e-05,-3.07362e-05,1.39187e-05
48,1.62431e-05,2.22531e-05,7.45266e-05,5.78715e-05,-2.39053e-05,1.92259e-05
49,1.56801e-05,3.32366e-05,7.51832e-05,6.32147e-05,-1.58847e-05,2.03224e-05
50,-8.89642e-06,3.80538e-05,1.87927e-05,4.73474e-05,-1.28547e-05,1.44938e-05
51,-4.74935e-05,3.05343e-05,-5.77496e-05,2.3425e-05,-1.75434e-05,5.0244e-06
52,-4.84352e-05,2.19826e-05,-3.65341e-05,1.49498e-05,-2.13503e-05,2.26172e-06
53,-8.82118e-06,1.58636e-05,5.70152e-05,1.67251e-05,-2.26832e-05,6.86784e-06
54,2.20898e-05,1.27575e-05,0.000102654,2.2126e-05,-2.21291e-05,1.14848e-05
55,2.43189e-05,1.44348e-05,8.31343e-05,2.6847e-05,-1.36208e-05,1.47006e-05
56,-6.34525e-07,1.69196e-05,1.26812e-05,2.06568e-05,-1.93367e-06,1.49096e-05
57,-3.15668e-05,1.65213e-05,-5.94274e-05,8.93252e-06,3.4982e-06,9.99918e-06
58,-3.3847e-05,1.75612e-05,-3.84966e-05,1.22492e-05,-8.84811e-07,6.66777e-06
59,-3.83521e-06,2.1491e-05,5.93473e-05,2.94082e-05,-1.39481e-05,1.03567e-05
60,2.38686e-05,2.4606e-05,0.000117281,4.72257e-05,-2.41541e-05,1.2718e-05
61,2.59728e-05,2.66981e-05,0.00010022,5.93624e-05,-2.33378e-05,8.80254e-06
62,3.89859e-06,2.50381e-05,3.63489e-05,6.16551e-05,-1.88708e-05,5.155e-06
63,-3.1004e-05,1.70031e-05,-4.80935e-05,5.93088e-05,-1.6876e-05,3.38396e-06
64,-3.85568e-05,9.45529e-06,-4.87681e-05,6.59471e-05,-1.18938e-05,2.95231e-06
65,-3.95195e-06,1.0523e-05,5.69015e-05,7.95127e-05,-7.41544e-06,3.94921e-06
66,3.04078e-05,1.38056e-05,0.000133582,8.59538e-05,-1.11361e-05,3.32114e-06
67,3.05485e-05,1.68375e-05,0.00011929,8.90769e-05,-1.85046e-05,1.95219e-06
68,4.41889e-06,1.83538e-05,5.56812e-05,8.36677e-05,-2.26263e-05,2.96197e-06
69,-4.42094e-05,1.32883e-05,-3.49993e-05,6.71985e-05,-2.29048e-05,2.12153e-06
70,-5.54428e-05,4.70415e-06,-4.54363e-05,5.88714e-05,-1.96853e-05,-1.31004e-06
71,1.99068e-06,1.47494e-06,5.60739e-05,6.74134e-05,-8.30737e-06,3.06863e-07
72,3.87742e-05,5.1001e-06,0.00010273,7.57096e-05,-2.26646e-06,8.64989e-06
73,3.46231e-05,1.32694e-05,8.62348e-05,6.87516e-05,-1.02129e-05,1.54929e-05
74,2.92036e-05,1.66802e-05,8.09746e-05,6.45846e-05,-1.57051e-05,1.82002e-05
75,2.35581e-05,1.61991e-05,7.95525e-05,8.01223e-05,-1.1544e-05,1.56879e-05
76,1.76409e-05,1.89446e-05,8.12304e-05,8.93203e-05,-6.0914e-06,1.34792e-05
77,-1.1919e-05,2.00786e-05,2.80131e-05,7.35233e-05,-4.41804e-06,1.21014e-05
78,-5.06354e-05,1.43309e-05,-4.22257e-05,5.10837e-05,-1.80579e-06,7.08979e-06
79,-4.6885e-05,1.04178e-05,-1.7715e-05,4.64899e-05,2.19564e-06,6.65396e-06
80,-8.47557e-06,1.11223e-05,7.22605e-05,4.94043e-05,-8.89651e-07,1.47468e-05
81,1.43826e-05,1.31387e-05,0.000113064,5.16977e-05,-1.02571e-05,2.08993e-05
82,1.05788e-05,1.74774e-05,9.65056e-05,5.22662e-05,-1.22416e-05,1.76253e-05
83,-1.8365e-05,1.92418e-05,2.93008e-05,4.811e-05,-8.13575e-06,6.66428e-06
84,-5.30165e-05,1.42377e-05,-4.83051e-05,3.99296e-05,-2.25628e-06,-3.75864e-06
85,-5.36851e-05,8.55954e-06,-3.28152e-05,3.71964e-05,1.98707e-06,-4.85595e-06
86,-1.77781e-05,6.66724e-06,6.89564e-05,4.17057e-05,-1.59216e-06,2.00081e-06
87,1.3101e-05,7.36638e-06,0.00013122,4.96839e-05,-1.29443e-05,9.07645e-06
88,1.55399e-05,1.03438e-05,0.000104047,5.89648e-05,-1.82695e-05,1.26859e-05
89,-8.40903e-06,1.46294e-05,2.8112e-05,5.59393e-05,-1.18402e-05,1.19822e-05
90,-4.94333e-05,1.52207e-05,-5.22918e-05,3.63554e-05,-1.50651e-06,6.82696e-06
91,-6.19835e-05,1.07579e-05,-4.18948e-05,2.47836e-05,5.99172e-06,4.9347e-06
92,-2.76949e-05,8.00101e-06,6.79287e-05,3.356e-05,5.43167e-06,1.04136e-05
93,5.16348e-06,8.77746e-06,0.000145947,4.52072e-05,-3.64755e-06,1.55758e-05
94,1.55809e-06,1.39528e-05,0.000128374,5.56433e-05,-8.80191e-06,1.53727e-05
95,-2.84691e-05,1.62711e-05,5.76447e-05,5.47718e-05,-5.18914e-06,1.13055e-05
96,-7.62628e-05,5.91695e-06,-4.36137e-05,3.85459e-05,-4.61488e-06,4.80707e-06
97,-9.13164e-05,-7.05435e-06,-6.12773e-05,2.73311e-05,-8.10818e-07,1.88013e-06
98,-4.21778e-05,-8.78956e-06,4.55374e-05,3.55761e-05,7.77664e-06,7.27483e-06
99,-1.40685e-06,-8.3381e-07,9.63654e-05,4.47391e-05,1.186e-05,1.36271e-05
100,7.80517e-06,6.89425e-06,7.9105e-05,4.40169e-05,5.66576e-06,1.48959e-05
101,1.07297e-05,8.18263e-06,7.24148e-05,4.00251e-05,-4.03448e-06,1.09051e-05
102,6.97976e-06,1.13446e-05,6.91919e-05,4.66175e-05,-1.04352e-05,4.00906e-06
103,4.15892e-06,1.99739e-05,7.09994e-05,6.02308e-05,-1.04249e-05,5.39148e-06
104,-1.32405e-05,2.27554e-05,1.38336e-05,5.60623e-05,-3.71823e-06,1.20816e-05
105,-3.34131e-05,1.3928e-05,-5.76292e-05,4.29246e-05,2.94046e-06,1.64108e-05
106,-1.86965e-05,6.43891e-06,-2.6113e-05,4.24877e-05,1.09948e-06,1.97399e-05
107,2.31023e-05,4.38955e-06,7.333e-05,5.06181e-05,-9.83506e-06,2.06967e-05
108,4.41396e-05,7.22801e-06,0.000121931,6.23151e-05,-2.03846e-05,1.8341e-05
109,3.44692e-05,1.50504e-05,0.000102154,6.83327e-05,-2.14671e-05,1.6841e-05
110,-8.42501e-07,2.01779e-05,2.35358e-05,5.81951e-05,-1.26017e-05,1.57007e-05
111,-4.2335e-05,1.63531e-05,-6.56337e-05,4.07812e-05,-6.52615e-06,1.29399e-05
112,-5.09913e-05,1.0336e-05,-5.73871e-05,3.82938e-05,-9.84135e-06,1.21801e-05
113,-2.1706e-05,7.49883e-06,4.58121e-05,4.66165e-05,-1.54931e-05,1.53242e-05
114,7.11526e-06,7.46606e-06,0.000118139,5.07552e-05,-1.52658e-05,1.76618e-05
115,1.12768e-05,1.15312e-05,0.000100971,5.08388e-05,-1.08359e-05,1.55979e-05
116,-8.28187e-06,1.32202e-05,2.54444e-05,4.65949e-05,-7.30935e-06,1.15272e-05
117,-4.10213e-05,5.2646e-06,-6.4859e-05,3.7383e-05,-5.56141e-06,7.07043e-06
118,-4.37932e-05,-4.33201e-06,-6.17914e-05,3.5025e-05,-1.55024e-06,4.84992e-06
119,-4.07751e-06,-5.18552e-06,4.89394e-05,4.22022e-05,5.53744e-06,7.23788e-06
120,3.3141e-05,1.58752e-06,0.000124491,4.82931e-05,6.17457e-06,1.21436e-05
121,3.83878e-05,1.2651e-05,0.000101684,5.5303e-05,7.10944e-07,1.41271e-05
122,1.61859e-05,1.80969e-05,3.2935e-05,5.69512e-05,-2.82572e-06,8.8896e-06
123,-3.27371e-05,1.22729e-05,-5.65691e-05,4.79501e-05,-7.70123e-06,1.08616e-06
124,-5.07073e-05,2.55201e-06,-6.36582e-05,3.86168e-05,-9.08091e-06,5.08051e-06
125,-4.49075e-06,7.43854e-08,3.61653e-05,3.59046e-05,-3.44651e-06,1.59645e-05
126,2.71822e-05,5.35562e-06,7.43059e-05,3.41028e-05,-5.95661e-06,1.82997e-05
127,2.359e-05,8.83505e-06,5.52092e-05,3.04557e-05,-1.66377e-05,1.70547e-05
128,2.05586e-05,6.87635e-06,5.75464e-05,3.50033e-05,-1.33824e-05,1.75471e-05
129,2.08113e-05,8.6063e-06,6.68544e-05,5.49092e-05,-3.5275e-06,1.87313e-05
130,2.35023e-05,1.51804e-05,7.72276e-05,6.76704e-05,-4.81365e-06,1.91962e-05
131,1.48678e-06,1.87764e-05,2.79165e-05,5.40834e-05,-1.49964e-05,1.30467e-05
132,-3.68432e-05,1.16304e-05,-4.76338e-05,3.19148e-05,-2.41129e-05,5.03278e-06
133,-3.44224e-05,2.09422e-06,-2.83814e-05,2.82074e-05,-2.08858e-05,5.01086e-06
134,7.34341e-06,-6.41233e-07,6.61502e-05,4.03677e-05,-1.74808e-05,1.41519e-05
135,3.33927e-05,3.55999e-06,0.000117977,5.49477e-05,-2.08027e-05,2.23168e-05
136,3.07727e-05,1.03565e-05,0.000105023,5.80171e-05,-2.25618e-05,2.3945e-05
137,4.42645e-06,1.42745e-05,2.92013e-05,4.88598e-05,-2.28303e-05,1.70988e-05
138,-2.86572e-05,1.20033e-05,-5.78729e-05,3.77229e-05,-2.05774e-05,8.0034e-06
139,-3.17299e-05,7.10337e-06,-4.51178e-05,3.71526e-05,-1.65069e-05,7.44423e-06
140,2.09681e-06,4.00652e-06,5.84521e-05,4.21275e-05,-1.37355e-05,1.49664e-05
141,3.21124e-05,4.66593e-06,0.000123171,4.69152e-05,-1.42608e-05,2.12727e-05
142,3.20208e-05,1.06038e-05,9.90084e-05,5.23042e-05,-1.48151e-05,2.15544e-05
143,6.19119e-06,1.69186e-05,2.13971e-05,5.02486e-05,-1.07149e-05,2.14005e-05
144,-2.98402e-05,1.75822e-05,-6.81715e-05,4.07755e-05,-1.66304e-06,2.35932e-05
145,-3.38189e-05,1.48927e-05,-6.66115e-05,3.79018e-05,3.42128e-06,2.70485e-05
146,6.55419e-06,1.57906e-05,3.96776e-05,4.51076e-05,-2.87767e-06,3.10485e-05
147,4.25986e-05,1.83067e-05,0.000116809,5.4815e-05,-1.27995e-05,3.4181e-05
148,3.94478e-05,2.55744e-05,0.000111869,6.89818e-05,-1.75662e-05,3.40605e-05
149,6.95156e-06,3.314e-05,6.45315e-05,7.52415e-05,-1.95117e-05,3.03752e-05
150,-4.41641e-05,2.84566e-05,-2.44268e-05,6.49034e-05,-1.9543e-05,2.10219e-05
151,-5.6049e-05,1.88299e-05,-4.37508e-05,5.63235e-05,-1.21746e-05,1.41115e-05
152,-6.30491e-06,1.66284e-05,5.45352e-05,6.23481e-05,-4.42718e-06,1.40556e-05
153,2.34251e-05,2.03266e-05,0.000104141,6.79751e-05,-1.00751e-05,1.49958e-05
154,2.1669e-05,2.34355e-05,9.14e-05,6.59193e-05,-2.03717e-05,1.35153e-05
155,2.07382e-05,2.17228e-05,8.36011e-05,6.09694e-05,-1.79431e-05,1.35173e-05
156,1.91245e-05,2.39222e-05,7.47067e-05,6.61082e-05,-7.48089e-06,1.4457e-05
157,1.69867e-05,3.12196e-05,7.07116e-05,7.30431e-05,-7.59675e-07,1.27318e-05
158,-1.09141e-05,3.22031e-05,1.28956e-05,5.98697e-05,-3.11256e-06,9.60123e-06
159,-5.14817e-05,2.04664e-05,-5.65792e-05,4.03545e-05,-7.71102e-06,7.39458e-06
160,-5.04016e-05,9.86156e-06,-2.54975e-05,3.92288e-05,-6.16337e-06,1.22286e-05
161,-7.97795e-06,8.53708e-06,6.85596e-05,4.54077e-05,-3.55542e-06,1.80109e-05
162,2.18982e-05,1.60206e-05,0.000113664,5.38887e-05,-5.45332e-06,1.72627e-05
163,2.25773e-05,2.7418e-05,9.66379e-05,6.49016e-05,-4.08617e-06,1.38778e-05
164,-3.75723e-06,3.12203e-05,2.46606e-05,6.63301e-05,1.78463e-06,9.82477e-06
165,-3.75139e-05,2.49199e-05,-5.26174e-05,5.40846e-05,6.52082e-06,5.50228e-06
166,-3.93704e-05,1.58578e-05,-3.58237e-05,4.60462e-05,7.76157e-06,6.13907e-06
167,-5.78746e-06,1.0352e-05,6.27221e-05,4.84871e-05,3.55944e-06,1.20106e-05
168,2.01514e-05,1.04787e-05,0.000126469,5.59912e-05,-4.37089e-06,1.43837e-05
169,1.62764e-05,1.79611e-05,0.000110483,6.44926e-05,-8.62797e-06,1.09209e-05
170,-8.59271e-06,2.31744e-05,3.4715e-05,6.18749e-05,-7.19485e-06,3.96365e-06
171,-4.38867e-05,1.72838e-05,-6.73986e-05,4.60052e-05,-4.10333e-06,-1.9624e-06
172,-4.98072e-05,6.73153e-06,-7.72064e-05,3.43554e-05,-5.09629e-06,8.72555e-07
173,-1.28011e-05,1.80557e-06,2.93933e-05,3.82238e-05,-1.25468e-05,1.10765e-05
174,2.00671e-05,1.70077e-06,0.000111838,5.02958e-05,-1.81791e-05,2.02227e-05
175,1.88e-05,6.90599e-06,9.92909e-05,6.34548e-05,-1.63737e-05,2.49031e-05
176,-7.41171e-06,1.48569e-05,3.39732e-05,6.24252e-05,-8.75981e-06,2.1303e-05
177,-5.20572e-05,1.34594e-05,-6.15665e-05,4.91238e-05,-2.7723e-06,1.06167e-05
178,-6.68202e-05,3.34355e-06,-7.57069e-05,4.20309e-05,-8.04071e-07,2.29018e-06
179,-2.45378e-05,1.01341e-06,2.78855e-05,4.93506e-05,-4.29707e-06,5.02544e-06
180,5.10305e-06,6.86385e-06,7.93456e-05,5.43685e-05,-1.02043e-05,1.39123e-05
181,2.87438e-06,1.33402e-05,6.98324e-05,4.87628e-05,-1.31651e-05,1.85849e-05
182,-1.46214e-06,1.72491e-05,6.85001e-05,4.41829e-05,-1.24792e-05,1.94739e-05
183,-2.71791e-06,2.01157e-05,6.64898e-05,4.7215e-05,-9.62461e-06,1.63494e-05
184,1.54174e-06,2.40598e-05,6.33416e-05,5.16176e-05,-6.86819e-06,1.30377e-05
185,-1.60133e-05,2.41213e-05,8.00708e-06,4.83545e-05,-4.62089e-06,8.8468e-06
186,-4.44795e-05,1.79575e-05,-6.05452e-05,4.18886e-05,-4.81894e-06,3.59234e-06
187,-3.65806e-05,1.44574e-05,-3.33368e-05,4.65368e-05,-7.20457e-06,3.61922e-06
188,7.92043e-07,1.56054e-05,6.38372e-05,5.32893e-05,-1.38172e-05,1.03437e-05
189,2.35631e-05,1.66104e-05,0.000113739,5.61549e-05,-2.56199e-05,1.64302e-05
190,2.33352e-05,2.03337e-05,9.9407e-05,5.7207e-05,-3.34717e-05,1.59453e-05
191,-4.08985e-06,2.31125e-05,2.55144e-05,5.48319e-05,-3.18104e-05,9.55083e-06
192,-4.22167e-05,1.71626e-05,-5.95251e-05,4.88132e-05,-2.37455e-05,1.51158e-06
193,-4.80843e-05,9.07286e-06,-4.76287e-05,4.74659e-05,-1.48302e-05,1.56132e-06
194,-1.6099e-05,5.06984e-06,5.63699e-05,5.0872e-05,-1.11558e-05,1.06916e-05
195,1.31794e-05,4.51422e-06,0.000126837,5.5622e-05,-1.40566e-05,1.65692e-05
196,1.78825e-05,9.18526e-06,0.000108882,6.09005e-05,-1.48228e-05,1.29399e-05
197,5.04378e-07,1.79402e-05,3.23239e-05,5.82595e-05,-9.39511e-06,5.03187e-06
198,-3.16997e-05,1.99259e-05,-5.86048e-05,4.75322e-05,-2.21682e-06,-1.66589e-06
199,-4.02e-05,1.14874e-05,-5.70927e-05,4.4853e-05,5.38779e-06,-1.70189e-06
200,-1.05033e-05,3.45394e-06,4.76485e-05,5.21169e-05,4.21448e-06,6.50404e-06
201,1.86782e-05,2.78144e-06,0.00011901,5.62845e-05,-1.12867e-05,1.59612e-05
202,2.06607e-05,1.3087e-05,0.000103144,5.95045e-05,-2.43573e-05,1.80806e-05
203,-1.96398e-06,2.53193e-05,5.38944e-05,5.66358e-05,-2.35692e-05,1.47758e-05
204,-4.67226e-05,2.33427e-05,-2.09966e-05,4.8038e-05,-2.03287e-05,9.73486e-06
205,-5.79533e-05,8.20727e-06,-3.64167e-05,4.52289e-05,-1.33174e-05,7.62642e-06
206,-5.17191e-06,-2.62104e-06,5.28654e-05,5.34491e-05,2.19963e-07,9.81051e-06
207,3.15844e-05,1.07334e-06,8.4987e-05,5.80977e-05,3.03656e-06,1.16144e-05
208,2.78233e-05,1.08995e-05,6.21657e-05,4.9401e-05,-4.0021e-06,1.23598e-05
209,2.10152e-05,1.45818e-05,8.18969e-05,3.99585e-05,-4.2814e-06,1.30219e-05
210,1.73265e-05,1.48497e-05,0.000103284,4.444e-05,4.15881e-06,1.36893e-05
211,1.59783e-05,2.04237e-05,0.000104935,5.20898e-05,5.62381e-06,1.48747e-05
212,-7.46563e-06,2.49576e-05,4.24408e-05,4.67183e-05,-1.95316e-06,1.32321e-05
213,-3.9634e-05,2.02237e-05,-3.31538e-05,3.77951e-05,-9.01203e-06,7.64232e-06
214,-3.34793e-05,1.25039e-05,-5.18297e-06,4.1256e-05,-1.259e-05,7.72896e-06
215,6.18045e-06,8.03399e-06,8.9622e-05,4.53373e-05,-1.72483e-05,1.48269e-05
216,3.09218e-05,1.14742e-05,0.00013269,4.72199e-05,-2.30133e-05,2.04839e-05
217,2.86397e-05,2.00058e-05,0.000107496,5.31567e-05,-2.25136e-05,1.96953e-05
218,2.96418e-06,2.3158e-05,2.4785e-05,5.48342e-05,-1.5554e-05,1.52379e-05
219,-2.82367e-05,1.48466e-05,-6.17799e-05,4.47427e-05,-5.47342e-06,1.13011e-05
220,-2.80059e-05,5.33516e-06,-4.44409e-05,3.71256e-05,-5.07782e-07,1.18413e-05
221,7.60773e-06,1.30917e-06,6.41787e-05,3.80333e-05,-4.31776e-06,1.66129e-05
222,3.80662e-05,1.70584e-06,0.000138591,4.23408e-05,-1.29599e-05,2.11382e-05
223,3.62019e-05,5.58229e-06,0.000126955,4.88969e-05,-1.46896e-05,2.36721e-05
224,5.48683e-06,9.10645e-06,5.36671e-05,5.11584e-05,-9.45592e-06,2.32372e-05
225,-3.6647e-05,5.04671e-06,-4.5543e-05,4.23312e-05,-8.69191e-06,1.77412e-05
226,-4.38904e-05,-1.20924e-06,-5.46536e-05,3.05729e-05,-1.26536e-05,1.19092e-05
227,-6.72359e-06,-2.72365e-06,4.69529e-05,2.74581e-05,-1.58376e-05,1.26208e-05
228,2.4748e-05,-1.70404e-06,0.000121242,3.70119e-05,-2.01736e-05,1.5462e-05
229,2.28021e-05,5.17109e-06,0.000105808,6.03329e-05,-1.98516e-05,1.41932e-05
230,2.49987e-07,1.34695e-05,4.17599e-05,7.25038e-05,-1.43567e-05,7.62905e-06
231,-4.00284e-05,1.6417e-05,-4.86268e-05,6.31482e-05,-1.31829e-05,-2.34754e-06
232,-5.37405e-05,1.08579e-05,-5.75298e-05,5.49825e-05,-8.90004e-06,-3.18984e-06
233,-1.41973e-05,3.02485e-06,4.79933e-05,5.83232e-05,-9.98052e-08,7.12364e-06
234,1.0744e-05,2.72031e-06,9.55938e-05,5.94586e-05,-2.3007e-06,1.09554e-05
235,6.05557e-06,3.63002e-06,8.30266e-05,5.61062e-05,-1.83847e-05,9.13437e-06
236,1.68047e-06,1.35527e-06,8.44593e-05,5.32607e-05,-2.46789e-05,6.71313e-06
237,5.63334e-08,7.38467e-06,7.82043e-05,5.57395e-05,-1.42575e-05,5.01325e-06
238,2.07633e-06,1.94379e-05,7.00429e-05,5.94771e-05,1.04742e-06,4.9985e-06
239,-2.28962e-05,2.31736e-05,1.82185e-05,5.40625e-05,7.89153e-06,4.414e-06
240,-6.54011e-05,1.2324e-05,-4.57323e-05,4.38356e-05,-4.47481e-07,3.55306e-06
241,-6.85295e-05,4.42478e-06,-2.53917e-05,4.33492e-05,-6.77346e-06,5.87715e-06
242,-2.89177e-05,5.25015e-06,6.13155e-05,4.53793e-05,-4.69834e-06,1.17671e-05
243,2.89529e-06,8.33238e-06,0.000109129,4.87651e-05,1.52944e-06,1.64702e-05
244,5.64248e-06,1.07195e-05,9.27499e-05,5.25696e-05,5.34639e-06,1.98963e-05
245,-2.17465e-05,1.23425e-05,1.69847e-05,4.64175e-05,2.50645e-07,1.82298e-05
246,-5.55425e-05,1.15025e-05,-6.12196e-05,3.02018e-05,-3.17315e-06,1.13417e-05
247,-5.40273e-05,7.06957e-06,-3.84939e-05,2.38328e-05,1.34616e-06,7.61027e-06
248,-1.70987e-05,5.7134e-07,6.62458e-05,3.29085e-05,9.74083e-07,1.05754e-05
249,1.1862e-05,-1.28344e-06,0.000131027,4.86502e-05,-7.43061e-06,1.53504e-05
250,8.26374e-06,6.57775e-06,0.00011285,6.51099e-05,-1.02185e-05,1.87476e-05
251,-2.07576e-05,1.48255e-05,4.1268e-05,6.99263e-05,-5.02297e-06,1.96447e-05
252,-5.72046e-05,1.35305e-05,-5.20804e-05,6.1434e-05,2.14594e-06,1.61571e-05
253,-5.94683e-05,4.90374e-06,-6.15715e-05,6.08003e-05,6.16148e-06,1.23663e-05
254,-1.89792e-05,8.51634e-07,3.70415e-05,7.46326e-05,3.24165e-06,1.3626e-05
255,1.52563e-05,3.91712e-07,0.000112077,8.25207e-05,-8.31321e-06,1.65592e-05
256,1.46258e-05,1.49814e-06,9.65479e-05,8.59412e-05,-1.93572e-05,1.96544e-05
257,-7.98482e-06,5.22288e-06,3.5427e-05,8.32188e-05,-2.23171e-05,2.06116e-05
258,-5.18642e-05,5.6353e-06,-5.45508e-05,7.16857e-05,-1.75282e-05,1.5563e-05
259,-6.60525e-05,2.41494e-06,-6.48629e-05,6.25173e-05,-4.52846e-06,1.46575e-05
260,-1.96724e-05,4.29233e-06,4.38643e-05,6.68648e-05,1.51226e-06,2.41865e-05
261,1.25616e-05,7.2256e-06,8.47258e-05,6.96884e-05,-4.41631e-06,2.82236e-05
262,1.39106e-05,5.7134e-06,5.76725e-05,6.14621e-05,-7.79748e-06,2.38918e-05
263,1.67791e-05,9.15496e-07,5.68485e-05,5.88821e-05,-3.69683e-06,2.17359e-05
264,2.42754e-05,-1.84743e-07,5.585e-05,6.9541e-05,-1.39557e-07,2.41417e-05
265,2.94267e-05,5.29572e-06,4.52301e-05,7.16221e-05,-3.62175e-06,2.96643e-05
266,7.68579e-06,9.81874e-06,-1.71152e-05,4.65558e-05,-5.90151e-06,2.72303e-05
267,-2.78842e-05,7.29954e-06,-8.72739e-05,1.80256e-05,-5.27256e-06,1.66215e-05
268,-2.64773e-05,7.14636e-06,-5.8168e-05,1.32744e-05,-5.26828e-06,1.17757e-05
269,1.08589e-05,1.00686e-05,4.06921e-05,2.19972e-05,-1.06142e-05,1.56645e-05
270,3.65342e-05,1.38907e-05,9.21926e-05,3.45731e-05,-2.08553e-05,1.88224e-05
271,3.76764e-05,2.20979e-05,7.95267e-05,4.50876e-05,-2.68894e-05,1.87489e-05
272,1.08622e-05,2.78429e-05,6.95523e-06,4.44762e-05,-2.36823e-05,1.44738e-05
273,-2.52979e-05,2.36026e-05,-8.16328e-05,3.88232e-05,-1.72972e-05,8.33018e-06
274,-2.85282e-05,1.47498e-05,-7.23675e-05,4.60895e-05,-1.44609e-05,7.75701e-06
275,6.03223e-06,9.81948e-06,3.27221e-05,6.1938e-05,-1.59978e-05,1.15816e-05
276,3.26049e-05,9.79745e-06,0.00010912,7.40384e-05,-1.8802e-05,1.22529e-05
277,2.72095e-05,1.53244e-05,0.000105542,8.15937e-05,-1.61903e-05,8.59737e-06
278,-1.80055e-06,2.19636e-05,4.71445e-05,7.9914e-05,-8.10405e-06,4.59549e-06
279,-3.87197e-05,2.17698e-05,-3.43031e-05,6.45877e-05,1.51465e-06,2.0993e-06
280,-4.2782e-05,1.58117e-05,-3.42076e-05,5.07101e-05,8.3161e-06,6.04617e-06
281,-5.52185e-06,1.06869e-05,6.29399e-05,4.89614e-05,5.52465e-06,1.55554e-05
282,2.70573e-05,6.53116e-06,0.000128591,5.04531e-05,-8.8899e-06,1.98805e-05
283,2.9083e-05,6.87832e-06,0.000108938,5.64816e-05,-1.94548e-05,1.84103e-05
284,6.43548e-06,1.30469e-05,4.10292e-05,5.79303e-05,-1.70304e-05,1.89839e-05
285,-4.17015e-05,1.54193e-05,-5.6461e-05,4.72978e-05,-8.67059e-06,1.60029e-05
286,-6.07515e-05,9.38174e-06,-6.91204e-05,3.92173e-05,-1.57622e-06,9.54172e-06
287,-1.23721e-05,7.03614e-06,3.91483e-05,4.65474e-05,-6.43144e-06,9.56431e-06
288,2.42586e-05,6.49245e-06,9.17454e-05,5.72387e-05,-1.62809e-05,9.80478e-06
289,2.43639e-05,4.76133e-06,7.81628e-05,5.4574e-05,-1.59308e-05,6.73263e-06
290,2.19063e-05,5.28812e-06,7.98934e-05,4.68718e-05,-9.77745e-06,8.93727e-06
291,1.67783e-05,8.95221e-06,8.47082e-05,4.96269e-05,-7.50937e-06,1.67761e-05
292,1.27598e-05,1.52501e-05,8.6574e-05,5.79869e-05,-1.03042e-05,2.06934e-05
293,-1.17065e-05,1.63047e-05,3.18347e-05,5.48305e-05,-1.18912e-05,1.31294e-05
294,-4.69467e-05,1.32736e-05,-3.59861e-05,4.40191e-05,-1.39287e-05,3.98517e-06
295,-4.36101e-05,1.33169e-05,-8.88088e-06,4.31653e-05,-1.12381e-05,4.21538e-06
296,-5.12329e-06,1.58972e-05,7.95899e-05,4.12911e-05,-1.16665e-05,1.05057e-05
297,1.92375e-05,2.00017e-05,0.00012025,4.02711e-05,-1.77365e-05,1.30351e-05
298,1.80257e-05,2.87457e-05,0.000101518,4.34763e-05,-2.04689e-05,1.05961e-05
299,-7.0872e-06,3.57837e-05,2.92421e-05,4.0372e-05,-1.82761e-05,3.56484e-06
300,-3.60329e-05,3.1238e-05,-5.32634e-05,2.88524e-05,-9.6889e-06,-3.03868e-06
301,-3.25876e-05,2.16078e-05,-4.52048e-05,2.48273e-05,2.74698e-06,-2.45864e-08
302,4.89757e-06,1.6903e-05,5.20599e-05,3.03861e-05,7.67254e-06,9.74084e-06
303,3.60825e-05,1.86799e-05,0.000122043,3.82003e-05,-1.62161e-06,1.61679e-05
304,3.48987e-05,2.52598e-05,0.000111827,4.57496e-05,-8.92394e-06,1.83607e-05
305,4.39458e-06,3.1171e-05,4.45458e-05,4.93091e-05,-6.27769e-06,1.79404e-05
306,-3.80594e-05,2.5981e-05,-4.03763e-05,4.59547e-05,-3.01763e-06,1.13611e-05
307,-4.55199e-05,1.27671e-05,-3.5135e-05,4.14415e-05,-2.04831e-06,4.67703e-06
308,-5.63061e-06,4.15755e-06,6.97421e-05,4.28041e-05,3.28438e-07,3.60078e-06
309,3.13125e-05,2.12561e-06,0.000139602,4.53948e-05,-6.09279e-07,5.94638e-06
310,3.17523e-05,7.65097e-06,0.000123544,5.28563e-05,-3.92882e-06,9.57391e-06
311,6.72114e-06,1.99337e-05,6.22437e-05,5.49475e-05,-8.03046e-06,1.17344e-05
312,-4.16189e-05,2.54806e-05,-3.47013e-05,4.54348e-05,-1.25587e-05,7.87418e-06
313,-6.15412e-05,2.07798e-05,-4.94485e-05,3.93429e-05,-1.47556e-05,3.97298e-06
314,-1.37402e-05,1.43688e-05,5.53816e-05,5.20567e-05,-9.1684e-06,1.07261e-05
315,2.39869e-05,1.01522e-05,0.00010181,6.68552e-05,-2.90713e-06,1.77594e-05
316,2.46064e-05,7.50723e-06,8.62865e-05,6.71144e-05,-2.63305e-06,1.39176e-05
317,2.38995e-05,3.4074e-06,8.65708e-05,6.13106e-05,-4.10905e-06,9.71829e-06
318,2.401e-05,2.10775e-06,7.9505e-05,6.17867e-05,-3.91126e-06,1.00089e-05
319,1.95379e-05,7.80802e-06,6.73298e-05,6.60882e-05,-6.17664e-06,1.35183e-05
320,-1.02237e-05,1.49591e-05,1.21712e-05,5.69489e-05,-1.20503e-05,1.33239e-05
321,-4.7434e-05,1.12315e-05,-5.23444e-05,4.27808e-05,-1.07571e-05,7.83976e-06
322,-4.29634e-05,5.41843e-06,-2.98318e-05,4.3007e-05,-1.20021e-06,6.67007e-06
323,-4.71151e-07,4.71915e-06,5.62556e-05,4.62347e-05,-7.63162e-07,1.35669e-05
324,2.93582e-05,6.2974e-06,9.86157e-05,4.7022e-05,-1.24252e-05,1.93868e-05
325,3.0323e-05,9.96277e-06,8.36074e-05,5.10398e-05,-1.55055e-05,1.87131e-05
326,2.64337e-06,1.2996e-05,2.16434e-05,5.22152e-05,-8.8992e-06,1.08101e-05
327,-3.35354e-05,1.12975e-05,-4.96876e-05,4.39539e-05,-3.11395e-06,-1.19942e-07
328,-3.73849e-05,8.78931e-06,-3.47017e-05,3.97695e-05,-1.42965e-06,-3.90848e-06
329,-2.26325e-06,8.86309e-06,6.11848e-05,4.39779e-05,-3.34302e-06,2.30766e-06
330,3.31131e-05,1.03688e-05,0.000122349,5.12848e-05,-8.2258e-06,1.18387e-05
331,4.14402e-05,1.4356e-05,0.00010341,5.85029e-05,-1.26461e-05,1.67458e-05
332,1.81394e-05,1.80766e-05,3.29036e-05,5.95e-05,-1.87239e-05,1.5742e-05
333,-2.32891e-05,1.55514e-05,-5.44801e-05,5.37439e-05,-2.21558e-05,1.08743e-05
334,-3.10146e-05,8.719e-06,-5.07353e-05,5.48528e-05,-1.38483e-05,9.40663e-06
335,7.80063e-06,6.25708e-06,5.8229e-05,5.99538e-05,-3.07421e-06,1.41044e-05
336,4.05251e-05,9.32141e-06,0.000133688,5.53641e-05,-3.85937e-06,1.86486e-05
337,3.56975e-05,1.73512e-05,0.000119457,5.34983e-05,-1.01005e-05,1.81875e-05
338,5.79388e-06,2.32189e-05,6.15107e-05,5.69979e-05,-1.22893e-05,1.44149e-05
339,-4.44071e-05,1.94552e-05,-2.91346e-05,5.3032e-05,-9.97695e-06,7.0497e-06
340,-6.3975e-05,1.17581e-05,-4.75451e-05,4.55809e-05,-9.1208e-06,4.18759e-06
341,-1.78408e-05,9.00527e-06,5.3772e-05,4.8666e-05,-1.27001e-05,7.93919e-06
342,1.90789e-05,1.14264e-05,0.000103033,5.54969e-05,-1.27314e-05,1.19516e-05
343,1.98372e-05,1.17557e-05,8.56405e-05,5.78108e-05,-1.08224e-05,1.49754e-05
344,1.00838e-05,6.53489e-06,8.14219e-05,5.73123e-05,-1.17086e-05,1.62009e-05
345,-3.8436e-06,8.1071e-06,7.78905e-05,6.50719e-05,-1.77623e-05,1.54255e-05
346,-1.22712e-05,1.78749e-05,7.42824e-05,7.66798e-05,-2.33251e-05,1.3962e-05
347,-3.84719e-05,2.30411e-05,2.50824e-05,6.89332e-05,-2.20469e-05,8.50742e-06
348,-7.62659e-05,1.63333e-05,-3.0007e-05,4.99367e-05,-1.56433e-05,2.83242e-06
349,-7.79402e-05,1.06167e-05,1.91137e-06,4.91746e-05,-1.17235e-05,1.02105e-05
350,-4.25578e-05,9.68159e-06,8.54164e-05,5.90993e-05,-1.48439e-05,2.35822e-05
351,-1.56678e-05,9.09738e-06,0.000118328,6.51587e-05,-1.83522e-05,2.85507e-05
352,-1.337e-05,1.10121e-05,9.21633e-05,6.49944e-05,-1.56532e-05,2.46421e-05
353,-4.05059e-05,1.53127e-05,1.69015e-05,5.81171e-05,-1.06821e-05,1.66426e-05
354,-7.68008e-05,1.64656e-05,-6.36172e-05,4.62685e-05,-9.24392e-06,9.69572e-06
355,-7.67537e-05,1.67753e-05,-5.2692e-05,4.15158e-05,-1.03676e-05,1.09689e-05
356,-3.42275e-05,1.98084e-05,4.73964e-05,4.48705e-05,-1.40968e-05,1.84485e-05
357,2.94453e-06,2.44175e-05,0.000118602,5.22112e-05,-2.24155e-05,2.36253e-05
358,7.09225e-06,2.96924e-05,0.000104782,5.88477e-05,-2.84762e-05,2.47561e-05
359,-1.45535e-05,3.10123e-05,2.87465e-05,5.16972e-05,-2.29744e-05,2.13858e-05
360,-4.84987e-05,2.50954e-05,-6.86971e-05,3.37469e-05,-8.61048e-06,1.35373e-05
361,-5.3563e-05,1.58237e-05,-7.12906e-05,2.77964e-05,2.46996e-06,8.4001e-06
362,-1.73381e-05,1.18486e-05,3.8555e-05,3.64758e-05,3.65862e-06,9.52654e-06
363,1.51638e-05,1.38296e-05,0.00012153,4.4174e-05,3.14182e-06,1.14685e-05
364,2.08795e-05,2.06862e-05,0.000111964,5.38367e-05,3.44753e-06,1.21202e-05
365,4.84397e-06,2.74141e-05,4.80851e-05,5.65736e-05,-1.0386e-06,1.2363e-05
366,-3.8891e-05,2.75428e-05,-4.8356e-05,4.47228e-05,-5.09388e-06,8.38948e-06
367,-5.52255e-05,2.09422e-05,-6.52933e-05,3.7722e-05,-5.35805e-07,6.53672e-06
368,-8.90507e-06,1.46619e-05,3.70175e-05,4.89667e-05,1.98969e-06,1.68987e-05
369,2.55884e-05,1.25431e-05,8.79235e-05,6.33469e-05,-5.48215e-06,2.39242e-05
370,3.29278e-05,1.36917e-05,6.89398e-05,6.34939e-05,-1.42349e-05,2.17438e-05
371,4.1114e-05,1.25084e-05,6.70123e-05,5.3272e-05,-1.49274e-05,2.11126e-05
372,4.17704e-05,1.34089e-05,7.20906e-05,5.55967e-05,-9.48761e-06,2.27494e-05
373,3.78798e-05,1.79289e-05,6.99119e-05,6.58199e-05,-3.88589e-06,2.42787e-05
374,9.22177e-06,1.80764e-05,1.01994e-05,5.8049e-05,-1.01071e-06,1.96086e-05
375,-2.99107e-05,9.78918e-06,-6.27356e-05,3.92377e-05,-1.87435e-06,1.08137e-05
376,-3.1556e-05,6.44163e-06,-3.95505e-05,3.52308e-05,-6.04983e-06,7.63919e-06
377,2.50886e-06,1.09397e-05,5.30524e-05,3.98434e-05,-1.58265e-05,1.3118e-05
378,2.80562e-05,1.7191e-05,0.000105603,4.78209e-05,-2.45953e-05,2.10069e-05
379,2.87434e-05,2.08164e-05,9.2754e-05,5.3693e-05,-2.65256e-05,2.4572e-05
380,8.7321e-07,2.13358e-05,1.63687e-05,4.78414e-05,-1.95148e-05,2.04952e-05
381,-3.45977e-05,1.78441e-05,-6.87352e-05,3.50061e-05,-6.12567e-06,1.07384e-05
382,-3.40013e-05,1.16705e-05,-5.51746e-05,3.24032e-05,3.52968e-06,4.82096e-06
383,5.36214e-06,9.21004e-06,4.46172e-05,4.0996e-05,2.43887e-06,7.98022e-06
384,3.82655e-05,1.37722e-05,0.000110361,5.26127e-05,-6.11875e-06,1.32255e-05
385,3.72387e-05,2.2854e-05,9.50066e-05,6.43826e-05,-1.08737e-05,1.60009e-05
386,9.87928e-06,2.64362e-05,2.53816e-05,6.29731e-05,-9.39502e-06,1.69191e-05
387,-2.78796e-05,1.97162e-05,-6.32212e-05,4.56419e-05,-6.02476e-06,1.26169e-05
388,-3.24309e-05,9.31677e-06,-6.64223e-05,3.29338e-05,-3.00871e-06,9.02151e-06
389,7.5954e-06,5.5302e-06,3.25982e-05,3.37541e-05,-2.59555e-06,1.19038e-05
390,3.91271e-05,5.16351e-06,0.000103264,3.75441e-05,-5.40133e-06,1.30177e-05
391,3.24453e-05,9.55249e-06,8.90384e-05,4.18122e-05,-6.19801e-06,8.83973e-06
392,2.1803e-06,1.31311e-05,3.11452e-05,3.57259e-05,-1.48715e-06,2.83964e-06
393,-4.26724e-05,9.09993e-06,-6.32852e-05,2.03267e-05,1.65633e-06,-3.21671e-06
394,-5.43595e-05,5.19269e-06,-8.7948e-05,1.571e-05,-8.56348e-07,-5.17605e-06
395,-1.30226e-05,7.17223e-06,1.58021e-05,3.00665e-05,-4.86197e-06,1.75604e-06
396,5.39304e-06,8.63201e-06,6.59264e-05,4.44083e-05,-7.4123e-06,4.9358e-06
397,-2.17816e-06,4.76192e-06,4.68823e-05,4.64698e-05,-1.15806e-05,-2.77468e-07
398,5.61372e-06,-5.60919e-07,6.12877e-05,5.03949e-05,-1.34706e-05,-1.71061e-06
399,1.59434e-05,1.40374e-06,7.92784e-05,6.83938e-05,-9.75622e-06,1.56009e-07
400,1.79866e-05,8.38645e-06,7.95781e-05,8.26244e-05,-1.24784e-05,2.915e-06
401,-1.2141e-05,1.09e-05,1.7319e-05,7.47941e-05,-1.74791e-05,2.84719e-06
402,-5.41296e-05,4.08536e-06,-5.52956e-05,6.47378e-05,-1.20406e-05,1.29927e-06
403,-5.21291e-05,-6.91595e-07,-2.28327e-05,7.39945e-05,-7.26435e-07,5.62097e-06
404,-1.03476e-05,2.54469e-06,7.98226e-05,8.41029e-05,1.83544e-06,1.25422e-05
405,1.75713e-05,1.10167e-05,0.000134246,8.74021e-05,-2.46126e-06,1.22269e-05
406,1.76748e-05,2.1903e-05,0.000115773,8.54463e-05,-3.43899e-06,4.29844e-06
407,-8.73202e-06,2.75456e-05,3.41952e-05,7.39506e-05,7.73162e-07,-3.64547e-06
408,-4.09487e-05,2.03139e-05,-5.29378e-05,5.58576e-05,3.8814e-06,-5.68914e-06
409,-3.99947e-05,8.17413e-06,-3.82021e-05,4.60423e-05,-2.10041e-06,-1.56692e-06
410,-5.75266e-06,3.19274e-06,6.71558e-05,4.4595e-05,-1.59467e-05,6.47502e-06
411,2.46005e-05,5.61192e-06,0.00013977,4.7446e-05,-2.76795e-05,1.30516e-05
412,2.72434e-05,1.15136e-05,0.000127469,5.94172e-05,-2.96836e-05,1.37277e-05
413,2.24226e-06,1.60766e-05,5.70274e-05,7.20839e-05,-2.26652e-05,9.25787e-06
414,-3.4533e-05,1.61344e-05,-3.47433e-05,6.98418e-05,-9.72827e-06,4.17749e-06
415,-3.76862e-05,1.31219e-05,-4.1974e-05,5.69553e-05,-9.47834e-07,7.10501e-06
416,1.29298e-06,1.06251e-05,6.02783e-05,4.74788e-05,-5.46497e-06,1.85223e-05
417,3.39585e-05,6.20088e-06,0.000139469,4.65608e-05,-2.09752e-05,2.69263e-05
418,3.18231e-05,6.26219e-06,0.000129253,5.7427e-05,-3.1099e-05,2.43382e-05
419,5.07257e-06,1.31157e-05,7.14701e-05,6.40868e-05,-2.71543e-05,1.7027e-05
420,-4.15316e-05,1.32212e-05,-2.11632e-05,5.68032e-05,-1.48356e-05,7.91445e-06
421,-5.21001e-05,4.19173e-06,-4.4684e-05,4.53091e-05,-1.37316e-06,6.20299e-06
422,-3.64778e-06,-1.69116e-06,5.03985e-05,4.54721e-05,6.32462e-06,1.7681e-05
423,2.20793e-05,1.53209e-07,0.000100189,4.94834e-05,-3.91273e-07,2.44172e-05
424,1.33532e-05,7.76684e-06,8.54792e-05,4.55342e-05,-1.30112e-05,2.36487e-05
425,9.30013e-06,1.25338e-05,8.18305e-05,4.29914e-05,-1.08783e-05,1.96604e-05
426,7.72648e-06,1.75866e-05,8.29319e-05,4.89427e-05,-1.89139e-06,1.54145e-05
427,5.6932e-06,2.28847e-05,8.41287e-05,5.14408e-05,9.96113e-07,1.54507e-05
428,-1.62516e-05,2.02721e-05,2.92104e-05,3.77451e-05,2.70954e-06,1.49229e-05
429,-4.39909e-05,1.10413e-05,-4.33324e-05,1.69139e-05,6.56377e-06,1.31013e-05
430,-3.34766e-05,4.56841e-06,-2.18023e-05,1.49125e-05,1.31142e-05,1.61267e-05
431,7.92842e-06,2.20925e-06,6.48969e-05,2.4569e-05,1.00602e-05,2.46534e-05
432,3.35538e-05,3.67064e-06,0.000107147,3.44069e-05,-2.70186e-06,2.99183e-05
433,3.17075e-05,9.40244e-06,9.05145e-05,4.1558e-05,-1.18115e-05,2.86877e-05
434,3.69578e-06,1.3005e-05,1.94013e-05,4.14554e-05,-1.18276e-05,1.90135e-05
435,-3.26884e-05,9.37886e-06,-6.06515e-05,3.49406e-05,-4.86004e-06,6.3271e-06
436,-3.84272e-05,4.18184e-06,-4.63726e-05,3.26033e-05,1.76642e-06,2.03712e-06
437,-8.94555e-06,1.39551e-06,5.69132e-05,3.71142e-05,1.59298e-06,1.01711e-05
438,1.60562e-05,1.97391e-06,0.000127022,4.38782e-05,-5.12243e-06,2.02342e-05
439,1.34542e-05,9.70597e-06,0.000112656,5.14068e-05,-8.78659e-06,2.29471e-05
440,-9.39631e-06,1.88268e-05,4.15224e-05,5.22806e-05,-8.86263e-06,1.88976e-05
441,-4.15406e-05,1.79481e-05,-4.74899e-05,4.28668e-05,-7.77386e-06,1.16991e-05
442,-4.73571e-05,6.94684e-06,-4.78521e-05,3.6471e-05,-2.11478e-06,1.02604e-05
443,-1.2671e-05,-1.58571e-06,5.5696e-05,4.16091e-05,4.98803e-06,1.68053e-05
444,2.16874e-05,-2.24432e-06,0.00013037,4.64736e-05,2.03995e-06,2.10786e-05
445,2.52814e-05,4.09484e-06,0.000118164,5.18042e-05,-5.17398e-06,1.63583e-05
446,1.31555e-06,1.03029e-05,5.87297e-05,4.997e-05,-5.90454e-06,9.50177e-06
447,-4.59497e-05,1.13271e-05,-4.06133e-05,3.86038e-05,-1.90073e-07,6.12572e-06
448,-5.78329e-05,9.40626e-06,-6.33642e-05,3.39331e-05,3.56037e-06,9.85062e-06
449,-3.19168e-06,9.33998e-06,4.69455e-05,4.17812e-05,8.87017e-07,2.00383e-05
450,2.91081e-05,8.48107e-06,0.00010953,4.73652e-05,-6.24083e-06,2.39301e-05
451,2.16154e-05,4.48756e-06,9.58433e-05,4.44115e-05,-1.17062e-05,2.13468e-05
452,2.05723e-05,3.76115e-06,8.41248e-05,4.59412e-05,-9.62976e-06,1.80575e-05
453,2.20549e-05,1.2423e-05,7.12107e-05,6.25373e-05,-1.04413e-05,1.62718e-05
454,2.21494e-05,2.55504e-05,5.74114e-05,7.19824e-05,-1.49494e-05,1.86007e-05
455,-6.2185e-06,2.81884e-05,-3.85377e-06,5.99479e-05,-1.73177e-05,1.7066e-05
456,-4.69017e-05,1.54908e-05,-7.113e-05,4.41735e-05,-1.74159e-05,9.75913e-06
457,-4.74526e-05,1.74121e-06,-3.8816e-05,4.02246e-05,-1.67896e-05,5.88085e-06
458,-8.39913e-06,-4.29706e-06,6.17091e-05,4.11861e-05,-1.94997e-05,1.15237e-05
459,1.87579e-05,-1.34485e-06,0.000109466,4.67188e-05,-2.53089e-05,2.13191e-05
460,1.61738e-05,5.64101e-06,8.63885e-05,5.50386e-05,-2.81687e-05,2.8575e-05
461,-1.22455e-05,7.37501e-06,1.12543e-05,5.55177e-05,-2.7683e-05,2.67927e-05
462,-4.69458e-05,6.32836e-07,-6.39616e-05,4.85026e-05,-2.63081e-05,1.88934e-05
463,-4.67358e-05,-5.18553e-06,-4.52699e-05,4.60406e-05,-2.24811e-05,1.46851e-05
464,-8.83263e-06,-4.03379e-06,5.49362e-05,4.96819e-05,-1.95537e-05,1.78277e-05
465,2.39443e-05,3.08478e-06,0.000118806,5.53716e-05,-2.25408e-05,2.13835e-05
466,2.8859e-05,1.32935e-05,0.000100513,6.27887e-05,-2.73511e-05,2.08301e-05
467,1.20864e-05,2.0305e-05,2.95626e-05,6.28049e-05,-2.67552e-05,1.81753e-05
468,-2.04581e-05,1.89563e-05,-5.53764e-05,5.28949e-05,-2.14164e-05,1.3888e-05
469,-3.06888e-05,1.71498e-05,-5.12562e-05,4.97252e-05,-1.39419e-05,1.24216e-05
470,-2.08898e-06,2.13624e-05,5.10417e-05,6.27789e-05,-1.02218e-05,1.88575e-05
471,2.79903e-05,2.23846e-05,0.00012183,7.85872e-05,-1.27856e-05,2.50223e-05
472,3.22397e-05,2.1792e-05,0.000110071,8.84234e-05,-1.21381e-05,2.28355e-05
473,1.45328e-05,2.35719e-05,4.92195e-05,8.36037e-05,-3.37264e-06,1.67975e-05
474,-2.8048e-05,2.16929e-05,-4.83729e-05,7.05084e-05,5.6307e-06,1.22809e-05
475,-4.63374e-05,1.80539e-05,-6.50948e-05,6.61959e-05,6.97229e-06,1.33936e-05
476,-9.29844e-06,1.82436e-05,4.27806e-05,7.4154e-05,-2.85915e-06,1.73197e-05
477,1.37533e-05,1.82027e-05,9.24823e-05,8.02435e-05,-1.09589e-05,1.70709e-05
478,6.83183e-06,1.90411e-05,6.94463e-05,7.2894e-05,-8.98876e-06,1.38412e-05
479,4.86642e-06,1.5912e-05,6.52646e-05,6.1581e-05,-5.80683e-06,1.21731e-05
480,9.71412e-06,1.09679e-05,6.59344e-05,5.99841e-05,-8.49856e-06,1.06926e-05
481,1.49274e-05,1.26313e-05,6.10929e-05,6.43738e-05,-1.24227e-05,1.03202e-05
482,-7.43675e-06,1.59018e-05,4.93863e-07,5.91086e-05,-1.05842e-05,8.36557e-06
483,-4.29703e-05,1.20135e-05,-6.81822e-05,4.47178e-05,-8.05714e-06,2.58297e-06
484,-3.87514e-05,6.21919e-06,-3.77415e-05,4.29416e-05,-2.77278e-06,2.38612e-07
485,1.14402e-06,3.65534e-06,5.70937e-05,4.95788e-05,2.06372e-07,4.55413e-06
486,2.81133e-05,5.7272e-06,0.000104465,6.05154e-05,-1.87017e-06,7.52008e-06
487,2.69772e-05,1.39929e-05,9.10922e-05,6.93228e-05,-2.77428e-06,7.0003e-06
488,-2.83981e-06,2.06325e-05,2.22359e-05,6.37854e-05,-2.67332e-06,1.07543e-06
489,-3.93016e-05,1.75803e-05,-5.79484e-05,4.89902e-05,-1.72953e-06,-5.92194e-06
490,-3.93365e-05,1.1205e-05,-4.40794e-05,4.33566e-05,-7.69926e-08,-4.84448e-06
491,-3.22964e-06,1.04904e-05,6.19636e-05,4.71294e-05,-2.24867e-06,5.04454e-06
492,2.41465e-05,1.57068e-05,0.000132044,5.40218e-05,-8.50107e-06,1.49087e-05
493,2.3103e-05,2.30458e-05,0.000107537,6.32635e-05,-7.72035e-06,1.75012e-05
494,-3.04717e-07,2.65536e-05,2.6896e-05,6.35884e-05,1.49724e-07,1.26115e-05
495,-4.01451e-05,2.26807e-05,-6.06274e-05,5.02182e-05,7.32198e-06,4.14271e-06
496,-5.55925e-05,1.62994e-05,-5.33921e-05,3.55562e-05,1.06878e-05,2.90527e-06
497,-2.41072e-05,1.45089e-05,5.42323e-05,2.8419e-05,6.58252e-06,9.44261e-06
498,9.46545e-06,1.65065e-05,0.000126163,2.3283e-05,-3.70615e-06,1.5401e-05
499,8.59033e-06,2.12549e-05,0.00010266,2.37474e-05,-6.45086e-06,1.65833e-05
500,-1.68672e-05,2.47566e-05,3.73318e-05,2.32576e-05,-7.0285e-07,1.34076e-05
501,-6.27898e-05,1.91233e-05,-5.05257e-05,1.75862e-05,8.50094e-07,8.62582e-06
502,-7.8017e-05,8.34369e-06,-6.60992e-05,1.82702e-05,2.34376e-06,5.42039e-06
503,-3.23551e-05,4.02727e-06,3.71799e-05,3.43234e-05,1.35822e-06,7.17184e-06
504,-2.23332e-06,5.76848e-06,9.4961e-05,4.75512e-05,-8.9344e-06,1.10393e-05
505,-5.18595e-06,8.20785e-06,8.91554e-05,5.05789e-05,-1.38179e-05,1.11978e-05
506,-3.86528e-06,6.10863e-06,8.88512e-05,5.60722e-05,-1.36206e-05,1.17478e-05
507,1.93287e-06,7.4609e-06,8.35722e-05,6.69708e-05,-1.73729e-05,1.34992e-05
508,7.38198e-06,1.688e-05,8.53454e-05,7.68604e-05,-1.82642e-05,1.48323e-05
509,-1.22246e-05,2.41591e-05,3.47431e-05,7.50946e-05,-8.73952e-06,1.02801e-05
510,-4.35933e-05,1.89068e-05,-3.39968e-05,6.63739e-05,4.31537e-06,2.00214e-07
511,-3.46602e-05,7.858e-06,-1.20995e-05,6.39489e-05,1.04192e-05,-5.37643e-07
512,1.07897e-05,1.25428e-06,7.0058e-05,6.32221e-05,7.92768e-06,1.03625e-05
513,3.94136e-05,1.38909e-06,0.00010701,6.72925e-05,9.56975e-07,1.81847e-05
514,3.5743e-05,9.87293e-06,9.11702e-05,7.4709e-05,-4.14816e-06,1.70829e-05
515,1.88246e-06,1.80996e-05,2.90987e-05,7.15398e-05,-7.54315e-06,9.59245e-06
516,-3.86449e-05,1.55888e-05,-4.34794e-05,5.64085e-05,-8.00036e-06,2.32397e-06
517,-4.29728e-05,5.49983e-06,-3.32341e-05,4.77121e-05,-2.653e-06,1.3107e-06
518,-8.90975e-06,-2.05791e-06,5.50974e-05,4.81225e-05,2.94484e-06,7.34436e-06
519,2.21187e-05,-5.30849e-07,0.000113382,5.1441e-05,-2.12274e-06,1.55321e-05
520,2.50335e-05,9.12235e-06,9.45717e-05,5.63882e-05,-1.34618e-05,1.91986e-05
521,-8.89293e-07,1.89378e-05,2.10825e-05,5.31859e-05,-2.11647e-05,1.73713e-05
522,-4.33157e-05,1.76893e-05,-7.03199e-05,4.13142e-05,-2.18947e-05,1.37998e-05
523,-5.31281e-05,7.40682e-06,-6.78398e-05,3.8391e-05,-1.64472e-05,1.37437e-05
524,-1.31647e-05,2.12064e-06,4.05291e-05,4.73181e-05,-1.22527e-05,1.73296e-05
525,2.77522e-05,6.62772e-06,0.000117023,5.40852e-05,-1.87483e-05,1.97691e-05
526,3.49165e-05,1.80804e-05,0.000108951,5.65632e-05,-2.736e-05,2.01025e-05
527,1.196e-05,2.64143e-05,6.15082e-05,5.09914e-05,-2.33665e-05,1.73436e-05
528,-4.04665e-05,2.06893e-05,-2.00178e-05,3.94028e-05,-1.25465e-05,9.16554e-06
529,-6.28131e-05,6.87393e-06,-3.99502e-05,3.34906e-05,-2.20909e-06,7.5859e-06
530,-1.92328e-05,2.96166e-06,4.92384e-05,4.41378e-05,6.35686e-06,1.3498e-05
531,8.15381e-06,6.36964e-06,7.95847e-05,5.68477e-05,5.05263e-06,1.30063e-05
532,1.86854e-06,7.84724e-06,4.92387e-05,5.65358e-05,-7.99255e-06,1.20588e-05
533,8.4949e-06,6.7568e-06,5.84097e-05,5.28723e-05,-1.45905e-05,1.87573e-05
534,2.0339e-05,6.43158e-06,7.93616e-05,5.75139e-05,-1.05467e-05,2.42105e-05
535,2.17045e-05,1.15444e-05,9.14719e-05,5.76388e-05,-7.98829e-06,2.49862e-05
536,-5.00727e-06,1.71256e-05,3.54735e-05,4.16959e-05,-6.33983e-06,1.75292e-05
537,-4.02974e-05,1.42917e-05,-4.52201e-05,2.66867e-05,-3.957e-06,7.74628e-06
538,-3.57304e-05,9.90462e-06,-2.60137e-05,2.84041e-05,-3.53032e-06,9.85756e-06
539,4.27223e-06,1.02983e-05,6.9366e-05,3.81762e-05,-9.41356e-06,2.04055e-05
540,3.40556e-05,1.55749e-05,0.000120471,5.40539e-05,-1.87693e-05,2.74627e-05
541,3.64268e-05,2.24022e-05,0.000102658,6.85039e-05,-2.12687e-05,2.79213e-05
542,4.60815e-06,2.49411e-05,2.17169e-05,6.70142e-05,-1.67893e-05,2.40207e-05
543,-3.69361e-05,2.08033e-05,-6.96802e-05,5.35458e-05,-7.20834e-06,1.73047e-05
544,-3.98511e-05,1.4136e-05,-5.68049e-05,4.93217e-05,6.33768e-08,1.21357e-05
545,-1.4022e-06,1.10333e-05,5.0768e-05,5.7983e-05,-4.38485e-06,1.17765e-05
546,3.1173e-05,1.38866e-05,0.000126336,7.0394e-05,-2.04915e-05,1.43069e-05
547,3.16873e-05,2.19139e-05,0.000119111,7.75942e-05,-3.64173e-05,1.54375e-05
548,9.18171e-06,2.76477e-05,5.46813e-05,6.87031e-05,-3.76301e-05,1.41156e-05
549,-2.26141e-05,2.43722e-05,-3.28534e-05,4.99561e-05,-2.24832e-05,1.14948e-05
550,-2.89588e-05,1.76592e-05,-3.4646e-05,4.48667e-05,-1.04037e-05,1.2286e-05
551,4.01722e-06,1.54199e-05,6.75224e-05,5.59238e-05,-1.32428e-05,1.54423e-05
552,3.53219e-05,1.51015e-05,0.000140534,6.29936e-05,-1.92684e-05,1.36628e-05
553,3.32396e-05,1.74578e-05,0.000123094,6.74597e-05,-2.06257e-05,8.34923e-06
554,6.67631e-06,2.12507e-05,5.91576e-05,6.94035e-05,-1.6899e-05,4.69398e-06
555,-4.40809e-05,1.91903e-05,-3.58274e-05,6.19757e-05,-1.01474e-05,1.88782e-06
556,-6.74948e-05,9.22318e-06,-5.67638e-05,5.23328e-05,-6.11679e-06,1.57599e-06
557,-2.43659e-05,3.8607e-06,4.41161e-05,5.05195e-05,-7.21755e-06,9.96708e-06
558,1.133e-05,8.22796e-06,9.93932e-05,4.75614e-05,-1.41184e-05,1.48769e-05
559,1.10653e-05,1.46399e-05,9.15733e-05,4.20166e-05,-2.4374e-05,1.36711e-05
560,6.79036e-06,1.53768e-05,8.85332e-05,4.37981e-05,-2.73124e-05,1.47011e-05
561,-4.50268e-07,1.4253e-05,7.82999e-05,5.29135e-05,-2.38415e-05,1.05641e-05
562,-9.60646e-06,1.88185e-05,6.94816e-05,5.72519e-05,-2.20482e-05,5.77562e-06
563,-3.40234e-05,2.22821e-05,1.45623e-05,4.44832e-05,-2.20811e-05,2.17628e-06
564,-5.98602e-05,1.7059e-05,-5.3475e-05,2.93211e-05,-1.68577e-05,-1.90154e-06
565,-4.56497e-05,1.033e-05,-2.92138e-05,3.38719e-05,-1.04064e-05,-1.64346e-06
566,-1.47195e-06,9.44312e-06,6.10351e-05,4.46948e-05,-1.21553e-05,2.82988e-06
567,2.58538e-05,1.32318e-05,0.000102722,5.29663e-05,-2.06751e-05,8.92624e-06
568,2.30111e-05,2.02451e-05,7.93129e-05,5.8784e-05,-2.6409e-05,1.61109e-05
569,-8.27675e-06,2.35945e-05,4.49276e-07,5.33989e-05,-2.71326e-05,1.81515e-05
570,-4.27609e-05,1.62714e-05,-8.24436e-05,3.61136e-05,-2.52968e-05,1.11339e-05
571,-4.129e-05,6.82796e-06,-6.45416e-05,2.73757e-05,-1.90648e-05,3.59381e-06
572,-3.78104e-06,6.71846e-06,4.28432e-05,3.22439e-05,-1.25491e-05,2.98639e-06
573,2.99138e-05,1.62452e-05,0.000114031,4.22473e-05,-9.37215e-06,6.91825e-06
574,3.43454e-05,2.91255e-05,9.83313e-05,5.35853e-05,-7.72968e-06,9.46716e-06
575,1.09892e-05,3.71717e-05,2.73197e-05,5.83165e-05,-4.15994e-06,7.32273e-06
576,-2.69586e-05,3.19695e-05,-6.05831e-05,5.18473e-05,3.96682e-06,9.33842e-07
577,-3.67855e-05,1.9268e-05,-6.10543e-05,4.69813e-05,1.33343e-05,-1.26348e-06
578,-3.27844e-06,1.10935e-05,4.25718e-05,5.0914e-05,1.70331e-05,5.9948e-06
579,2.89824e-05,1.01721e-05,0.000117882,5.86828e-05,9.52283e-06,1.56591e-05
580,3.3088e-05,1.61553e-05,0.000102659,7.03903e-05,3.76631e-08,1.98505e-05
581,1.54851e-05,2.10586e-05,4.13596e-05,6.65812e-05,3.01664e-06,1.86884e-05
582,-2.9928e-05,1.47943e-05,-4.68783e-05,4.34642e-05,9.04419e-06,1.42851e-05
583,-5.53397e-05,3.85717e-06,-5.52663e-05,2.7635e-05,1.02678e-05,1.26831e-05
584,-2.15738e-05,1.85562e-06,5.12227e-05,3.08823e-05,7.85922e-06,1.87436e-05
585,7.00041e-06,5.26054e-06,9.87982e-05,3.3679e-05,2.3793e-06,2.07616e-05
586,1.08463e-05,7.56856e-06,7.70976e-05,2.33735e-05,-7.31682e-06,1.51689e-05
587,1.67436e-05,7.57702e-06,7.15354e-05,1.6716e-05,-1.36423e-05,1.62717e-05
588,1.70454e-05,8.41512e-06,7.31386e-05,3.30457e-05,-6.90539e-06,2.51154e-05
589,1.35543e-05,1.40357e-05,7.71831e-05,5.47547e-05,5.13288e-06,3.02737e-05
590,-1.42486e-05,1.76168e-05,2.73214e-05,5.5581e-05,6.96794e-06,2.01958e-05
591,-5.49845e-05,1.12457e-05,-4.71662e-05,4.48796e-05,3.7463e-06,5.35963e-06
592,-5.3622e-05,5.91812e-06,-2.92215e-05,5.17172e-05,4.02364e-06,3.68059e-06
593,-1.45705e-05,5.92448e-06,5.98017e-05,6.94409e-05,-1.99663e-06,1.0819e-05
594,1.1961e-05,7.18644e-06,0.000100729,8.66242e-05,-1.07176e-05,1.33533e-05
595,1.13148e-05,8.64672e-06,7.78585e-05,9.63686e-05,-1.15379e-05,1.10866e-05
596,-1.75077e-05,7.529e-06,6.85787e-06,8.65719e-05,-5.04956e-06,7.22638e-06
597,-5.55667e-05,4.54485e-07,-6.77067e-05,6.45088e-05,-6.39796e-07,4.08176e-06
598,-6.05391e-05,-6.39391e-06,-4.98456e-05,5.44977e-05,-2.42552e-06,6.89514e-06
599,-2.64279e-05,-7.37668e-06,5.59778e-05,5.7448e-05,-7.90241e-06,1.61525e-05
600,5.91001e-06,-3.63131e-06,0.00012698,6.13267e-05,-1.27001e-05,2.38373e-05
601,1.16693e-05,4.42747e-06,0.000109217,6.40853e-05,-1.27647e-05,2.40565e-05
602,-8.16513e-06,9.56554e-06,3.63061e-05,5.61331e-05,-8.35192e-06,2.05872e-05
603,-4.25965e-05,4.50212e-06,-4.87492e-05,3.70833e-05,-1.01565e-06,1.86998e-05
604,-4.66712e-05,-3.73213e-06,-4.64055e-05,2.94242e-05,8.75541e-06,2.32188e-05
605,-8.92953e-06,-7.18762e-06,5.73091e-05,4.27766e-05,1.12527e-05,2.84665e-05
606,2.21804e-05,-6.43386e-06,0.000133549,6.18186e-05,-1.35541e-06,2.63409e-05
607,1.82069e-05,3.17723e-06,0.000121095,7.95848e-05,-1.56636e-05,1.82772e-05
608,-1.08817e-05,1.483e-05,5.7305e-05,8.17803e-05,-1.9141e-05,1.34608e-05
609,-5.89664e-05,1.48981e-05,-3.69718e-05,6.1819e-05,-1.4251e-05,1.17032e-05
610,-7.4592e-05,7.82015e-06,-4.93014e-05,4.92641e-05,-9.26921e-06,1.13976e-05
611,-2.82905e-05,5.92131e-06,6.08694e-05,6.03524e-05,-9.31506e-06,1.45042e-05
612,-1.39938e-06,9.49256e-06,0.000103382,6.23149e-05,-1.52679e-05,1.37678e-05
613,-2.61906e-06,1.28707e-05,6.8063e-05,4.45468e-05,-2.29422e-05,1.16118e-05
614,7.7899e-06,8.8745e-06,6.35586e-05,3.31001e-05,-2.22353e-05,1.22316e-05
615,1.88354e-05,5.69222e-06,6.58532e-05,4.11173e-05,-1.64513e-05,1.27072e-05
616,2.10503e-05,1.47175e-05,6.76609e-05,5.07422e-05,-1.38993e-05,1.43233e-05
617,-5.27328e-06,2.5626e-05,1.93192e-05,4.33936e-05,-1.48972e-05,1.35692e-05
618,-3.76218e-05,2.04703e-05,-4.65943e-05,3.09115e-05,-1.69711e-05,6.54255e-06
619,-3.06757e-05,8.04485e-06,-2.11464e-05,3.42658e-05,-1.71558e-05,1.04239e-06
620,9.99993e-06,1.76173e-06,7.06107e-05,4.4794e-05,-1.71773e-05,4.79887e-06
621,3.52218e-05,6.34116e-06,0.000121006,5.48801e-05,-1.2391e-05,1.09825e-05
622,3.46031e-05,1.73022e-05,0.000109799,6.11237e-05,-2.35288e-06,1.43564e-05
623,1.09266e-05,2.13145e-05,3.8993e-05,5.52888e-05,1.24636e-06,1.25528e-05
624,-1.82627e-05,1.41319e-05,-4.34581e-05,3.94144e-05,-4.45366e-06,6.41691e-06
625,-1.62546e-05,4.78182e-06,-3.40921e-05,3.18726e-05,-8.38882e-06,3.24267e-06
626,1.75277e-05,2.61636e-06,5.88785e-05,3.58871e-05,-8.03147e-06,7.33707e-06
627,4.26625e-05,8.32138e-06,0.000121006,4.30755e-05,-1.14662e-05,1.28569e-05
628,3.7445e-05,1.83268e-05,0.000104399,4.94792e-05,-1.51485e-05,1.37976e-05
629,7.01019e-06,2.32413e-05,3.44304e-05,4.61057e-05,-1.39874e-05,8.15147e-06
630,-3.57137e-05,1.96348e-05,-5.39481e-05,3.16721e-05,-8.84789e-06,-1.57407e-06
631,-4.80229e-05,1.5687e-05,-5.6208e-05,2.34062e-05,1.30016e-06,-4.2378e-06
632,-1.8762e-05,1.73108e-05,4.288e-05,2.96066e-05,7.28008e-06,3.56473e-06
633,1.02734e-05,2.04815e-05,0.000117991,3.78625e-05,-1.40377e-07,1.21276e-05
634,1.27064e-05,2.56797e-05,0.000113296,4.86761e-05,-7.55301e-06,1.46731e-05
635,-5.33669e-06,2.84231e-05,5.77941e-05,5.48909e-05,-1.73639e-06,1.05338e-05
636,-4.52768e-05,2.006e-05,-4.13298e-05,5.00636e-05,5.33595e-06,2.15762e-06
637,-6.17054e-05,8.4959e-06,-6.25414e-05,4.3536e-05,6.28618e-06,-2.46852e-07
638,-2.14363e-05,9.89918e-06,4.1278e-05,4.27804e-05,1.04272e-05,7.45832e-06
639,1.05764e-05,1.44858e-05,9.23666e-05,4.25095e-05,1.26727e-05,1.32488e-05
640,1.50153e-05,1.12455e-05,7.25269e-05,4.25195e-05,4.76952e-06,1.21683e-05
641,1.88333e-05,6.3317e-06,6.25282e-05,4.63598e-05,-2.80233e-06,1.14631e-05
642,2.25869e-05,7.77344e-06,5.88399e-05,5.66707e-05,-6.48798e-06,1.09833e-05
643,2.90099e-05,1.51626e-05,5.81383e-05,6.47128e-05,-1.35021e-05,1.07808e-05
644,9.6199e-06,1.87888e-05,6.18834e-06,5.65414e-05,-1.71289e-05,7.97991e-06
645,-2.81971e-05,1.27211e-05,-5.94442e-05,4.14515e-05,-1.10359e-05,2.86055e-06
646,-3.38432e-05,5.70596e-06,-2.8826e-05,4.17647e-05,-1.55814e-06,3.04397e-06
647,-4.67171e-06,4.42579e-06,6.2856e-05,5.10512e-05,-7.17093e-07,1.22642e-05
648,1.73577e-05,7.28668e-06,9.82808e-05,6.08256e-05,-8.75415e-06,2.15493e-05
649,1.87078e-05,1.20921e-05,7.33119e-05,7.05789e-05,-1.68104e-05,2.31428e-05
650,-6.48388e-06,1.54141e-05,3.7883e-06,6.83919e-05,-2.06528e-05,1.3782e-05
651,-4.2879e-05,1.29227e-05,-6.82935e-05,5.33478e-05,-1.69447e-05,7.30361e-07
652,-4.65103e-05,7.20611e-06,-4.59747e-05,4.59238e-05,-1.09978e-05,-1.71701e-06
653,-1.14859e-05,4.20409e-06,6.0539e-05,4.96837e-05,-1.07562e-05,6.70499e-06
654,1.78915e-05,4.29597e-06,0.000130255,5.58978e-05,-1.70045e-05,1.57661e-05
655,1.41865e-05,7.40193e-06,0.000114224,6.21098e-05,-2.03e-05,1.90784e-05
656,-1.44015e-05,1.08811e-05,4.13233e-05,6.0792e-05,-1.68492e-05,1.64577e-05
657,-5.09879e-05,9.14525e-06,-5.25544e-05,4.96591e-05,-1.22971e-05,9.35646e-06
658,-5.57318e-05,1.6808e-06,-6.40599e-05,4.4032e-05,-1.02987e-05,2.88901e-06
659,-2.23726e-05,-5.12888e-06,3.08051e-05,4.83187e-05,-1.23625e-05,1.14601e-06
660,3.594e-06,-7.09719e-06,0.00010735,5.24122e-05,-1.85822e-05,4.55078e-06
661,4.99162e-06,-1.05589e-06,9.79619e-05,5.97137e-05,-2.50894e-05,7.64063e-06
662,-8.47503e-06,6.06403e-06,4.1753e-05,6.18586e-05,-2.61154e-05,7.44488e-06
663,-4.58955e-05,7.37755e-06,-4.36534e-05,4.7765e-05,-1.62525e-05,2.49034e-06
664,-5.94798e-05,6.88106e-06,-6.13249e-05,3.04995e-05,-2.96957e-06,-1.72782e-06
665,-1.29333e-05,1.13971e-05,3.60293e-05,3.22741e-05,3.2618e-06,3.76886e-06
666,2.48274e-05,1.7916e-05,9.14703e-05,4.82185e-05,-4.46698e-09,1.30542e-05
667,2.67777e-05,1.60334e-05,8.02422e-05,5.42612e-05,-8.69804e-06,1.67713e-05
668,2.20092e-05,8.77865e-06,7.39907e-05,5.16405e-05,-1.46758e-05,1.72472e-05
669,2.05281e-05,8.96197e-06,7.06513e-05,5.68009e-05,-1.98598e-05,1.72879e-05
670,2.20944e-05,1.65622e-05,7.2007e-05,6.37348e-05,-1.96342e-05,1.74901e-05
671,-2.0576e-06,2.13733e-05,2.42269e-05,5.73e-05,-1.73243e-05,1.34273e-05
672,-4.01782e-05,1.604e-05,-3.66522e-05,3.98153e-05,-1.78587e-05,7.92238e-06
673,-3.84018e-05,9.53567e-06,-2.71546e-06,3.28978e-05,-1.38592e-05,1.03092e-05
674,4.049e-06,1.01696e-05,9.1823e-05,3.82879e-05,-8.41288e-06,1.83842e-05
675,3.64507e-05,1.5655e-05,0.000134044,5.14782e-05,-5.93925e-06,2.40987e-05
676,3.78277e-05,2.37505e-05,0.000113085,6.11359e-05,-4.0621e-06,2.45488e-05
677,5.96393e-06,3.01401e-05,3.81743e-05,5.64364e-05,-3.99532e-06,2.02949e-05
678,-3.40142e-05,2.77604e-05,-4.86015e-05,3.92674e-05,-4.814e-06,1.45267e-05
679,-3.74803e-05,1.87454e-05,-4.40615e-05,2.99033e-05,-6.39927e-06,1.34147e-05
680,-3.00048e-06,1.14269e-05,5.30495e-05,3.48695e-05,-1.33409e-05,1.57092e-05
681,2.72501e-05,9.91682e-06,0.000123611,4.56092e-05,-2.28997e-05,1.61938e-05
682,3.0206e-05,1.42186e-05,0.000112789,5.69649e-05,-2.54299e-05,1.41551e-05
683,8.96051e-06,1.81959e-05,4.50763e-05,6.06359e-05,-2.23222e-05,9.95268e-06
684,-2.84725e-05,1.44962e-05,-4.3439e-05,5.3178e-05,-1.54858e-05,4.15696e-06
685,-4.24727e-05,7.98842e-06,-4.81591e-05,4.66824e-05,-5.22393e-06,5.66247e-06
686,-1.26792e-05,8.77416e-06,5.37926e-05,4.98859e-05,-2.57807e-06,1.83926e-05
687,2.34324e-05,1.58842e-05,0.00013065,5.25603e-05,-1.04091e-05,2.83269e-05
688,2.90806e-05,2.49692e-05,0.00011606,5.67572e-05,-1.55521e-05,2.41169e-05
689,4.71588e-06,2.94275e-05,5.32972e-05,5.58433e-05,-1.10427e-05,1.38662e-05
690,-4.33547e-05,2.26131e-05,-3.7986e-05,4.58196e-05,-2.1799e-06,7.70152e-06
691,-6.13219e-05,9.10445e-06,-5.57799e-05,3.80632e-05,8.58399e-06,9.2289e-06
692,-1.53211e-05,6.28699e-06,4.23085e-05,4.311e-05,1.20338e-05,1.58481e-05
693,2.28686e-05,1.57613e-05,9.38823e-05,5.19833e-05,4.25794e-06,1.91924e-05
694,2.96908e-05,1.87799e-05,7.83172e-05,4.97727e-05,-3.90523e-06,2.0849e-05
695,3.32596e-05,9.84451e-06,7.25017e-05,4.08559e-05,-3.69043e-07,2.28523e-05
696,3.49102e-05,3.76839e-06,6.76619e-05,4.3207e-05,2.93557e-06,2.30075e-05
697,3.46801e-05,9.16359e-06,6.23803e-05,4.82773e-05,-2.85748e-06,2.57306e-05
698,8.94917e-06,1.64345e-05,1.01706e-05,3.09296e-05,-6.39718e-06,2.65583e-05
699,-3.19344e-05,1.52826e-05,-5.84729e-05,3.47429e-06,-4.10333e-06,2.19627e-05
700,-3.6852e-05,1.05919e-05,-3.93536e-05,7.64082e-07,-4.67018e-07,1.84681e-05
701,-5.41479e-06,5.77409e-06,4.5958e-05,1.40238e-05,-4.8871e-06,1.99064e-05
702,1.76107e-05,3.50367e-06,9.31505e-05,2.4499e-05,-1.47068e-05,2.40917e-05
703,2.1222e-05,9.14521e-06,8.26532e-05,2.66901e-05,-2.38647e-05,2.68029e-05
704,2.47242e-06,1.86311e-05,1.41226e-05,2.15841e-05,-2.70865e-05,2.19982e-05
705,-2.71119e-05,1.8007e-05,-6.89966e-05,2.00681e-05,-2.12768e-05,1.21444e-05
706,-3.22116e-05,9.67757e-06,-6.14161e-05,3.38405e-05,-9.32087e-06,9.64394e-06
707,-4.9649e-06,5.51066e-06,4.03708e-05,5.41542e-05,-1.61715e-06,1.62977e-05
708,2.11915e-05,8.29034e-06,0.000114684,7.18736e-05,-6.00135e-06,2.20409e-05
709,2.65857e-05,1.62398e-05,0.000102924,9.13773e-05,-1.47862e-05,2.11597e-05
710,1.13531e-05,2.39384e-05,3.37417e-05,0.000104921,-1.76672e-05,1.68815e-05
711,-1.97058e-05,2.3388e-05,-5.04453e-05,0.000100596,-1.285e-05,1.17215e-05
712,-3.23187e-05,1.49692e-05,-4.66469e-05,9.36505e-05,-3.96052e-06,8.95955e-06
713,-9.04428e-06,1.03669e-05,5.7825e-05,0.000100346,7.66205e-07,1.21709e-05
714,1.70958e-05,1.27718e-05,0.000132434,0.000111057,-6.52204e-06,1.56553e-05
715,1.70013e-05,2.02392e-05,0.000121165,0.000121123,-1.2261e-05,1.64614e-05
716,-5.34414e-06,2.78924e-05,6.81148e-05,0.000117158,-4.80185e-06,1.49545e-05
717,-4.97782e-05,2.47726e-05,-1.78258e-05,9.78821e-05,2.06428e-06,6.61871e-06
718,-6.6966e-05,1.376e-05,-4.05161e-05,8.45032e-05,-1.37849e-06,-6.6253e-07
719,-2.67225e-05,1.1587e-05,4.83319e-05,8.66891e-05,-9.37373e-06,3.30603e-06
720,-1.34489e-06,1.79301e-05,9.53924e-05,8.69664e-05,-1.93152e-05,1.10055e-05
721,-3.35014e-06,2.07683e-05,8.21047e-05,7.09533e-05,-2.56012e-05,1.50584e-05
722,-8.7329e-07,1.76938e-05,7.75757e-05,5.26139e-05,-2.65118e-05,1.53691e-05
723,3.96315e-06,1.77615e-05,7.66033e-05,5.51736e-05,-2.85497e-05,1.14223e-05
724,8.92398e-06,2.30431e-05,7.54249e-05,6.66872e-05,-3.31297e-05,9.11992e-06
725,-1.16266e-05,2.48229e-05,2.04407e-05,5.9856e-05,-3.42154e-05,8.05259e-06
726,-4.68501e-05,1.88393e-05,-5.25307e-05,4.0673e-05,-2.62469e-05,3.76801e-06
727,-4.64485e-05,1.41004e-05,-2.97827e-05,3.21311e-05,-1.37586e-05,-1.08051e-06
728,-7.58079e-06,1.34808e-05,6.4137e-05,3.12404e-05,-1.05446e-05,-9.32231e-08
729,2.18018e-05,1.49174e-05,0.000108955,3.2229e-05,-1.90456e-05,3.64049e-06
730,2.4445e-05,1.98108e-05,8.95225e-05,3.10376e-05,-2.53123e-05,6.97575e-06
731,-5.60685e-07,2.52635e-05,2.03008e-05,2.28194e-05,-2.32557e-05,9.1017e-06
732,-3.37263e-05,2.32869e-05,-5.79996e-05,1.3519e-05,-1.50846e-05,8.40279e-06
733,-3.69009e-05,1.76296e-05,-5.28405e-05,1.74631e-05,-4.39605e-06,7.03779e-06
734,-5.67898e-06,1.62924e-05,3.52552e-05,2.77547e-05,1.11786e-06,6.67639e-06
735,2.25821e-05,2.0534e-05,9.21297e-05,3.53046e-05,-4.25864e-06,6.37166e-06
736,2.51093e-05,2.55136e-05,7.37433e-05,4.13798e-05,-1.23613e-05,6.57303e-06
737,3.1336e-06,2.30439e-05,1.31997e-05,4.01498e-05,-1.57062e-05,8.74442e-06
738,-3.36496e-05,1.13051e-05,-5.92006e-05,3.15335e-05,-1.35956e-05,8.6464e-06
739,-4.23554e-05,-6.02202e-07,-4.879e-05,2.96741e-05,-7.05671e-06,5.31145e-06
740,-4.16577e-06,-3.50935e-06,6.05343e-05,3.78249e-05,-1.65064e-06,2.1846e-06
741,3.46065e-05,1.25371e-06,0.000136117,4.44141e-05,-3.87049e-06,3.27419e-06
742,3.56265e-05,9.13709e-06,0.000120363,5.15699e-05,-6.64139e-06,6.45415e-06
743,1.19124e-06,1.33588e-05,6.16676e-05,5.20368e-05,-4.5365e-06,5.56687e-06
744,-5.52493e-05,1.05671e-05,-2.55193e-05,4.09131e-05,-3.7714e-06,-2.63164e-06
745,-7.11729e-05,6.68195e-06,-4.43855e-05,3.41616e-05,-3.17294e-06,-7.85663e-06
746,-1.91215e-05,9.84155e-06,5.42688e-05,4.47837e-05,-2.5383e-06,-1.51621e-06
747,1.90132e-05,1.52816e-05,0.000108329,5.82292e-05,-8.59651e-06,1.09002e-05
748,2.03679e-05,1.68918e-05,8.99595e-05,5.63526e-05,-1.70505e-05,1.97928e-05
749,2.16691e-05,1.37331e-05,7.73328e-05,4.94856e-05,-1.39696e-05,2.29744e-05
750,1.9394e-05,1.26948e-05,7.16011e-05,5.58322e-05,-7.72016e-06,2.08715e-05
751,1.19508e-05,1.86702e-05,7.03412e-05,6.10341e-05,-9.36853e-06,1.71805e-05
752,-1.66396e-05,2.16818e-05,1.69849e-05,4.94662e-05,-1.00607e-05,1.37725e-05
753,-4.80606e-05,1.1407e-05,-4.59812e-05,3.58337e-05,-4.31015e-06,1.03939e-05
754,-4.11459e-05,1.67778e-06,-1.58019e-05,4.07619e-05,1.3691e-06,1.27208e-05
755,-1.87487e-06,2.43993e-06,7.26954e-05,5.16582e-05,4.25506e-06,1.98069e-05
756,2.68945e-05,9.08934e-06,0.000110909,5.71845e-05,3.0498e-06,2.69024e-05
757,2.96756e-05,1.76202e-05,8.98763e-05,5.52854e-05,-3.8628e-06,2.97221e-05
758,2.1974e-06,2.07136e-05,1.8551e-05,4.7157e-05,-1.37884e-05,2.50621e-05
759,-3.70425e-05,1.241e-05,-6.13977e-05,3.94009e-05,-1.70935e-05,1.72892e-05
760,-4.19403e-05,1.98843e-06,-4.98638e-05,4.23887e-05,-9.44291e-06,1.67113e-05
761,-5.10223e-06,-1.99476e-06,4.68183e-05,4.94721e-05,-2.68425e-06,2.30003e-05
762,2.94465e-05,3.60746e-07,0.00011078,5.28467e-05,-3.49092e-06,2.65045e-05
763,3.34258e-05,9.0173e-06,9.09571e-05,5.59074e-05,-2.9584e-06,2.51291e-05
764,1.19886e-05,1.74284e-05,1.56648e-05,5.46117e-05,1.62433e-06,1.99764e-05
765,-2.48665e-05,1.36091e-05,-7.43062e-05,4.5184e-05,2.17838e-06,1.05192e-05
766,-3.47009e-05,1.4308e-06,-6.90564e-05,3.93657e-05,-2.09621e-06,5.06774e-06
767,-5.16899e-07,-5.01972e-06,4.53296e-05,4.67703e-05,-7.32678e-06,1.11206e-05
768,3.16025e-05,-4.91779e-06,0.000129377,5.63691e-05,-1.48838e-05,1.94579e-05
769,2.94536e-05,8.70419e-07,0.000117865,6.14728e-05,-2.23915e-05,2.0897e-05
770,4.08175e-06,9.98641e-06,5.17171e-05,5.75351e-05,-2.25416e-05,1.8087e-05
771,-3.79868e-05,1.30788e-05,-4.44917e-05,4.6489e-05,-1.49763e-05,1.08065e-05
772,-5.24843e-05,6.89152e-06,-5.99249e-05,4.03492e-05,-1.89979e-06,7.20673e-06
773,-1.49656e-05,2.30555e-06,4.30776e-05,4.91005e-05,6.79463e-06,1.42172e-05
774,9.42698e-06,4.13853e-06,9.57226e-05,5.72985e-05,2.65211e-06,1.62974e-05
775,5.92752e-06,9.70703e-06,8.5197e-05,5.39535e-05,-1.05825e-05,1.00688e-05
776,7.99528e-06,1.09427e-05,7.80594e-05,5.32596e-05,-1.82685e-05,6.09436e-06
777,9.57694e-06,1.08785e-05,6.50659e-05,6.96885e-05,-1.6031e-05,4.25135e-06
778,8.66141e-06,1.51378e-05,6.48815e-05,8.49128e-05,-1.11166e-05,3.90778e-06
779,-1.08149e-05,1.58784e-05,2.8597e-05,8.23133e-05,-9.93102e-06,2.96241e-06
780,-4.03659e-05,8.30575e-06,-2.34024e-05,6.75303e-05,-9.06657e-06,4.60483e-07
781,-3.64162e-05,2.90654e-06,2.10628e-06,5.87142e-05,-2.29708e-06,2.10617e-06
782,-2.46898e-06,4.62254e-06,8.53628e-05,5.8422e-05,1.96892e-06,8.51039e-06
783,1.91506e-05,9.36685e-06,0.000127641,6.2538e-05,-3.65028e-07,1.54515e-05
784,1.69578e-05,1.4693e-05,0.000110175,6.34624e-05,-4.67669e-06,2.01414e-05
785,-7.68459e-06,1.77011e-05,3.6356e-05,5.49775e-05,-6.48338e-06,1.87652e-05
786,-3.96028e-05,1.66428e-05,-4.80597e-05,4.37499e-05,-1.93072e-06,1.37275e-05
787,-4.235e-05,1.39171e-05,-3.88732e-05,4.06839e-05,3.98192e-06,1.21931e-05
788,-1.20007e-05,1.0837e-05,6.01715e-05,4.66912e-05,2.02075e-06,1.52603e-05
789,1.5708e-05,9.20712e-06,0.000127556,5.76743e-05,-7.2562e-06,1.89976e-05
790,1.83552e-05,1.21719e-05,0.000109387,6.93056e-05,-1.36714e-05,2.15159e-05
791,-3.22824e-06,1.55344e-05,3.64497e-05,6.67622e-05,-1.40193e-05,2.19165e-05
792,-3.80609e-05,1.28745e-05,-5.15275e-05,4.73171e-05,-9.53205e-06,1.88342e-05
793,-4.37566e-05,7.64436e-06,-4.95111e-05,3.18968e-05,-1.78007e-06,1.60702e-05
794,-6.80926e-06,6.0332e-06,5.98735e-05,3.62094e-05,-1.88087e-06,1.70372e-05
795,2.63299e-05,7.37836e-06,0.000136304,4.90656e-05,-1.12648e-05,1.91722e-05
796,2.64066e-05,1.23936e-05,0.000113482,6.10751e-05,-1.41433e-05,1.99086e-05
797,2.04399e-06,1.51197e-05,4.16904e-05,6.14854e-05,-5.50915e-06,1.72027e-05
798,-4.55617e-05,9.0448e-06,-5.19993e-05,4.7998e-05,3.72734e-06,9.25495e-06
799,-6.63917e-05,-1.00685e-06,-7.06402e-05,3.64403e-05,8.88153e-06,6.05486e-06
800,-2.14474e-05,-4.28408e-08,2.85693e-05,4.28147e-05,6.49933e-06,1.13565e-05
801,1.47395e-05,1.1145e-05,9.19996e-05,5.28671e-05,-4.68382e-07,1.50943e-05
802,1.54499e-05,1.76043e-05,8.41452e-05,5.41264e-05,-6.49399e-06,1.91951e-05
803,1.26412e-05,1.49234e-05,7.30933e-05,5.32043e-05,-9.28998e-06,2.13914e-05
804,7.90937e-06,1.46615e-05,6.63316e-05,5.61152e-05,-4.28907e-06,1.90878e-05
805,5.41971e-06,2.0685e-05,6.72509e-05,5.90064e-05,1.11927e-06,1.7744e-05
806,-1.69844e-05,2.01638e-05,1.57582e-05,4.97046e-05,9.50508e-07,1.47011e-05
807,-5.13645e-05,1.07284e-05,-5.54589e-05,3.79221e-05,4.30259e-06,8.93781e-06
808,-4.58865e-05,5.00363e-06,-2.98222e-05,4.03893e-05,1.17193e-05,7.92564e-06
809,3.02211e-07,7.08028e-06,6.45093e-05,4.75289e-05,1.31553e-05,1.45095e-05
810,3.60541e-05,1.17531e-05,0.000109242,5.48598e-05,7.75853e-06,1.99284e-05
811,4.0404e-05,1.63189e-05,8.84444e-05,6.2138e-05,1.25445e-06,2.07547e-05
812,1.06257e-05,1.81797e-05,1.46672e-05,6.10782e-05,-4.91052e-06,1.59897e-05
813,-2.87031e-05,1.15255e-05,-6.8431e-05,5.15035e-05,-4.02715e-06,9.84386e-06
814,-3.07462e-05,7.05767e-07,-6.1378e-05,4.63343e-05,3.26037e-06,9.95332e-06
815,7.09803e-06,-2.59473e-06,3.88274e-05,4.49089e-05,3.8436e-06,1.80943e-05
816,3.72975e-05,2.98777e-06,0.000112888,4.45581e-05,-6.49992e-06,2.6186e-05
817,3.25283e-05,1.15009e-05,9.98235e-05,4.84236e-05,-1.51367e-05,2.64207e-05
818,1.64867e-06,1.84109e-05,2.9075e-05,4.85469e-05,-1.56628e-05,1.86597e-05
819,-3.7366e-05,1.80142e-05,-5.76966e-05,4.03722e-05,-1.7835e-05,8.52061e-06
820,-4.59114e-05,1.0241e-05,-5.69922e-05,3.7864e-05,-2.14447e-05,4.8243e-06
821,-1.15134e-05,4.05442e-06,5.06583e-05,4.62833e-05,-2.04759e-05,9.07673e-06
822,2.02833e-05,4.447e-06,0.000135763,5.59285e-05,-2.46533e-05,1.16003e-05
823,1.72629e-05,1.42562e-05,0.000130939,6.46069e-05,-3.16469e-05,7.75763e-06
824,-1.00428e-05,2.61111e-05,6.72077e-05,6.26501e-05,-2.66097e-05,4.24671e-06
825,-5.74892e-05,2.72495e-05,-3.37432e-05,4.63718e-05,-1.35349e-05,3.86891e-06
826,-7.28452e-05,2.22501e-05,-4.98173e-05,3.1985e-05,-1.1195e-06,6.10284e-06
827,-2.8037e-05,2.02247e-05,5.79227e-05,3.65851e-05,2.86642e-06,8.85206e-06
828,6.59093e-08,2.06035e-05,9.6402e-05,4.73829e-05,-1.57489e-06,7.67388e-06
829,-4.98844e-06,1.91537e-05,5.96129e-05,5.1346e-05,-1.12805e-05,5.39711e-06
830,-2.531e-06,1.44183e-05,5.8739e-05,5.27801e-05,-1.94505e-05,9.13518e-06
831,8.05489e-06,1.60448e-05,6.80849e-05,5.96407e-05,-2.32557e-05,1.34268e-05
832,1.65521e-05,2.40842e-05,6.50112e-05,6.43183e-05,-2.30175e-05,1.44913e-05
833,-9.33423e-06,2.48787e-05,8.18878e-06,5.08497e-05,-2.20829e-05,9.16166e-06
834,-5.60156e-05,1.48547e-05,-5.57996e-05,3.50752e-05,-2.26572e-05,3.16605e-06
835,-5.69219e-05,9.73694e-06,-2.1423e-05,3.99985e-05,-2.06955e-05,5.26159e-06
836,-8.64883e-06,1.33501e-05,7.50096e-05,5.03068e-05,-1.98681e-05,1.23534e-05
837,2.80104e-05,1.81908e-05,0.000124809,5.41946e-05,-1.69838e-05,1.83474e-05
838,2.79857e-05,2.23668e-05,0.00011076,5.56966e-05,-1.11116e-05,2.10738e-05
839,-2.46401e-06,2.21636e-05,3.72091e-05,5.57463e-05,-7.88931e-06,2.12714e-05
840,-3.53918e-05,1.74753e-05,-4.79838e-05,5.26705e-05,-5.9415e-06,1.93729e-05
841,-3.32543e-05,1.42511e-05,-3.99543e-05,5.5146e-05,-6.67146e-07,1.78675e-05
842,1.92158e-06,1.26562e-05,5.57741e-05,6.11323e-05,4.4454e-06,1.80543e-05
843,3.20104e-05,1.06487e-05,0.000120672,6.48686e-05,4.78495e-06,1.93255e-05
844,3.54618e-05,1.18906e-05,0.000100545,6.67468e-05,4.37854e-06,2.15701e-05
845,1.23016e-05,1.48233e-05,2.06885e-05,6.01408e-05,4.13644e-06,2.07587e-05
846,-2.64498e-05,1.26038e-05,-6.86073e-05,4.45173e-05,5.99699e-07,1.12975e-05
847,-3.81687e-05,6.36805e-06,-5.78419e-05,3.50953e-05,-3.23971e-06,2.27981e-06
848,-9.1587e-06,5.057e-06,5.33117e-05,3.84404e-05,-5.58883e-06,5.71163e-06
849,2.15278e-05,9.92803e-06,0.000123759,4.83798e-05,-7.13389e-06,1.65993e-05
850,2.73012e-05,1.73268e-05,0.000105143,6.35625e-05,-3.25717e-06,2.14114e-05
851,7.23799e-06,1.94527e-05,4.82878e-05,6.74816e-05,1.75989e-06,1.63384e-05
852,-4.40923e-05,1.1122e-05,-3.56744e-05,5.17608e-05,9.3866e-07,4.06114e-06
853,-7.00827e-05,2.74237e-06,-5.6864e-05,3.71783e-05,-1.76895e-06,-9.7895e-07
854,-2.6959e-05,2.32392e-06,3.2001e-05,4.62336e-05,-1.4432e-06,8.113e-06
855,1.36214e-05,4.30327e-06,8.02586e-05,6.13629e-05,-2.23224e-06,1.50465e-05
856,2.04647e-05,5.33649e-06,6.65188e-05,6.13004e-05,-1.03234e-05,1.53094e-05
857,2.02751e-05,6.95072e-06,6.24848e-05,5.82437e-05,-1.74775e-05,1.31035e-05
858,1.71894e-05,1.03574e-05,6.02523e-05,6.24159e-05,-1.41463e-05,1.31974e-05
859,1.44839e-05,1.76984e-05,5.69555e-05,6.24667e-05,-8.78621e-06,1.74901e-05
860,-6.33732e-06,2.24726e-05,4.94375e-06,4.67155e-05,-8.01457e-06,1.70559e-05
861,-4.04969e-05,1.69914e-05,-5.98387e-05,3.08701e-05,-1.0888e-05,1.17422e-05
862,-3.82994e-05,8.72452e-06,-3.20496e-05,3.7975e-05,-1.37926e-05,9.34547e-06
863,-4.76677e-07,2.24817e-06,6.34237e-05,5.03466e-05,-1.58008e-05,1.08538e-05
864,2.13747e-05,4.39191e-06,0.000114868,6.12822e-05,-1.76971e-05,1.09617e-05
865,1.37867e-05,1.64386e-05,0.000102995,7.19706e-05,-1.62925e-05,1.08294e-05
866,-1.90351e-05,2.42959e-05,3.69724e-05,7.33465e-05,-1.61019e-05,9.7141e-06
867,-5.46672e-05,1.82701e-05,-4.08686e-05,6.19737e-05,-1.92156e-05,4.68256e-06
868,-5.4843e-05,8.16839e-06,-3.40498e-05,4.96605e-05,-2.19597e-05,-6.10969e-07
869,-1.67352e-05,4.17207e-06,5.57005e-05,4.51539e-05,-2.33897e-05,1.04884e-06
870,1.65741e-05,8.67194e-06,0.000116849,4.99146e-05,-2.67892e-05,7.40307e-06
871,1.95925e-05,1.98478e-05,0.000103282,5.96854e-05,-2.80712e-05,1.06187e-05
872,-3.48032e-06,2.96839e-05,3.9046e-05,6.18244e-05,-2.46151e-05,8.33528e-06
873,-3.74626e-05,3.06167e-05,-4.52204e-05,5.17943e-05,-2.01542e-05,2.71593e-06
874,-4.37871e-05,2.44196e-05,-4.9145e-05,4.20501e-05,-1.45336e-05,5.38706e-07
875,-1.2245e-05,1.77538e-05,4.62876e-05,4.1105e-05,-1.15102e-05,4.79693e-06
876,1.50343e-05,1.25355e-05,0.00011645,4.0455e-05,-1.49161e-05,1.06001e-05
877,1.7068e-05,1.25188e-05,0.000105373,4.54957e-05,-1.86078e-05,1.23229e-05
878,2.56686e-06,1.59234e-05,5.06962e-05,4.95322e-05,-2.1313e-05,1.04511e-05
879,-3.80328e-05,1.10378e-05,-3.52062e-05,4.28138e-05,-2.44647e-05,7.14695e-06
880,-5.70641e-05,1.20054e-06,-5.05226e-05,3.58638e-05,-1.86584e-05,5.07787e-06
881,-1.45484e-05,1.01772e-06,4.59729e-05,4.15839e-05,-8.63228e-06,5.36676e-06
882,1.91653e-05,5.81503e-06,9.85371e-05,4.76866e-05,-8.48477e-06,7.14533e-06
883,2.08298e-05,7.52746e-06,9.15567e-05,3.80473e-05,-1.62645e-05,1.33296e-05
884,2.10206e-05,1.84719e-06,9.09107e-05,2.61988e-05,-2.16612e-05,2.11127e-05
885,2.02435e-05,-4.34212e-07,8.74066e-05,2.84065e-05,-1.85389e-05,2.36931e-05
886,1.93099e-05,8.90055e-06,8.47066e-05,3.46571e-05,-1.21284e-05,2.17411e-05
887,-3.79661e-06,1.68525e-05,3.26308e-05,2.83446e-05,-7.1267e-06,1.45415e-05
888,-3.70272e-05,1.30973e-05,-3.69508e-05,1.50189e-05,-4.60128e-06,6.60338e-06
889,-3.3059e-05,7.38325e-06,-1.56903e-05,1.62786e-05,-1.90184e-06,4.51418e-06
890,5.81711e-06,5.30842e-06,6.97754e-05,2.5149e-05,-9.65351e-07,8.25846e-06
891,2.90641e-05,6.74654e-06,0.000111731,3.98922e-05,-4.74353e-06,1.28945e-05
892,1.94562e-05,1.29519e-05,9.37279e-05,6.00403e-05,-7.91997e-06,1.46282e-05
893,-1.84265e-05,1.50941e-05,1.82628e-05,7.21667e-05,-9.48025e-06,9.14822e-06
894,-6.23818e-05,7.34385e-06,-6.75265e-05,6.83757e-05,-3.0684e-06,-1.80235e-07
895,-6.99346e-05,1.61102e-07,-5.79362e-05,6.58504e-05,9.06036e-06,-2.2636e-06
896,-3.36615e-05,1.9747e-06,4.34947e-05,7.6068e-05,1.2417e-05,5.89155e-06
897,3.55142e-06,7.99347e-06,0.000115076,9.17865e-05,-3.63572e-07,1.54805e-05
898,1.06209e-05,1.39076e-05,0.000100137,0.000102416,-1.2725e-05,1.82502e-05
899,-1.13658e-05,1.76575e-05,2.54976e-05,9.80075e-05,-1.27735e-05,1.33474e-05
900,-4.73846e-05,1.53407e-05,-6.42755e-05,8.39587e-05,-4.715e-06,6.97559e-06
901,-5.35818e-05,9.79757e-06,-6.59908e-05,7.52885e-05,2.61088e-06,8.72448e-06
902,-1.82141e-05,8.03121e-06,3.62999e-05,7.42917e-05,1.24182e-06,1.72331e-05
903,1.33003e-05,9.74792e-06,0.000114081,7.2387e-05,-8.79019e-06,2.16477e-05
904,1.39197e-05,1.67989e-05,0.000103359,7.70847e-05,-1.72406e-05,1.93069e-05
905,-6.42167e-06,2.27107e-05,4.84353e-05,7.77542e-05,-1.55005e-05,1.48783e-05
906,-4.46479e-05,1.76149e-05,-3.22249e-05,6.53127e-05,-9.37714e-06,7.26239e-06
907,-5.66876e-05,8.55523e-06,-4.52968e-05,5.84427e-05,-5.01161e-06,3.72594e-06
908,-1.57607e-05,7.85275e-06,4.88052e-05,6.95459e-05,-6.26579e-06,9.91566e-06
909,8.67499e-06,1.34338e-05,9.27402e-05,7.76076e-05,-8.53027e-06,1.42033e-05
910,7.2205e-06,1.84274e-05,7.71876e-05,6.65412e-05,-7.13244e-06,1.52457e-05
911,1.44363e-05,1.58414e-05,7.93872e-05,4.9975e-05,-1.00131e-05,1.94694e-05
912,2.01739e-05,1.30607e-05,8.23825e-05,4.48498e-05,-2.00056e-05,2.12439e-05
913,1.89218e-05,1.95631e-05,8.10684e-05,4.59802e-05,-2.14109e-05,1.84444e-05
914,-5.06668e-06,2.45299e-05,3.21141e-05,3.73022e-05,-1.05431e-05,1.16357e-05
915,-3.63153e-05,1.71966e-05,-3.59036e-05,2.50558e-05,5.55266e-06,7.31723e-06
916,-3.22767e-05,8.253e-06,-1.88547e-05,2.69287e-05,1.69307e-05,9.47478e-06
917,5.27948e-06,7.77355e-06,6.67253e-05,3.10333e-05,1.02976e-05,1.60915e-05
918,2.94967e-05,1.23455e-05,0.000114709,3.46298e-05,-1.00363e-05,2.33742e-05
919,2.86445e-05,2.00358e-05,0.000106079,3.73768e-05,-2.47967e-05,2.47755e-05
920,4.94055e-06,2.42417e-05,3.5653e-05,3.35003e-05,-2.409e-05,1.58288e-05
921,-2.52195e-05,1.72444e-05,-5.54133e-05,2.50031e-05,-1.30802e-05,2.77151e-06
922,-2.43154e-05,6.64754e-06,-5.70359e-05,2.41678e-05,-4.72885e-06,5.13443e-07
923,1.0014e-05,1.95895e-06,3.69461e-05,2.91017e-05,-8.7855e-06,1.09381e-05
924,3.7406e-05,4.53044e-06,0.000108793,3.35177e-05,-2.25703e-05,2.08528e-05
925,3.42807e-05,1.2179e-05,0.000100685,3.89479e-05,-2.96933e-05,2.04388e-05
926,5.8105e-06,1.6969e-05,3.43786e-05,3.73186e-05,-2.20793e-05,1.22737e-05
927,-3.25335e-05,1.18566e-05,-5.35658e-05,2.83184e-05,-1.01879e-05,4.44855e-06
928,-3.93423e-05,4.67585e-06,-5.77228e-05,3.11328e-05,-4.3671e-06,4.1488e-06
929,-5.73557e-06,2.69823e-06,3.93088e-05,4.84346e-05,-5.21057e-06,1.15471e-05
930,2.4864e-05,3.14094e-06,0.000109935,6.00663e-05,-9.60388e-06,2.01598e-05
931,2.58728e-05,8.44928e-06,0.000102188,6.68064e-05,-1.17539e-05,2.2642e-05
932,3.48919e-06,1.39883e-05,4.9018e-05,6.48789e-05,-1.22642e-05,1.82377e-05
933,-4.04121e-05,1.1734e-05,-4.69296e-05,5.15225e-05,-1.32918e-05,7.72027e-06
934,-5.4618e-05,6.63033e-06,-7.02331e-05,3.92273e-05,-7.10359e-06,-2.19842e-06
935,-1.0445e-05,8.99919e-06,2.94545e-05,4.4801e-05,1.50328e-06,-4.28921e-06
936,1.40856e-05,1.60427e-05,7.32282e-05,5.82262e-05,3.03826e-06,-3.65042e-06
937,3.96009e-06,2.08137e-05,5.42508e-05,5.67195e-05,-9.20048e-07,-5.89455e-07
938,6.58108e-06,1.72112e-05,7.06027e-05,4.73753e-05,-3.13984e-06,5.34252e-06
939,1.5173e-05,1.28672e-05,8.74824e-05,5.23877e-05,-1.32003e-06,1.05904e-05
940,1.72825e-05,1.74579e-05,8.33989e-05,5.89208e-05,5.94736e-07,1.39108e-05
941,-9.37011e-06,2.04356e-05,2.59675e-05,4.1226e-05,-3.98936e-06,7.93416e-06
942,-4.62675e-05,1.4331e-05,-4.11862e-05,1.81033e-05,-7.65868e-06,-3.71673e-06
943,-3.9829e-05,6.13022e-06,-1.41708e-05,1.92659e-05,-3.48414e-06,-6.66922e-06
944,3.49948e-06,1.99628e-06,7.72632e-05,2.94185e-05,-1.83194e-06,3.5036e-06
945,3.15996e-05,3.41525e-06,0.000119299,3.92546e-05,-7.15279e-06,1.52486e-05
946,3.0001e-05,1.09338e-05,9.4988e-05,4.79444e-05,-1.08093e-05,2.12614e-05
947,2.84062e-06,1.62152e-05,1.52891e-05,4.75628e-05,-9.21e-06,1.83819e-05
948,-3.1214e-05,1.12882e-05,-6.82711e-05,3.76611e-05,-5.95561e-06,8.16244e-06
949,-3.16886e-05,2.43543e-06,-5.10549e-05,3.39296e-05,-1.64413e-06,3.2411e-06
950,5.31778e-06,-2.09039e-06,5.79822e-05,3.97316e-05,3.64364e-06,9.43786e-06
951,3.84008e-05,5.53073e-07,0.000133291,4.87781e-05,4.95715e-06,1.86064e-05
952,4.08838e-05,9.74551e-06,0.000119483,5.84235e-05,2.27327e-06,2.15512e-05
953,1.39736e-05,1.76141e-05,4.58137e-05,6.07564e-05,-5.25997e-07,1.96075e-05
954,-2.91942e-05,1.56182e-05,-4.52686e-05,5.63185e-05,1.52264e-06,1.57536e-05
955,-4.3391e-05,6.86716e-06,-5.04158e-05,5.7355e-05,8.26301e-06,1.4662e-05
956,-1.29632e-05,-1.39476e-07,5.0777e-05,6.17938e-05,1.08445e-05,1.74779e-05
957,1.97153e-05,-4.22257e-07,0.000132557,5.62748e-05,4.64914e-06,2.05173e-05
958,2.38109e-05,8.17035e-06,0.000123067,5.2363e-05,-2.49815e-06,2.07336e-05
959,1.15975e-06,1.89202e-05,5.55161e-05,5.02198e-05,-4.63327e-07,1.70766e-05
960,-4.52478e-05,1.81798e-05,-4.85381e-05,4.28453e-05,3.84421e-06,8.8355e-06
961,-6.34935e-05,7.90224e-06,-7.7631e-05,4.03448e-05,3.19666e-06,4.04127e-06
962,-2.30402e-05,4.53277e-06,1.88679e-05,5.24863e-05,-1.58213e-06,1.14994e-05
963,1.88246e-06,8.46721e-06,6.1907e-05,5.86767e-05,-6.32012e-06,1.96283e-05
964,-5.31933e-06,8.69984e-06,3.91705e-05,4.93672e-05,-1.5957e-05,2.16211e-05
965,-4.2925e-07,5.63183e-06,5.57651e-05,4.64207e-05,-2.8493e-05,2.20857e-05
966,9.77396e-06,1.11442e-05,8.47057e-05,6.11311e-05,-2.68097e-05,2.12962e-05
967,1.2727e-05,2.40077e-05,9.03844e-05,7.47325e-05,-1.52382e-05,1.9554e-05
968,-1.22523e-05,2.79985e-05,2.36481e-05,6.49515e-05,-9.6904e-06,1.51997e-05
969,-4.86802e-05,1.93622e-05,-5.67942e-05,4.77925e-05,-1.22215e-05,1.1435e-05
970,-4.52894e-05,1.22968e-05,-2.66968e-05,4.92101e-05,-1.57137e-05,1.31304e-05
971,-6.04488e-06,1.37092e-05,7.90439e-05,5.95676e-05,-1.50307e-05,1.83339e-05
972,2.43461e-05,1.78414e-05,0.000134924,7.01566e-05,-1.12422e-05,2.05968e-05
973,2.8778e-05,2.23032e-05,0.000118156,7.78772e-05,-7.27204e-06,2.0726e-05
974,1.4661e-06,2.64629e-05,3.87499e-05,7.50268e-05,-9.18367e-06,1.76806e-05
975,-3.59452e-05,2.51789e-05,-4.86082e-05,6.34296e-05,-1.15172e-05,1.09426e-05
976,-3.64778e-05,2.01865e-05,-3.91818e-05,5.85929e-05,-5.75454e-06,7.09795e-06
977,1.3952e-06,1.58504e-05,6.14942e-05,6.19263e-05,1.16355e-06,1.00508e-05
978,3.20582e-05,1.26022e-05,0.00013276,6.8375e-05,-3.76827e-06,1.50088e-05
979,3.00472e-05,1.09235e-05,0.000118272,7.42823e-05,-1.70495e-05,1.65123e-05
980,2.5825e-06,9.00727e-06,4.48594e-05,6.90372e-05,-2.32915e-05,1.5588e-05
981,-3.57829e-05,3.05356e-06,-4.68317e-05,5.26449e-05,-1.94365e-05,1.31697e-05
982,-4.43313e-05,-2.1352e-06,-5.50297e-05,4.33459e-05,-1.35775e-05,1.10634e-05
983,-9.9079e-06,-1.42416e-06,4.04096e-05,4.67759e-05,-1.25448e-05,1.46219e-05
984,2.4815e-05,2.006e-06,0.000117923,5.23448e-05,-1.60892e-05,2.46956e-05
985,2.94676e-05,8.12376e-06,0.000110023,5.86894e-05,-2.0947e-05,3.07607e-05
986,7.20724e-06,1.69169e-05,4.69983e-05,6.14851e-05,-2.35814e-05,2.73739e-05
987,-3.87238e-05,2.05822e-05,-4.65572e-05,5.002e-05,-2.30924e-05,1.89337e-05
988,-5.76949e-05,1.64473e-05,-6.21402e-05,3.54004e-05,-1.75297e-05,1.4858e-05
989,-1.54998e-05,1.38371e-05,3.96573e-05,4.14052e-05,-1.16044e-05,1.84209e-05
990,2.08519e-05,1.49674e-05,9.42041e-05,4.91846e-05,-9.92026e-06,1.91556e-05
991,2.73019e-05,1.48491e-05,8.25864e-05,4.20215e-05,-9.09804e-06,1.62318e-05
992,2.90299e-05,1.0621e-05,7.4053e-05,3.47225e-05,-9.70812e-06,1.97141e-05
993,2.69232e-05,1.05297e-05,6.38502e-05,3.83303e-05,-1.1099e-05,2.45768e-05
994,2.34629e-05,1.9781e-05,6.1342e-05,4.26437e-05,-1.29946e-05,2.32426e-05
995,-2.86581e-06,2.49104e-05,1.92467e-05,3.45748e-05,-1.59327e-05,1.48435e-05
996,-4.18047e-05,1.60169e-05,-3.48291e-05,1.97142e-05,-1.58966e-05,5.34742e-06
997,-4.01402e-05,8.49797e-06,-7.33168e-06,1.74867e-05,-1.06687e-05,3.03864e-06
998,2.76847e-07,1.1444e-05,7.35419e-05,2.16784e-05,-3.97642e-06,1.09218e-05
999,2.76961e-05,1.73425e-05,0.000104549,2.4803e-05,5.80358e-07,1.96855e-05
1000,2.5125e-05,2.17868e-05,8.03742e-05,2.55947e-05,5.05887e-06,2.27852e-05
1001,-4.89125e-06,2.12956e-05,1.18333e-05,2.06517e-05,4.46079e-06,1.7512e-05
1002,-4.12733e-05,1.40571e-05,-6.35686e-05,1.57543e-05,-4.98105e-06,7.38663e-06
1003,-4.22608e-05,6.91962e-06,-4.95407e-05,2.67543e-05,-1.51735e-05,5.35688e-06
1004,-4.17645e-06,4.82238e-06,5.0502e-05,5.12672e-05,-1.65919e-05,1.47455e-05
1005,2.53726e-05,7.54969e-06,0.0001194,7.20599e-05,-1.37258e-05,2.56218e-05
1006,2.06057e-05,1.56427e-05,0.000105688,8.12896e-05,-1.06259e-05,2.75273e-05
1007,-5.32035e-06,2.29574e-05,3.81135e-05,7.92385e-05,-1.06307e-05,2.00764e-05
1008,-3.68144e-05,2.19674e-05,-4.69583e-05,7.40755e-05,-1.79082e-05,9.68886e-06
1009,-4.21755e-05,1.41328e-05,-5.03703e-05,7.66188e-05,-2.01595e-05,7.18658e-06
1010,-1.11506e-05,8.65607e-06,4.71467e-05,8.35905e-05,-9.40212e-06,1.13817e-05
1011,1.60254e-05,8.93679e-06,0.000123351,8.23524e-05,-2.56299e-06,1.35101e-05
1012,1.21447e-05,1.57725e-05,0.000117682,8.18128e-05,-6.93781e-06,1.50258e-05
1013,-1.33422e-05,2.17768e-05,6.09578e-05,8.24374e-05,-1.37604e-05,1.74422e-05
1014,-5.25143e-05,1.49958e-05,-3.10937e-05,7.28086e-05,-1.64253e-05,1.36613e-05
1015,-6.07442e-05,1.82801e-06,-4.61754e-05,6.0274e-05,-1.32977e-05,1.03269e-05
1016,-1.42292e-05,-4.34434e-06,5.64431e-05,6.28218e-05,-1.35572e-05,1.5983e-05
1017,1.82295e-05,-3.1953e-06,0.000109078,6.73752e-05,-1.57874e-05,1.8483e-05
1018,1.97433e-05,-2.24853e-06,9.53678e-05,6.07609e-05,-1.39041e-05,1.43792e-05
1019,2.18605e-05,-1.63791e-06,9.24651e-05,5.0197e-05,-9.96926e-06,1.20185e-05
1020,1.97812e-05,4.22986e-06,9.06144e-05,4.84337e-05,-8.64868e-06,1.09702e-05
1021,1.39633e-05,1.55903e-05,8.05491e-05,5.16998e-05,-9.31463e-06,1.0635e-05
1022,-1.15072e-05,2.12178e-05,1.98595e-05,4.17216e-05,-1.17008e-05,8.73025e-06
1023,-4.49601e-05,1.53963e-05,-4.49365e-05,2.98454e-05,-1.07605e-05,6.31042e-06
1024,-3.62455e-05,7.57794e-06,-1.278e-05,3.86467e-05,-3.45796e-06,5.9362e-06
1025,8.50991e-06,4.49111e-06,8.11793e-05,5.43239e-05,-1.31312e-07,8.53283e-06
1026,3.70903e-05,7.93038e-06,0.000126243,6.02467e-05,-7.63406e-06,1.07242e-05
1027,3.44594e-05,1.50013e-05,0.000106392,5.41066e-05,-1.60001e-05,1.10913e-05
1028,3.65388e-06,1.87934e-05,2.741e-05,3.95524e-05,-1.66112e-05,6.95316e-06
1029,-3.46673e-05,1.31814e-05,-6.29611e-05,2.66849e-05,-1.12857e-05,-2.26554e-07
1030,-4.48564e-05,5.33528e-06,-5.80994e-05,2.77763e-05,-4.0092e-06,-2.07038e-06
1031,-2.29569e-05,3.29342e-06,3.65956e-05,3.7603e-05,-7.29923e-07,1.45135e-06
1032,-1.79998e-06,6.25806e-06,9.77268e-05,4.737e-05,-3.55127e-06,3.17234e-06
1033,-1.17686e-06,1.17284e-05,7.73482e-05,5.71461e-05,-4.73691e-06,3.05704e-06
1034,-2.22987e-05,1.91587e-05,6.7716e-06,5.92129e-05,6.92723e-07,6.04234e-06
1035,-5.65265e-05,2.26395e-05,-7.89442e-05,4.9824e-05,9.49159e-06,9.4989e-06
1036,-6.20931e-05,1.85724e-05,-7.6479e-05,4.40183e-05,1.4488e-05,1.39583e-05
1037,-2.56255e-05,1.38642e-05,3.2892e-05,4.77151e-05,7.44365e-06,1.9271e-05
1038,6.95744e-06,1.35735e-05,0.000114334,5.17224e-05,-8.73728e-06,2.38382e-05
1039,7.73517e-06,1.93504e-05,0.0001063,5.88443e-05,-2.14238e-05,2.72337e-05
1040,-1.43117e-05,2.67932e-05,5.20657e-05,5.91815e-05,-2.20055e-05,2.72825e-05
1041,-5.9028e-05,2.7958e-05,-3.33414e-05,4.8345e-05,-1.64865e-05,1.94878e-05
1042,-7.58079e-05,2.15916e-05,-4.97644e-05,4.20968e-05,-1.15406e-05,1.11319e-05
1043,-2.71494e-05,1.75829e-05,4.93179e-05,4.80943e-05,-1.26e-05,1.16278e-05
1044,9.53405e-06,2.16212e-05,9.87103e-05,5.66186e-05,-1.6531e-05,1.4833e-05
1045,8.31205e-06,2.41574e-05,8.41968e-05,6.01154e-05,-1.52556e-05,1.7043e-05
1046,6.22892e-06,2.02387e-05,8.40573e-05,5.94218e-05,-7.64028e-06,1.68732e-05
1047,8.57906e-06,1.91715e-05,7.94831e-05,6.23455e-05,7.62205e-07,1.49411e-05
1048,1.27424e-05,2.60729e-05,7.0777e-05,6.55565e-05,2.61512e-07,1.48207e-05
1049,-8.20169e-06,3.29337e-05,1.93795e-05,5.59562e-05,-5.42574e-06,1.03348e-05
1050,-4.10809e-05,2.76941e-05,-4.11207e-05,3.86164e-05,-7.73835e-06,3.8841e-06
1051,-3.6165e-05,1.65432e-05,-1.51334e-05,3.07972e-05,-8.37912e-06,4.06342e-06
1052,2.38923e-06,1.18327e-05,7.11589e-05,3.30427e-05,-1.57842e-05,1.28078e-05
1053,2.58909e-05,1.51273e-05,0.000111492,4.48285e-05,-2.62653e-05,1.97832e-05
1054,1.9897e-05,1.90413e-05,9.21358e-05,5.79287e-05,-2.79368e-05,1.84659e-05
1055,-1.21136e-05,1.84914e-05,1.97725e-05,5.55962e-05,-2.08407e-05,1.11094e-05
1056,-4.80447e-05,1.27809e-05,-6.15592e-05,3.8157e-05,-1.16003e-05,4.37903e-06
1057,-4.89402e-05,8.34322e-06,-5.05639e-05,2.57619e-05,-3.14628e-06,5.35394e-06
1058,-1.15867e-05,9.20852e-06,4.87107e-05,2.74871e-05,3.49792e-06,1.34614e-05
1059,2.09677e-05,1.28688e-05,0.000113013,3.95921e-05,2.60264e-06,2.07056e-05
1060,2.19749e-05,1.49629e-05,9.2222e-05,5.42357e-05,-3.90008e-06,2.06747e-05
1061,-2.1504e-06,1.21255e-05,2.15451e-05,5.67889e-05,-8.49451e-06,1.49644e-05
1062,-3.51771e-05,4.68306e-06,-6.18361e-05,4.58386e-05,-5.82866e-06,8.3547e-06
1063,-3.83954e-05,-1.28618e-06,-6.23467e-05,4.01923e-05,3.20612e-06,7.09788e-06
1064,-1.56198e-06,4.40776e-07,3.83464e-05,4.60269e-05,4.93065e-06,9.76989e-06
1065,2.88517e-05,6.46274e-06,0.0001173,5.19122e-05,-5.36004e-06,1.31994e-05
1066,2.49522e-05,1.34785e-05,0.0001104,5.9179e-05,-1.35663e-05,1.71091e-05
1067,2.30209e-07,1.8707e-05,4.91133e-05,6.22811e-05,-1.33598e-05,1.73053e-05
1068,-3.95245e-05,1.73493e-05,-5.05471e-05,5.46164e-05,-1.34864e-05,8.69029e-06
1069,-4.87303e-05,1.6789e-05,-7.33007e-05,4.59908e-05,-1.45701e-05,1.27566e-06
1070,-2.39569e-06,2.14932e-05,3.33731e-05,5.2613e-05,-1.19709e-05,6.22614e-06
1071,2.54418e-05,2.33061e-05,9.75545e-05,6.27183e-05,-1.18564e-05,1.58872e-05
1072,1.93177e-05,1.9701e-05,8.41723e-05,5.84559e-05,-1.6857e-05,2.3149e-05
1073,1.72418e-05,1.22415e-05,7.66709e-05,5.24418e-05,-2.21053e-05,2.56705e-05
1074,1.81798e-05,1.07234e-05,7.24416e-05,5.97712e-05,-2.3391e-05,2.31031e-05
1075,2.03708e-05,1.85975e-05,6.57585e-05,7.08515e-05,-1.8588e-05,2.18196e-05
1076,-3.25408e-07,2.33339e-05,7.69188e-06,6.41145e-05,-1.02041e-05,1.82002e-05
1077,-3.48916e-05,1.61813e-05,-6.1519e-05,4.69265e-05,-5.19614e-06,1.22084e-05
1078,-3.70859e-05,8.85817e-06,-3.30933e-05,4.1598e-05,-3.72329e-06,9.68505e-06
1079,-2.49872e-06,5.9473e-06,6.15809e-05,4.25426e-05,-5.13926e-06,1.42368e-05
1080,2.5807e-05,8.51941e-06,0.000110672,4.87398e-05,-1.05736e-05,2.11082e-05
1081,3.05191e-05,1.4306e-05,9.94846e-05,6.14999e-05,-1.39706e-05,2.64516e-05
1082,7.23024e-06,1.39478e-05,3.25414e-05,6.70838e-05,-1.38752e-05,2.67158e-05
1083,-2.69161e-05,4.68601e-06,-5.01634e-05,5.79182e-05,-1.32434e-05,2.00983e-05
1084,-3.10493e-05,-1.24503e-06,-4.37998e-05,4.98936e-05,-1.2134e-05,1.44283e-05
1085,-4.33076e-07,9.90195e-07,5.33691e-05,4.92137e-05,-9.03484e-06,1.62162e-05
1086,2.7798e-05,6.14596e-06,0.000122323,5.48732e-05,-7.69649e-06,2.08689e-05
1087,2.90056e-05,1.29277e-05,0.000106583,6.51581e-05,-7.83281e-06,2.17961e-05
1088,5.3174e-06,1.72541e-05,3.47247e-05,6.79084e-05,-5.85007e-06,1.91132e-05
1089,-3.04355e-05,1.73795e-05,-5.23382e-05,5.72729e-05,-1.06765e-06,1.32838e-05
1090,-3.73426e-05,1.60172e-05,-5.0703e-05,4.78209e-05,1.64057e-06,1.01984e-05
1091,-4.80645e-06,1.28138e-05,5.41941e-05,4.60866e-05,-2.6033e-06,1.30327e-05
1092,2.68616e-05,8.10173e-06,0.000124561,4.35363e-05,-1.33801e-05,1.81172e-05
1093,2.86811e-05,9.03663e-06,0.000102823,4.47875e-05,-2.06801e-05,1.98144e-05
1094,3.71682e-06,1.44404e-05,4.11843e-05,4.67734e-05,-2.00893e-05,1.66261e-05
1095,-4.61068e-05,1.30089e-05,-4.76445e-05,4.33134e-05,-1.37312e-05,7.52365e-06
1096,-6.90335e-05,1.7273e-06,-6.31519e-05,3.85162e-05,9.82843e-07,-1.1588e-06
1097,-2.73264e-05,-3.62732e-06,4.15231e-05,3.85778e-05,1.32922e-05,-1.06345e-06
1098,1.40953e-05,2.03552e-06,8.67616e-05,4.75705e-05,1.34599e-05,3.6263e-06
1099,2.57518e-05,1.01669e-05,5.76501e-05,5.29999e-05,2.20823e-06,5.26581e-06
1100,2.8409e-05,7.96911e-06,5.88949e-05,4.91818e-05,-4.99185e-06,5.94694e-06
1101,2.28989e-05,2.09501e-06,7.31261e-05,5.66863e-05,-2.14672e-06,8.38824e-06
1102,1.59659e-05,4.12858e-06,7.78974e-05,6.90769e-05,3.55538e-06,1.04598e-05
1103,-1.04717e-05,8.82259e-06,2.16417e-05,6.5456e-05,1.15296e-05,1.02841e-05
1104,-4.87678e-05,5.50926e-06,-5.1055e-05,4.91026e-05,1.79327e-05,7.05008e-06
1105,-4.87166e-05,1.07932e-06,-2.46919e-05,4.41172e-05,2.04504e-05,3.90965e-06
1106,-1.0091e-05,2.4978e-06,7.26981e-05,4.64801e-05,1.36563e-05,3.18893e-06
1107,1.79821e-05,9.56418e-06,0.000119001,5.31353e-05,2.62325e-06,3.25309e-06
1108,1.80521e-05,1.91556e-05,9.72986e-05,6.31998e-05,-3.81178e-06,2.73236e-06
1109,-6.73341e-06,2.00684e-05,2.48712e-05,6.48963e-05,-5.84893e-06,-1.16705e-06
1110,-3.53193e-05,8.14269e-06,-5.42974e-05,5.53496e-05,-6.73665e-06,-6.50166e-06
1111,-3.23694e-05,-5.62955e-06,-4.29252e-05,4.88402e-05,-9.60691e-06,-8.80126e-06
1112,-1.04943e-07,-8.06218e-06,5.2132e-05,5.07566e-05,-1.58895e-05,-5.38526e-06
1113,2.17179e-05,8.45043e-07,0.000116758,5.84097e-05,-2.18124e-05,3.52637e-06
1114,1.63401e-05,1.26704e-05,0.000104972,6.78927e-05,-2.07885e-05,1.40729e-05
1115,-5.60976e-06,1.68593e-05,4.27104e-05,6.51478e-05,-1.46899e-05,1.71059e-05
1116,-3.28759e-05,1.17414e-05,-4.32828e-05,4.84854e-05,-6.53792e-06,7.91044e-06
1117,-3.40889e-05,4.7553e-06,-5.26217e-05,3.53834e-05,-7.99928e-07,-8.98723e-07
1118,-3.53386e-07,2.76974e-06,4.11706e-05,3.97389e-05,-1.6084e-06,1.03603e-06
1119,2.86661e-05,3.42721e-06,0.000114737,5.36627e-05,-4.41372e-06,7.70287e-06
1120,2.91611e-05,7.80691e-06,0.000107093,7.20576e-05,-2.17696e-06,1.34546e-05
1121,8.30685e-06,1.45953e-05,5.83365e-05,7.63331e-05,1.67686e-07,1.72702e-05
1122,-3.90177e-05,1.59626e-05,-2.58558e-05,6.26083e-05,-3.20899e-06,1.4901e-05
1123,-6.51361e-05,9.71416e-06,-4.85314e-05,5.75438e-05,-5.21226e-06,1.10967e-05
1124,-2.80523e-05,6.58808e-06,4.37523e-05,6.68719e-05,-2.33581e-07,1.31871e-05
1125,6.55153e-06,8.90293e-06,9.68294e-05,6.9578e-05,1.30473e-06,1.4698e-05
1126,1.15712e-05,9.97815e-06,9.01258e-05,6.17582e-05,-1.08954e-05,1.44231e-05
1127,1.49959e-05,9.60038e-06,8.81787e-05,5.35173e-05,-2.65619e-05,1.53816e-05
1128,1.69875e-05,1.18007e-05,8.03384e-05,5.57787e-05,-2.71373e-05,1.47e-05
1129,1.49678e-05,1.8101e-05,7.06758e-05,6.15411e-05,-1.46123e-05,1.41605e-05
1130,-1.20728e-05,1.99189e-05,2.33693e-05,5.52035e-05,-7.10852e-06,1.08594e-05
1131,-5.28166e-05,1.3197e-05,-2.93539e-05,4.08966e-05,-9.19608e-06,6.15889e-06
1132,-5.12667e-05,1.07716e-05,1.42179e-06,3.40687e-05,-1.23868e-05,8.47769e-06
1133,-6.30203e-06,1.37589e-05,8.46675e-05,3.11292e-05,-1.54907e-05,1.48235e-05
1134,2.6839e-05,1.75329e-05,0.000116067,2.92544e-05,-1.6377e-05,1.6598e-05
1135,2.89898e-05,2.35175e-05,8.90715e-05,2.81153e-05,-1.25319e-05,1.59052e-05
1136,1.60236e-06,2.81082e-05,1.89545e-05,2.22021e-05,-1.04628e-05,1.50341e-05
1137,-3.49883e-05,2.45424e-05,-5.35307e-05,1.53457e-05,-1.39415e-05,1.44698e-05
1138,-4.07911e-05,1.76829e-05,-3.70545e-05,2.13091e-05,-1.86272e-05,1.43183e-05
1139,-7.98542e-06,1.66758e-05,6.33701e-05,3.36012e-05,-2.40582e-05,1.54283e-05
1140,2.4401e-05,2.17969e-05,0.000132381,4.28926e-05,-3.16695e-05,1.71369e-05
1141,3.0258e-05,2.78081e-05,0.000116652,4.90595e-05,-3.32317e-05,1.88823e-05
1142,9.56832e-06,2.83279e-05,4.0144e-05,4.50354e-05,-2.44162e-05,1.79557e-05
1143,-2.518e-05,2.33031e-05,-5.58123e-05,2.8217e-05,-1.06982e-05,1.14548e-05
1144,-3.31605e-05,1.90613e-05,-6.13184e-05,1.66368e-05,2.07429e-06,9.04045e-06
1145,-3.74178e-06,2.14986e-05,4.3589e-05,2.56172e-05,4.80026e-06,1.73273e-05
1146,2.30665e-05,2.32256e-05,0.000124579,4.26362e-05,-9.1967e-06,2.70334e-05
1147,2.39041e-05,2.18647e-05,0.000114918,6.1039e-05,-2.40426e-05,2.82707e-05
1148,3.63085e-06,1.9087e-05,5.20454e-05,7.03668e-05,-2.59391e-05,2.01572e-05
1149,-4.07315e-05,1.1466e-05,-4.20102e-05,6.44589e-05,-1.7096e-05,6.38201e-06
1150,-6.03749e-05,2.26753e-06,-5.93078e-05,5.9098e-05,-4.91116e-07,1.59547e-06
1151,-2.11348e-05,2.5683e-06,3.60289e-05,6.98343e-05,6.13965e-06,9.07302e-06
1152,1.10578e-05,1.04204e-05,8.20302e-05,8.23745e-05,-5.90126e-06,1.25308e-05
1153,1.46231e-05,1.32344e-05,6.39683e-05,8.33295e-05,-2.00214e-05,1.06765e-05
1154,1.56308e-05,8.82251e-06,5.80878e-05,8.36589e-05,-2.37292e-05,1.12127e-05
1155,1.50716e-05,8.1273e-06,5.6585e-05,9.05379e-05,-1.97771e-05,1.32843e-05
1156,1.37067e-05,1.74354e-05,5.58201e-05,9.65435e-05,-1.64743e-05,1.44562e-05
1157,-1.13611e-05,2.34019e-05,8.51065e-06,8.56076e-05,-1.38808e-05,1.00559e-05
1158,-4.71073e-05,1.74262e-05,-5.527e-05,6.12068e-05,-8.61851e-06,2.85871e-06
1159,-4.23032e-05,7.67506e-06,-3.42818e-05,4.93701e-05,-1.0958e-06,1.98875e-07
1160,7.33195e-07,5.31894e-06,4.92034e-05,5.09404e-05,-1.77593e-06,2.01441e-06
1161,3.12471e-05,1.37184e-05,9.72055e-05,6.16525e-05,-1.07362e-05,6.76442e-06
1162,2.94589e-05,2.38893e-05,9.16534e-05,7.07002e-05,-1.61039e-05,1.3025e-05
1163,-3.4648e-06,2.66069e-05,2.91167e-05,6.34009e-05,-1.74303e-05,1.4185e-05
1164,-4.51957e-05,2.12023e-05,-5.06148e-05,4.18897e-05,-2.11845e-05,9.50266e-06
1165,-5.27708e-05,1.52343e-05,-4.64427e-05,2.90149e-05,-2.54165e-05,5.17149e-06
1166,-2.11149e-05,1.02173e-05,4.90997e-05,3.15964e-05,-2.45773e-05,4.96216e-06
1167,1.01313e-05,6.33611e-06,0.000124662,4.21337e-05,-1.84246e-05,6.10281e-06
1168,1.77372e-05,8.91571e-06,0.000123242,5.36534e-05,-1.13386e-05,5.8731e-06
1169,1.96095e-06,1.87529e-05,6.09687e-05,5.17626e-05,-6.9407e-06,3.72343e-06
1170,-2.95286e-05,2.23157e-05,-2.96222e-05,3.40095e-05,-1.75563e-06,7.02202e-07
1171,-3.714e-05,1.46338e-05,-3.76698e-05,2.46038e-05,7.01917e-06,4.97938e-07
1172,-3.8364e-06,1.01717e-05,6.3684e-05,3.44394e-05,1.01146e-05,4.30112e-06
1173,2.75714e-05,1.46559e-05,0.00013986,4.82422e-05,-4.19921e-07,9.57516e-06
1174,2.68583e-05,2.17191e-05,0.000126994,6.12911e-05,-1.01682e-05,1.26524e-05
1175,1.96299e-06,2.28416e-05,6.48789e-05,6.65923e-05,-9.16604e-06,9.87035e-06
1176,-4.11682e-05,1.2775e-05,-3.49867e-05,5.73219e-05,-3.2084e-06,8.73406e-08
1177,-5.81832e-05,-9.79184e-07,-5.71691e-05,4.42202e-05,1.4025e-06,-5.412e-06
1178,-2.05771e-05,-4.39288e-06,4.72675e-05,4.35299e-05,1.95249e-06,4.38934e-06
1179,1.12262e-05,4.81812e-06,9.48311e-05,4.66101e-05,1.57837e-06,1.54878e-05
1180,1.43837e-05,1.46756e-05,7.46625e-05,4.39815e-05,2.18847e-06,1.65494e-05
1181,1.4856e-05,1.42639e-05,7.39335e-05,3.8171e-05,-1.4029e-07,1.6743e-05
1182,1.33369e-05,1.01596e-05,7.1919e-05,4.45125e-05,-8.39432e-06,1.95e-05
1183,7.91471e-06,1.48394e-05,6.42054e-05,5.86473e-05,-1.71796e-05,2.18893e-05
1184,-1.88688e-05,1.91049e-05,1.10629e-05,5.78862e-05,-1.6578e-05,1.80989e-05
1185,-5.47792e-05,1.02571e-05,-5.0998e-05,4.67812e-05,-1.38847e-05,1.02024e-05
1186,-5.13693e-05,1.30267e-06,-2.72951e-05,4.14164e-05,-1.49259e-05,7.1507e-06
1187,-1.0282e-05,4.22337e-07,5.47194e-05,3.88388e-05,-1.58294e-05,8.13392e-06
1188,1.82274e-05,5.32203e-06,9.50967e-05,4.69695e-05,-1.54915e-05,9.02418e-06
1189,1.68842e-05,1.15147e-05,8.1018e-05,6.09881e-05,-1.31029e-05,1.03838e-05
1190,-1.14385e-05,1.3494e-05,9.32906e-06,5.97959e-05,-1.25069e-05,7.40221e-06
1191,-4.65648e-05,8.03824e-06,-7.78519e-05,4.03951e-05,-1.13838e-05,-2.11561e-06
1192,-4.75813e-05,3.66442e-06,-7.13193e-05,2.76131e-05,-7.25465e-06,-8.37268e-06
1193,-7.90178e-06,5.17911e-06,3.21999e-05,3.10391e-05,-5.7218e-06,-2.48921e-06
1194,2.92954e-05,9.07573e-06,0.000109437,4.09366e-05,-1.28528e-05,9.46579e-06
1195,3.3798e-05,1.27507e-05,9.88664e-05,4.83081e-05,-2.51263e-05,1.60676e-05
1196,9.3132e-06,1.28855e-05,2.63677e-05,4.36423e-05,-3.24134e-05,1.46416e-05
1197,-2.69709e-05,5.81029e-06,-6.22304e-05,2.92811e-05,-2.49522e-05,1.052e-05
1198,-3.36847e-05,-1.91738e-06,-6.07276e-05,2.3118e-05,-5.91301e-06,1.19301e-05
1199,8.53543e-08,-1.13333e-06,4.51662e-05,3.05745e-05,5.68179e-06,1.95002e-05
1200,2.95619e-05,7.05013e-06,0.000121161,3.94179e-05,9.16063e-07,2.38888e-05
1201,2.82318e-05,2.00871e-05,0.000108975,5.24976e-05,-6.48425e-06,2.18593e-05
1202,1.48641e-06,2.88022e-05,5.39653e-05,6.23048e-05,-5.59196e-06,1.64546e-05
1203,-5.10168e-05,2.39503e-05,-3.6816e-05,6.11227e-05,-1.35332e-06,7.36759e-06
1204,-7.52104e-05,1.11168e-05,-6.1648e-05,5.37231e-05,4.19417e-06,2.6401e-06
1205,-3.02169e-05,3.08513e-06,3.28987e-05,5.18044e-05,8.89278e-06,8.05534e-06
1206,1.10778e-05,4.00792e-06,8.85804e-05,5.7435e-05,5.73688e-06,1.19198e-05
1207,1.56989e-05,9.10757e-06,8.05919e-05,6.32677e-05,-3.66795e-06,1.29015e-05
1208,1.31499e-05,1.06343e-05,7.77434e-05,6.62521e-05,-1.14023e-05,1.50497e-05
1209,7.56736e-06,1.1561e-05,7.2109e-05,7.21789e-05,-1.79795e-05,1.38751e-05
1210,4.16198e-06,1.59919e-05,6.69823e-05,7.37174e-05,-2.19299e-05,1.39325e-05
1211,-1.58238e-05,2.0376e-05,1.76463e-05,6.0992e-05,-1.84986e-05,1.0317e-05
1212,-4.53121e-05,1.67634e-05,-4.28505e-05,4.55137e-05,-1.10945e-05,4.0569e-06
1213,-3.69945e-05,1.17085e-05,-1.77181e-05,4.41075e-05,-3.02784e-06,6.47927e-06
1214,3.09423e-06,1.13451e-05,6.36749e-05,4.70538e-05,-2.35715e-06,1.56049e-05
1215,2.4596e-05,1.48788e-05,0.000104389,5.07663e-05,-8.82041e-06,2.32801e-05
1216,1.8492e-05,2.04331e-05,9.67589e-05,5.41248e-05,-1.24737e-05,2.63892e-05
1217,-4.26856e-06,2.14067e-05,3.49592e-05,5.01341e-05,-1.23295e-05,2.47311e-05
1218,-2.9418e-05,1.31932e-05,-4.84727e-05,4.01301e-05,-1.17822e-05,1.77344e-05
1219,-2.77725e-05,4.54601e-06,-4.67732e-05,3.58078e-05,-1.24479e-05,1.29723e-05
1220,2.02164e-06,2.35671e-06,4.78445e-05,4.05328e-05,-1.42887e-05,1.60981e-05
1221,2.46853e-05,3.44159e-06,0.000117438,4.85264e-05,-1.64816e-05,2.05626e-05
1222,2.25943e-05,7.54109e-06,0.000103817,5.29295e-05,-1.65524e-05,2.03956e-05
1223,-1.61639e-06,1.36958e-05,3.52595e-05,4.4606e-05,-1.29538e-05,1.69184e-05
1224,-3.96784e-05,1.51676e-05,-4.71872e-05,2.74357e-05,-7.03173e-06,1.07978e-05
1225,-4.9979e-05,1.09734e-05,-4.675e-05,1.85989e-05,-2.22639e-06,7.36159e-06
1226,-1.5636e-05,1.00775e-05,4.7691e-05,2.46788e-05,-1.46659e-06,9.91408e-06
1227,2.19689e-05,1.4153e-05,0.000114671,3.42259e-05,-6.07267e-06,1.40534e-05
1228,3.28294e-05,2.07991e-05,0.0001057,4.47485e-05,-9.74953e-06,1.77036e-05
1229,1.52807e-05,2.36443e-05,5.84585e-05,4.94678e-05,-6.5247e-06,1.87295e-05
1230,-2.93545e-05,1.81147e-05,-1.63406e-05,4.81397e-05,-2.00948e-06,1.14785e-05
1231,-4.84644e-05,6.85818e-06,-2.13627e-05,5.01745e-05,8.04352e-07,4.78798e-06
1232,-1.01148e-05,1.73316e-06,7.81898e-05,6.45734e-05,3.01136e-06,1.04402e-05
1233,1.56093e-05,6.12104e-06,0.000126132,7.86107e-05,4.92992e-09,1.59853e-05
1234,1.48763e-05,1.16473e-05,0.000102615,8.04292e-05,-3.2085e-06,1.65974e-05
1235,2.20474e-05,1.01423e-05,8.46025e-05,7.36216e-05,-5.35948e-06,1.63044e-05
1236,2.71566e-05,8.86081e-06,7.26375e-05,7.68118e-05,-1.21929e-05,1.32922e-05
1237,2.25917e-05,1.61667e-05,6.82602e-05,8.80736e-05,-1.60332e-05,1.14616e-05
1238,-8.78454e-06,1.98412e-05,2.25774e-05,8.11543e-05,-1.44979e-05,1.04111e-05
1239,-4.96012e-05,1.28165e-05,-4.05507e-05,6.22093e-05,-1.34295e-05,8.03847e-06
1240,-4.85862e-05,5.72355e-06,-2.0286e-05,5.143e-05,-1.32637e-05,9.44659e-06
1241,-9.19775e-06,4.99189e-06,6.51576e-05,5.06835e-05,-1.8604e-05,1.67785e-05
1242,2.05425e-05,8.94182e-06,0.000111894,5.75688e-05,-2.91103e-05,2.3772e-05
1243,2.36143e-05,1.52279e-05,9.90676e-05,6.49871e-05,-3.1933e-05,2.51759e-05
1244,-2.72909e-06,1.84589e-05,2.90173e-05,6.02531e-05,-2.56589e-05,1.92895e-05
1245,-3.49711e-05,1.43552e-05,-5.2343e-05,4.75145e-05,-1.84324e-05,1.09858e-05
1246,-3.12582e-05,7.97396e-06,-4.29485e-05,4.43299e-05,-1.35505e-05,9.09517e-06
1247,5.33054e-06,6.92385e-06,5.20346e-05,5.04712e-05,-1.17462e-05,1.51433e-05
1248,3.13032e-05,1.35998e-05,0.000114993,5.71028e-05,-1.32987e-05,2.11132e-05
1249,2.72115e-05,2.27839e-05,9.92623e-05,6.0964e-05,-1.27564e-05,2.22939e-05
1250,-9.7571e-07,2.78989e-05,3.4729e-05,5.78171e-05,-9.44757e-06,1.96484e-05
1251,-4.13575e-05,2.59042e-05,-4.56379e-05,4.65151e-05,-6.48379e-06,1.59765e-05
1252,-4.87333e-05,2.01924e-05,-4.56743e-05,3.59021e-05,-5.40585e-08,1.66743e-05
1253,-8.3863e-06,1.57844e-05,4.94514e-05,2.78204e-05,6.92489e-06,2.12982e-05
1254,2.90357e-05,1.30232e-05,0.000118062,2.23037e-05,6.19815e-06,2.33409e-05
1255,3.25785e-05,1.57233e-05,0.000106321,2.59152e-05,1.07631e-06,2.28272e-05
1256,1.08265e-05,2.09502e-05,5.25853e-05,2.65024e-05,-6.26154e-06,2.16431e-05
1257,-3.26849e-05,1.65599e-05,-3.18814e-05,1.76097e-05,-1.07219e-05,1.48315e-05
1258,-5.37449e-05,1.60158e-06,-4.61744e-05,1.1964e-05,-3.91565e-06,9.56255e-06
1259,-2.11779e-05,-9.11374e-06,5.29733e-05,1.5731e-05,2.23776e-06,1.3613e-05
1260,6.42624e-06,-5.17687e-06,0.00010256,2.07706e-05,-1.09126e-06,1.90443e-05
1261,7.82444e-06,3.42484e-06,8.77994e-05,2.14094e-05,-1.174e-05,1.96567e-05
1262,7.81265e-06,7.53236e-06,7.97121e-05,2.14268e-05,-2.08412e-05,1.69838e-05
1263,1.09606e-05,9.99382e-06,7.24684e-05,3.45219e-05,-1.76066e-05,1.658e-05
1264,1.6345e-05,1.28518e-05,7.662e-05,5.23114e-05,-8.277e-06,1.71975e-05
1265,-5.59899e-07,1.25115e-05,3.54395e-05,5.6095e-05,-2.04543e-06,1.5943e-05
1266,-2.88494e-05,4.83153e-06,-3.57458e-05,5.52307e-05,1.67744e-07,1.48915e-05
1267,-2.55896e-05,-1.79126e-06,-2.86491e-05,6.56298e-05,1.43668e-06,1.7183e-05
1268,9.19612e-06,-4.80152e-06,4.96762e-05,7.83454e-05,-1.54561e-06,2.28213e-05
1269,3.56647e-05,-3.37426e-07,9.47548e-05,8.76489e-05,-7.46071e-06,2.41216e-05
1270,3.95324e-05,1.11271e-05,7.99969e-05,9.63231e-05,-8.69646e-06,1.85518e-05
1271,1.32472e-05,1.71335e-05,1.04162e-05,9.50148e-05,-6.0826e-06,9.36339e-06
1272,-2.78467e-05,1.07364e-05,-6.56627e-05,8.10835e-05,-1.15577e-06,3.46561e-06
1273,-3.65235e-05,3.32596e-06,-5.01597e-05,6.77983e-05,2.78623e-06,6.43228e-06
1274,-5.08683e-06,2.64741e-06,5.12552e-05,5.89865e-05,2.87487e-06,1.34851e-05
1275,2.47217e-05,5.07207e-06,0.000118963,5.55609e-05,1.9559e-06,1.57855e-05
1276,2.60287e-05,8.85169e-06,0.000100568,5.9281e-05,5.06078e-06,1.37645e-05
1277,2.35161e-07,1.26753e-05,2.7637e-05,5.89745e-05,9.04623e-06,1.31917e-05
1278,-3.96199e-05,1.27906e-05,-5.80927e-05,5.0318e-05,1.03154e-05,1.36809e-05
1279,-4.84729e-05,8.98317e-06,-5.48526e-05,4.75957e-05,9.09135e-06,1.42225e-05
1280,-1.22741e-05,8.63764e-06,4.98969e-05,5.08837e-05,2.68649e-06,1.60318e-05
1281,2.0953e-05,1.34213e-05,0.00012291,5.21841e-05,-7.55925e-06,1.72279e-05
1282,2.13928e-05,2.23434e-05,0.000104026,5.80552e-05,-1.30801e-05,1.66757e-05
1283,-3.68458e-06,2.92908e-05,3.72552e-05,6.12619e-05,-1.35826e-05,1.42821e-05
1284,-5.54122e-05,2.40619e-05,-5.66725e-05,4.77526e-05,-1.22301e-05,6.71451e-06
1285,-7.8904e-05,1.10635e-05,-7.69132e-05,3.14076e-05,-3.44567e-06,-1.47257e-07
1286,-3.06543e-05,4.28229e-06,2.31428e-05,3.21284e-05,9.789e-06,6.2562e-06
1287,1.50549e-05,5.54226e-06,8.1842e-05,4.06374e-05,1.07422e-05,1.39994e-05
1288,2.51651e-05,7.79573e-06,7.63042e-05,4.47616e-05,-1.41629e-06,1.35102e-05
1289,2.44709e-05,6.23368e-06,7.63259e-05,4.75712e-05,-9.30029e-06,1.24231e-05
1290,1.70949e-05,8.39418e-06,7.50502e-05,5.66527e-05,-1.26723e-05,1.31917e-05
1291,1.21397e-05,1.47196e-05,7.29922e-05,6.30807e-05,-1.65942e-05,1.53321e-05
1292,-1.12777e-05,1.56399e-05,1.91816e-05,5.46584e-05,-1.68798e-05,1.23737e-05
1293,-4.60245e-05,8.76723e-06,-5.35014e-05,4.10361e-05,-1.08747e-05,6.03774e-06
1294,-4.53939e-05,3.30509e-06,-3.9268e-05,3.97173e-05,-9.70058e-07,1.88078e-06
1295,-9.5796e-06,2.5579e-06,4.59703e-05,4.31348e-05,1.7896e-06,2.3631e-06
1296,1.49449e-05,7.91265e-06,9.42145e-05,5.0673e-05,-7.64501e-06,4.79136e-06
1297,1.42285e-05,1.77041e-05,8.22883e-05,5.79911e-05,-1.61511e-05,7.14268e-06
1298,-9.40835e-06,2.33884e-05,1.16063e-05,5.18683e-05,-1.55907e-05,6.97419e-06
1299,-4.13603e-05,1.84609e-05,-7.25219e-05,3.75911e-05,-1.29022e-05,5.23493e-06
1300,-4.39989e-05,9.84036e-06,-6.47286e-05,3.46828e-05,-1.35861e-05,7.75863e-06
1301,-8.53183e-06,7.33969e-06,3.43814e-05,4.46563e-05,-1.81158e-05,1.44558e-05
1302,2.4645e-05,1.25381e-05,0.000102583,5.81568e-05,-2.50237e-05,1.8308e-05
1303,2.68829e-05,2.19488e-05,8.81892e-05,6.94117e-05,-2.68884e-05,1.54787e-05
1304,4.22944e-06,2.73458e-05,2.40746e-05,6.47323e-05,-2.32595e-05,9.37612e-06
1305,-3.01489e-05,2.33217e-05,-5.47717e-05,4.54959e-05,-1.82887e-05,2.8685e-06
1306,-3.76118e-05,1.68084e-05,-5.76247e-05,3.708e-05,-1.14642e-05,2.72369e-06
1307,-6.9288e-06,1.73471e-05,3.28574e-05,4.74566e-05,-1.07999e-05,9.79567e-06
1308,1.86738e-05,2.07834e-05,9.56946e-05,5.99701e-05,-1.72486e-05,1.54066e-05
1309,1.11304e-05,2.48324e-05,6.9478e-05,7.11784e-05,-1.47121e-05,1.56418e-05
1310,-1.91626e-05,2.66989e-05,3.569e-06,7.15499e-05,-7.67282e-06,1.31541e-05
1311,-6.31067e-05,2.16019e-05,-7.58e-05,5.59458e-05,-6.7044e-06,6.83855e-06
1312,-7.44561e-05,1.23834e-05,-7.73129e-05,4.33033e-05,-9.39373e-06,3.88004e-06
1313,-2.70257e-05,1.08338e-05,2.85091e-05,5.42784e-05,-1.725e-05,9.08117e-06
1314,6.89552e-06,1.18563e-05,8.2915e-05,6.95368e-05,-2.58889e-05,1.22405e-05
1315,7.13145e-06,1.22165e-05,7.26053e-05,6.42222e-05,-3.04013e-05,9.92314e-06
1316,8.37895e-06,1.43591e-05,7.10717e-05,5.19381e-05,-2.88862e-05,7.49112e-06
1317,9.35764e-06,1.69537e-05,6.91917e-05,5.97398e-05,-2.20076e-05,7.9004e-06
1318,5.43108e-06,2.2635e-05,7.00442e-05,7.57554e-05,-1.34996e-05,1.00864e-05
1319,-2.1456e-05,2.44256e-05,2.52422e-05,6.96709e-05,-8.57817e-06,7.76416e-06
1320,-5.65002e-05,1.6803e-05,-3.68197e-05,5.23206e-05,-6.85086e-06,1.07613e-06
1321,-5.4423e-05,9.06518e-06,-1.39463e-05,4.92123e-05,-5.42655e-06,-1.18073e-08
1322,-1.9162e-05,7.96272e-06,7.28017e-05,5.57343e-05,-3.41911e-06,6.42451e-06
1323,4.33297e-06,1.08528e-05,0.0001211,6.55013e-05,-2.88467e-06,1.34835e-05
1324,5.02388e-06,1.83059e-05,0.000110683,7.18858e-05,-5.77377e-06,1.63243e-05
1325,-1.65524e-05,2.38217e-05,4.25019e-05,6.49434e-05,-9.67381e-06,1.23332e-05
1326,-4.70491e-05,2.09888e-05,-3.95911e-05,4.61993e-05,-1.09612e-05,4.53688e-06
1327,-5.08334e-05,1.49459e-05,-2.97349e-05,3.33138e-05,-9.98569e-06,1.02524e-06
1328,-2.06548e-05,1.2196e-05,7.0104e-05,3.09906e-05,-1.21952e-05,6.00981e-06
1329,1.05261e-05,1.66226e-05,0.000138622,3.66507e-05,-1.59391e-05,1.45948e-05
1330,1.86482e-05,2.54898e-05,0.00011954,4.94791e-05,-1.45011e-05,2.17717e-05
1331,4.31392e-07,2.9136e-05,4.29448e-05,5.53158e-05,-1.17322e-05,2.44167e-05
1332,-3.69408e-05,2.1064e-05,-4.42454e-05,4.64017e-05,-1.4021e-05,2.02856e-05
1333,-5.06501e-05,1.19308e-05,-3.82276e-05,3.75296e-05,-1.50516e-05,1.51991e-05
1334,-1.96245e-05,1.01778e-05,7.5496e-05,3.97551e-05,-1.39309e-05,1.39289e-05
1335,1.9187e-05,1.02828e-05,0.000161744,4.38455e-05,-1.78972e-05,1.09289e-05
1336,3.4932e-05,1.42594e-05,0.000157158,4.87752e-05,-2.06507e-05,8.91456e-06
1337,2.23455e-05,2.28107e-05,9.7413e-05,4.60514e-05,-1.77782e-05,1.22708e-05
1338,-2.32058e-05,2.46034e-05,-3.67682e-06,3.35924e-05,-1.71928e-05,1.32367e-05
1339,-4.48097e-05,1.70222e-05,-3.14642e-05,2.94916e-05,-1.38277e-05,1.57551e-05
1340,-2.96675e-06,9.08853e-06,6.04619e-05,3.85154e-05,-6.41065e-06,2.54665e-05
1341,2.88778e-05,8.57364e-06,0.000110003,4.58821e-05,-4.40796e-06,3.02665e-05
1342,2.75228e-05,9.23037e-06,9.44112e-05,4.77833e-05,-5.71095e-06,2.5407e-05
1343,3.08032e-05,6.00578e-06,8.41778e-05,5.11588e-05,-4.73946e-06,1.9919e-05
1344,3.34861e-05,8.95912e-06,7.75521e-05,6.22085e-05,-4.41285e-06,1.69817e-05
1345,2.69935e-05,1.86484e-05,7.13169e-05,6.94134e-05,-4.57409e-06,1.62e-05
1346,-2.6803e-06,2.21517e-05,1.97593e-05,5.88753e-05,-4.11323e-06,1.12792e-05
1347,-3.88201e-05,1.14583e-05,-4.28132e-05,4.30276e-05,-2.75556e-06,5.05472e-06
1348,-3.41388e-05,-1.00868e-07,-1.62626e-05,4.27555e-05,-5.69442e-07,9.47337e-06
1349,5.88506e-06,-2.68043e-06,6.85314e-05,4.96443e-05,-6.2571e-06,2.07688e-05
1350,3.25006e-05,5.09958e-06,0.00010789,5.47797e-05,-1.64426e-05,2.533e-05
1351,2.89993e-05,1.84004e-05,9.35614e-05,5.63005e-05,-2.00064e-05,2.01353e-05
1352,2.19456e-07,2.57944e-05,2.88727e-05,4.8471e-05,-1.82537e-05,8.94341e-06
1353,-3.22395e-05,2.08075e-05,-4.96908e-05,3.22066e-05,-1.51398e-05,-2.17537e-06
1354,-3.15802e-05,1.1984e-05,-4.08597e-05,2.58904e-05,-9.75128e-06,-5.3123e-06
1355,3.43112e-06,9.47669e-06,5.87527e-05,3.44033e-05,-4.18911e-06,2.33833e-06
1356,3.35917e-05,1.30652e-05,0.000130843,4.73283e-05,-4.12036e-06,1.28581e-05
1357,3.5105e-05,1.97135e-05,0.000119925,5.52257e-05,-9.65534e-06,1.78876e-05
1358,1.03813e-05,2.35828e-05,5.06398e-05,5.05693e-05,-1.65708e-05,1.65599e-05
1359,-2.90925e-05,1.85357e-05,-3.90731e-05,3.80853e-05,-1.91629e-05,1.15922e-05
1360,-4.23419e-05,9.52144e-06,-4.16537e-05,3.46161e-05,-1.40206e-05,9.01985e-06
1361,-1.07765e-05,8.31535e-06,6.03451e-05,4.32386e-05,-6.06371e-06,1.13989e-05
1362,2.21137e-05,1.28972e-05,0.000130142,5.1404e-05,-3.09114e-06,1.47551e-05
1363,2.43799e-05,1.64935e-05,0.000107727,6.04799e-05,-5.11118e-06,1.52024e-05
1364,3.39853e-07,1.91876e-05,4.80276e-05,6.49904e-05,-5.34281e-06,1.32059e-05
1365,-4.34484e-05,1.907e-05,-2.83421e-05,5.70566e-05,-4.33646e-06,8.05697e-06
1366,-5.66745e-05,1.50328e-05,-4.08645e-05,3.95068e-05,-3.24298e-06,5.40783e-06
1367,-1.14796e-05,1.34332e-05,4.845e-05,2.17724e-05,-4.13075e-06,1.03216e-05
1368,2.19001e-05,1.27952e-05,9.22161e-05,9.89091e-06,-1.05999e-05,1.45357e-05
1369,2.04022e-05,8.98703e-06,8.01453e-05,6.47118e-06,-1.3714e-05,1.41044e-05
1370,1.6427e-05,7.06732e-06,7.21587e-05,1.08473e-05,-1.35584e-05,1.6258e-05
1371,1.49064e-05,9.78777e-06,6.10092e-05,2.60957e-05,-1.37336e-05,1.92271e-05
1372,1.76136e-05,1.36694e-05,6.05477e-05,4.32721e-05,-1.40308e-05,1.64788e-05
1373,2.06073e-08,1.79365e-05,1.91188e-05,5.08046e-05,-1.3471e-05,8.85073e-06
1374,-3.32773e-05,1.71513e-05,-4.36617e-05,5.3074e-05,-8.09539e-06,3.36477e-06
1375,-3.13187e-05,1.27709e-05,-2.77923e-05,6.30792e-05,-1.43525e-06,7.99666e-06
1376,7.28931e-06,8.18827e-06,5.35838e-05,7.55822e-05,-4.53151e-06,1.74519e-05
1377,3.50494e-05,9.50154e-06,9.85741e-05,9.09553e-05,-1.37538e-05,2.0055e-05
1378,3.52195e-05,1.89462e-05,8.6474e-05,0.000109401,-1.50148e-05,1.70608e-05
1379,6.3234e-06,2.59536e-05,1.54997e-05,0.000117303,-1.74699e-05,1.20868e-05
1380,-3.3058e-05,2.06066e-05,-6.56239e-05,0.000107848,-2.40221e-05,7.69258e-06
1381,-4.02027e-05,1.16131e-05,-5.3844e-05,9.55929e-05,-2.47261e-05,9.24627e-06
1382,-9.49413e-06,8.28632e-06,4.56173e-05,8.94368e-05,-1.945e-05,1.74687e-05
1383,1.78486e-05,8.9653e-06,0.000114528,8.72997e-05,-1.66245e-05,2.45529e-05
1384,1.74394e-05,1.36029e-05,0.000102663,8.67975e-05,-1.29968e-05,2.42224e-05
1385,-4.31293e-06,1.87784e-05,3.60172e-05,8.11144e-05,-9.52227e-06,1.69111e-05
1386,-3.24028e-05,1.63814e-05,-5.41408e-05,6.75464e-05,-1.15601e-05,7.30638e-06
1387,-3.23817e-05,6.61324e-06,-6.60344e-05,5.90239e-05,-1.38831e-05,4.96921e-06
1388,3.65343e-06,9.891e-07,2.93605e-05,6.54434e-05,-1.44773e-05,1.40258e-05
1389,3.4694e-05,2.19603e-06,0.000110305,7.43777e-05,-1.57383e-05,2.64305e-05
1390,3.47431e-05,6.8276e-06,0.00011171,8.19603e-05,-1.85099e-05,3.22005e-05
1391,7.64417e-06,8.65747e-06,6.09926e-05,8.09102e-05,-1.97515e-05,3.08475e-05
1392,-4.10183e-05,3.97398e-06,-3.36505e-05,6.80942e-05,-2.05677e-05,2.23942e-05
1393,-5.90326e-05,-2.0385e-06,-5.97458e-05,5.65211e-05,-1.78574e-05,1.55872e-05
1394,-1.78527e-05,-1.68088e-07,3.53331e-05,6.06093e-05,-5.6368e-06,1.65528e-05
1395,8.70249e-06,2.95359e-06,7.85137e-05,6.4856e-05,9.04692e-06,1.27348e-05
1396,1.78849e-06,2.40658e-06,5.63024e-05,5.36592e-05,1.67636e-05,7.48245e-06
1397,2.07568e-06,-4.33748e-07,6.73844e-05,3.58556e-05,1.62191e-05,9.84925e-06
1398,6.27368e-06,1.24882e-06,8.40602e-05,2.72921e-05,4.84281e-06,1.37022e-05
1399,7.36563e-06,1.14949e-05,8.02865e-05,2.8487e-05,-1.01165e-05,1.29736e-05
1400,-1.69694e-05,1.71201e-05,1.81949e-05,2.65684e-05,-2.13159e-05,7.48397e-06
1401,-5.56489e-05,1.07776e-05,-5.33357e-05,2.52116e-05,-2.44645e-05,1.60702e-06
1402,-5.67283e-05,4.84826e-06,-2.8583e-05,3.3469e-05,-1.86719e-05,2.45436e-06
1403,-1.86709e-05,6.45044e-06,6.58247e-05,4.11607e-05,-1.40187e-05,1.26157e-05
1404,1.14181e-05,1.30092e-05,0.000115982,4.75189e-05,-1.39767e-05,2.42019e-05
1405,1.26982e-05,2.2659e-05,9.89013e-05,5.30605e-05,-1.16764e-05,3.0217e-05
1406,-1.52775e-05,2.58219e-05,2.40226e-05,4.6362e-05,-8.71868e-06,2.78438e-05
1407,-4.98769e-05,1.66887e-05,-6.14091e-05,3.09681e-05,-4.34113e-06,2.01151e-05
1408,-5.0966e-05,7.30525e-06,-5.58564e-05,2.69315e-05,2.94655e-06,1.50748e-05
1409,-1.80006e-05,9.56781e-06,3.80492e-05,3.49087e-05,2.19054e-06,1.78346e-05
1410,8.64816e-06,2.00563e-05,0.000109414,4.72045e-05,-1.01915e-05,2.26949e-05
1411,6.44141e-06,2.71493e-05,0.000106989,5.91861e-05,-1.82114e-05,2.1522e-05
1412,-1.9261e-05,2.55162e-05,4.74394e-05,5.72497e-05,-1.35104e-05,1.30742e-05
1413,-5.469e-05,1.7289e-05,-4.04793e-05,4.1918e-05,-4.4473e-06,4.20372e-06
1414,-6.09387e-05,9.9265e-06,-5.33093e-05,3.6137e-05,2.6538e-06,5.35578e-06
1415,-2.66999e-05,1.088e-05,3.60393e-05,4.34139e-05,4.63922e-07,1.39568e-05
1416,6.66864e-06,1.46746e-05,0.000110051,4.9714e-05,-1.01602e-05,1.78086e-05
1417,1.03513e-05,1.88746e-05,0.000109211,5.69048e-05,-1.23756e-05,1.37894e-05
1418,-9.31203e-06,2.11568e-05,5.89507e-05,5.97419e-05,-5.63763e-06,6.83903e-06
1419,-4.8658e-05,1.39961e-05,-2.96384e-05,5.09543e-05,-1.73585e-07,-8.28309e-08
1420,-6.15326e-05,1.1734e-06,-5.05311e-05,3.90299e-05,5.07821e-06,-2.50748e-06
1421,-1.5332e-05,-4.06365e-06,3.90566e-05,3.70572e-05,6.47567e-06,6.30497e-06
1422,1.91675e-05,1.07227e-06,8.81162e-05,4.25947e-05,2.76725e-06,1.53967e-05
1423,1.95254e-05,9.09487e-06,8.0237e-05,4.48661e-05,-3.66036e-06,1.56411e-05
1424,1.97932e-05,1.09294e-05,7.28125e-05,4.31354e-05,-7.52844e-06,1.4742e-05
1425,2.35648e-05,8.31031e-06,5.96e-05,4.5606e-05,-5.75833e-06,1.16835e-05
1426,2.5706e-05,9.0281e-06,5.46145e-05,4.79318e-05,-3.45554e-06,8.22373e-06
1427,1.25409e-06,8.97701e-06,7.659e-06,4.06807e-05,-2.26969e-06,3.47535e-06
1428,-3.45103e-05,3.75077e-06,-5.16588e-05,2.71372e-05,-7.91192e-07,-1.43856e-06
1429,-3.49964e-05,-2.31534e-06,-2.18741e-05,2.46487e-05,1.74045e-07,3.69411e-07
1430,-1.63633e-06,-4.78567e-06,6.43011e-05,3.01081e-05,-1.44446e-06,5.84429e-06
1431,2.27884e-05,-1.49287e-06,0.000102498,3.92927e-05,-8.56459e-06,1.01775e-05
1432,2.5885e-05,6.92559e-06,8.40446e-05,4.81053e-05,-1.50913e-05,1.26206e-05
1433,4.80807e-06,1.2807e-05,1.63321e-05,4.70219e-05,-1.49563e-05,1.4601e-05
1434,-2.79486e-05,9.37677e-06,-6.50297e-05,3.73667e-05,-1.01254e-05,1.44776e-05
1435,-3.36318e-05,4.0601e-06,-5.95355e-05,3.31755e-05,-9.34213e-06,1.29448e-05
1436,-2.42014e-06,2.81257e-06,4.05841e-05,3.58049e-05,-1.60505e-05,1.27264e-05
1437,3.00084e-05,6.32035e-06,0.000117362,3.9242e-05,-2.06399e-05,1.43156e-05
1438,3.82255e-05,1.28848e-05,0.000111656,4.42182e-05,-1.42721e-05,1.50709e-05
1439,2.26303e-05,1.76198e-05,4.76204e-05,4.43702e-05,-4.83594e-06,1.33641e-05
1440,-9.56672e-06,1.5026e-05,-4.07981e-05,3.9192e-05,-2.95421e-06,9.00447e-06
1441,-1.87313e-05,9.15192e-06,-4.82363e-05,3.85084e-05,-4.76645e-06,4.81277e-06
1442,1.28442e-05,8.62501e-06,5.35971e-05,4.67554e-05,-3.55114e-06,4.95454e-06
1443,4.47768e-05,1.38874e-05,0.000139105,5.86161e-05,-4.95468e-07,8.22663e-06
1444,4.53513e-05,2.17961e-05,0.000136008,7.07114e-05,1.6261e-07,1.3453e-05
1445,2.14071e-05,2.40469e-05,7.27797e-05,7.23134e-05,-2.02895e-06,1.45338e-05
1446,-2.6167e-05,1.4716e-05,-2.35509e-05,6.24168e-05,-7.71391e-06,6.99112e-06
1447,-4.98395e-05,2.53633e-06,-4.67049e-05,5.54379e-05,-1.03234e-05,2.03561e-06
1448,-1.54353e-05,-1.42538e-06,4.68096e-05,5.72443e-05,-5.49053e-06,8.2779e-06
1449,1.20197e-05,4.09649e-06,0.000100232,5.82848e-05,-5.39486e-06,1.33105e-05
1450,1.42439e-05,1.02278e-05,8.87493e-05,5.44459e-05,-1.17993e-05,1.37264e-05
1451,1.43513e-05,8.31898e-06,8.11927e-05,4.98831e-05,-1.35741e-05,1.40921e-05
1452,1.02294e-05,4.40215e-06,7.08937e-05,5.35987e-05,-1.2255e-05,1.22315e-05
1453,5.02269e-06,7.38654e-06,6.52297e-05,5.77697e-05,-1.54896e-05,8.92132e-06
1454,-1.98056e-05,1.00552e-05,1.71604e-05,4.79373e-05,-2.31285e-05,3.6945e-06
1455,-5.20216e-05,1.82371e-06,-4.80322e-05,3.39122e-05,-2.18053e-05,7.62407e-07
1456,-4.54798e-05,-5.69662e-06,-2.73457e-05,3.63621e-05,-1.18637e-05,5.06273e-06
1457,-3.01704e-06,-6.00549e-06,6.29194e-05,4.82907e-05,-6.40464e-06,1.5531e-05
1458,2.80216e-05,3.85185e-08,0.000110544,5.86907e-05,-1.15947e-05,2.29024e-05
1459,2.81934e-05,1.03659e-05,8.77784e-05,6.23925e-05,-1.52498e-05,2.3722e-05
1460,-2.10674e-06,1.65819e-05,6.04331e-06,5.77433e-05,-9.76205e-06,1.84019e-05
1461,-3.8764e-05,1.19813e-05,-8.31118e-05,4.78035e-05,-1.25361e-06,8.83711e-06
1462,-4.16741e-05,4.0868e-06,-7.94462e-05,4.3242e-05,2.98089e-06,3.0558e-06
1463,-7.75119e-06,1.23897e-06,1.7157e-05,4.75257e-05,-2.84033e-07,7.12863e-06
1464,2.16288e-05,3.26538e-06,9.02469e-05,5.81042e-05,-5.9879e-06,1.81656e-05
1465,2.20046e-05,8.40108e-06,8.3765e-05,6.95344e-05,-6.31917e-06,2.58742e-05
1466,-5.01575e-06,1.30766e-05,2.36113e-05,6.8462e-05,-4.73121e-07,2.45119e-05
1467,-4.58053e-05,1.21083e-05,-5.45779e-05,5.53057e-05,4.73571e-06,1.76919e-05
1468,-5.39995e-05,8.2303e-06,-5.21615e-05,4.91725e-05,8.54025e-06,1.67216e-05
1469,-1.61e-05,8.11446e-06,4.46081e-05,5.55033e-05,7.97754e-06,2.3394e-05
1470,1.98488e-05,1.08322e-05,0.000109461,6.24323e-05,5.06861e-07,2.70256e-05
1471,2.25328e-05,1.79383e-05,9.1748e-05,7.29153e-05,-9.10552e-06,2.40802e-05
1472,-1.68858e-06,2.46753e-05,3.5569e-05,7.25008e-05,-1.16079e-05,1.81482e-05
1473,-4.9913e-05,2.03718e-05,-4.48647e-05,5.58019e-05,-7.03391e-06,6.22273e-06
1474,-6.96328e-05,8.07059e-06,-5.57176e-05,4.22623e-05,-9.32849e-07,-4.23163e-07
1475,-2.9894e-05,4.19581e-06,3.79985e-05,4.18344e-05,-3.09851e-07,9.72686e-06
1476,-3.32535e-07,1.16097e-05,7.97804e-05,4.60598e-05,-6.08986e-06,2.03035e-05
1477,1.49205e-06,1.71928e-05,6.19316e-05,4.57185e-05,-1.28105e-05,2.06548e-05
1478,4.49159e-06,1.70839e-05,6.44839e-05,4.46166e-05,-1.434e-05,1.67142e-05
1479,7.91746e-06,2.0809e-05,7.13873e-05,5.45882e-05,-7.56652e-06,1.16194e-05
1480,1.0499e-05,2.86733e-05,6.95697e-05,6.39842e-05,-1.74496e-06,8.55571e-06
1481,-1.17848e-05,3.23501e-05,1.49572e-05,5.61186e-05,-9.61147e-07,6.75483e-06
1482,-4.99424e-05,2.49384e-05,-5.08111e-05,4.40834e-05,-2.06437e-07,4.53599e-06
1483,-5.14028e-05,1.76608e-05,-2.85957e-05,4.41834e-05,2.95165e-06,6.72904e-06
1484,-1.31149e-05,1.81947e-05,5.807e-05,4.71058e-05,1.07731e-06,1.15649e-05
1485,1.91501e-05,2.16752e-05,0.000105493,4.89554e-05,-9.30724e-06,1.10053e-05
1486,2.70615e-05,2.52447e-05,9.43299e-05,5.26331e-05,-1.59021e-05,6.0709e-06
1487,4.73693e-06,2.56636e-05,2.4881e-05,5.04617e-05,-1.13473e-05,1.86874e-06
1488,-3.21273e-05,2.08557e-05,-6.08279e-05,4.21575e-05,1.70999e-06,-5.39812e-07
1489,-4.17924e-05,1.69029e-05,-5.57838e-05,3.9767e-05,1.08174e-05,-1.8177e-07
1490,-1.31949e-05,1.81665e-05,4.45929e-05,4.46435e-05,7.69589e-06,3.81713e-06
1491,1.50305e-05,1.93204e-05,0.000123938,5.32091e-05,-4.73479e-06,9.52129e-06
1492,1.54171e-05,1.89519e-05,0.000123074,6.12454e-05,-1.40489e-05,1.35691e-05
1493,-8.66971e-06,1.80253e-05,6.05528e-05,5.91123e-05,-1.52858e-05,1.31639e-05
1494,-4.19226e-05,1.4613e-05,-2.84758e-05,4.74261e-05,-1.13991e-05,8.96185e-06
1495,-4.40231e-05,8.34033e-06,-3.79299e-05,4.27073e-05,-5.67113e-06,1.03605e-05
1496,-5.89132e-06,2.49451e-06,5.30466e-05,5.00719e-05,-5.01889e-06,1.77101e-05
1497,2.45017e-05,4.23087e-07,0.000121886,5.79895e-05,-1.0031e-05,1.99725e-05
1498,2.01882e-05,7.4697e-06,0.000110693,6.40301e-05,-1.14773e-05,1.80781e-05
1499,-3.85783e-06,2.14951e-05,5.35712e-05,6.34396e-05,-1.00499e-05,1.6633e-05
1500,-4.37342e-05,2.67928e-05,-3.64709e-05,5.36391e-05,-1.43693e-05,1.43966e-05
1501,-5.71592e-05,1.74609e-05,-5.31179e-05,4.64737e-05,-1.21422e-05,1.34606e-05
1502,-1.47211e-05,8.46584e-06,4.69169e-05,5.75123e-05,-2.22811e-06,1.50601e-05
1503,1.3075e-05,7.94705e-06,8.70794e-05,7.18279e-05,-1.90778e-06,1.72237e-05
1504,9.52618e-06,1.33677e-05,6.62239e-05,6.83568e-05,-1.23969e-05,2.05375e-05
1505,6.68585e-06,1.54354e-05,8.3924e-05,5.76977e-05,-1.70665e-05,2.16995e-05
1506,8.47917e-06,1.6506e-05,9.80828e-05,5.61243e-05,-1.24015e-05,2.09363e-05
1507,1.28008e-05,2.44466e-05,8.98907e-05,5.81522e-05,-8.40719e-06,2.13428e-05
1508,-9.30887e-06,2.89457e-05,2.76976e-05,4.71442e-05,-1.03627e-05,1.72719e-05
1509,-4.58997e-05,2.32281e-05,-4.34416e-05,3.15706e-05,-1.58208e-05,9.61982e-06
1510,-4.60805e-05,1.51914e-05,-1.80687e-05,3.2988e-05,-1.70411e-05,5.93151e-06
1511,-8.80633e-06,9.78421e-06,7.05014e-05,4.39258e-05,-1.37351e-05,8.08915e-06
1512,1.79396e-05,8.86979e-06,0.000111424,5.6388e-05,-1.10667e-05,9.29346e-06
1513,1.70975e-05,1.3732e-05,9.12057e-05,6.21833e-05,-1.2258e-05,8.49254e-06
1514,-1.48892e-05,1.92049e-05,2.05475e-05,5.29536e-05,-1.93273e-05,4.62763e-06
1515,-5.51224e-05,1.48783e-05,-5.79081e-05,3.72591e-05,-2.14216e-05,-1.304e-06
1516,-5.74888e-05,6.30163e-06,-4.82315e-05,3.54049e-05,-9.22938e-06,-1.00684e-06
1517,-1.88537e-05,4.59311e-06,4.7063e-05,4.30682e-05,3.86988e-06,8.10663e-06
1518,1.39466e-05,1.07275e-05,0.000114515,4.8996e-05,2.31719e-06,1.69476e-05
1519,1.30853e-05,2.06182e-05,0.00010447,5.2552e-05,-5.63191e-06,1.71812e-05
1520,-1.43019e-05,2.66271e-05,4.33168e-05,4.67219e-05,-8.75808e-06,9.89713e-06
1521,-4.90026e-05,2.37851e-05,-3.85291e-05,3.17996e-05,-7.58346e-06,2.63671e-06
1522,-4.84856e-05,1.6142e-05,-4.26063e-05,2.70132e-05,-3.76146e-06,3.25764e-06
1523,-5.93609e-06,9.58738e-06,5.36665e-05,3.52495e-05,-1.99319e-06,8.69857e-06
1524,2.909e-05,4.73607e-06,0.000126266,3.9456e-05,-8.08908e-06,1.23743e-05
1525,2.80469e-05,6.56406e-06,0.000117537,4.48387e-05,-1.56357e-05,1.19616e-05
1526,1.0574e-06,1.09903e-05,6.5434e-05,4.90515e-05,-1.15128e-05,8.66599e-06
1527,-4.67392e-05,7.98487e-06,-2.10373e-05,4.04088e-05,-3.37079e-06,-5.00524e-07
1528,-6.45019e-05,2.14147e-06,-4.51108e-05,3.37087e-05,-9.44831e-07,-5.64845e-06
1529,-2.30934e-05,2.88529e-06,4.5853e-05,4.43078e-05,-4.10559e-07,4.40925e-06
1530,6.18883e-06,6.45699e-06,0.000104819,5.51611e-05,-3.33162e-07,1.38194e-05
1531,8.47487e-06,8.24354e-06,9.97419e-05,5.52468e-05,-3.08626e-06,1.33038e-05
1532,1.56155e-05,6.28087e-06,8.79473e-05,5.70731e-05,-3.02978e-06,1.12409e-05
1533,2.07704e-05,3.46398e-06,7.24519e-05,7.20473e-05,1.68021e-06,1.03772e-05
1534,1.77755e-05,4.64579e-06,6.82134e-05,8.26753e-05,2.17561e-06,1.1401e-05
1535,-8.56461e-06,4.96048e-06,2.03495e-05,6.65052e-05,-4.65795e-06,1.02547e-05
1536,-4.01865e-05,-4.46783e-07,-4.72155e-05,3.93186e-05,-1.19587e-05,5.23378e-06
1537,-3.40254e-05,-4.86491e-06,-2.59464e-05,3.36951e-05,-9.07817e-06,5.23587e-06
1538,2.03326e-06,-3.19879e-06,6.39829e-05,4.25119e-05,-3.69985e-06,1.29949e-05
1539,2.20852e-05,7.3594e-06,0.000109105,5.44721e-05,-3.29448e-06,1.9428e-05
1540,1.64833e-05,2.36509e-05,8.73092e-05,6.71783e-05,-5.69467e-06,1.98409e-05
1541,-1.18384e-05,3.21146e-05,1.38875e-05,7.35942e-05,-8.85842e-06,1.44367e-05
1542,-4.2351e-05,2.51042e-05,-6.33311e-05,7.08315e-05,-8.68181e-06,9.60727e-06
1543,-3.71222e-05,1.33919e-05,-5.02653e-05,6.86392e-05,-7.27486e-06,1.33718e-05
1544,2.50762e-06,9.59585e-06,4.67804e-05,6.82405e-05,-1.04994e-05,2.34058e-05
1545,3.34806e-05,1.51192e-05,0.000115556,6.93705e-05,-1.69918e-05,2.74507e-05
1546,3.32669e-05,2.5054e-05,0.000107726,7.75342e-05,-1.79627e-05,2.04916e-05
1547,8.15432e-06,3.02062e-05,4.81121e-05,8.05183e-05,-1.72071e-05,1.2416e-05
1548,-2.68941e-05,2.3139e-05,-3.24932e-05,6.42994e-05,-1.9342e-05,8.50086e-06
1549,-3.23541e-05,9.97361e-06,-3.49634e-05,4.6987e-05,-1.7791e-05,8.52058e-06
1550,1.71611e-06,3.30292e-06,6.21738e-05,4.7767e-05,-1.13861e-05,1.4311e-05
