Time_Index,DELTOID_Affected,DELTOID_NonAffected,BICEPS_Affected,BICEPS_NonAffected,FOREARM_Affected,FOREARM_NonAffected
1,-2.49E-05,9.58E-06,3.91E-05,3.40E-05,-1.25E-05,9.51E-06
2,-1.50E-05,9.72E-06,3.99E-05,-2.61E-05,4.33E-06,9.56E-06
3,6.73E-07,1.09E-05,2.47E-05,-2.50E-05,3.66E-05,1.00E-05
4,2.24E-06,9.19E-06,1.36E-05,-4.75E-06,6.79E-05,6.13E-06
5,-1.16E-06,6.27E-06,1.99E-05,-9.02E-06,7.72E-05,4.03E-06
6,-4.31E-06,7.31E-06,3.26E-05,3.08E-06,5.32E-05,6.34E-06
7,-6.37E-06,1.20E-05,3.41E-05,6.21E-05,2.94E-06,1.12E-05
8,-1.27E-05,1.55E-05,2.50E-05,0.00010752,-5.23E-05,1.13E-05
9,-2.75E-05,1.61E-05,1.88E-05,6.32E-05,-9.49E-05,5.43E-06
10,-3.44E-05,1.30E-05,1.90E-05,-9.30E-06,-0.000116177,4.96E-07
11,-2.30E-05,9.62E-06,1.12E-05,-4.68E-05,-0.000113545,2.86E-07
12,-7.60E-06,9.18E-06,-2.73E-06,-2.58E-05,-8.67E-05,3.30E-06
13,-1.90E-06,1.33E-05,-5.92E-06,6.13E-05,-4.49E-05,6.07E-06
14,-7.06E-06,1.86E-05,1.31E-06,0.000142804,-8.33E-06,7.18E-06
15,-1.78E-05,2.01E-05,1.37E-05,0.000125136,8.26E-06,5.54E-06
16,-2.10E-05,1.74E-05,2.30E-05,3.89E-05,6.77E-06,3.89E-06
17,-1.03E-05,1.41E-05,2.14E-05,-1.63E-05,-4.99E-06,6.05E-06
18,3.80E-06,1.15E-05,1.48E-05,-4.36E-06,-2.27E-05,1.26E-05
19,9.63E-06,9.41E-06,1.86E-05,6.64E-05,-4.28E-05,1.93E-05
20,4.84E-06,9.55E-06,2.79E-05,0.000133247,-5.75E-05,2.20E-05
21,-8.90E-06,1.08E-05,3.34E-05,0.000117869,-5.90E-05,1.79E-05
22,-2.03E-05,9.07E-06,3.45E-05,3.64E-05,-4.86E-05,1.06E-05
23,-1.60E-05,4.90E-06,2.69E-05,-1.41E-05,-3.74E-05,4.98E-06
24,-3.85E-06,2.45E-06,1.98E-05,-1.02E-05,-3.16E-05,3.46E-06
25,-1.91E-06,3.77E-06,3.31E-05,5.28E-05,-2.36E-05,4.15E-06
26,-9.27E-06,8.61E-06,5.64E-05,0.000134191,-6.60E-06,5.85E-06
27,-2.00E-05,1.09E-05,6.36E-05,0.000130416,1.75E-05,6.02E-06
28,-2.64E-05,8.66E-06,6.20E-05,3.91E-05,4.19E-05,3.96E-06
29,-1.92E-05,7.23E-06,5.97E-05,-1.75E-05,5.83E-05,4.89E-06
30,-9.71E-06,9.17E-06,5.29E-05,-2.38E-06,6.08E-05,5.22E-06
31,-6.11E-06,1.11E-05,4.48E-05,2.08E-05,5.55E-05,3.93E-06
32,3.15E-07,8.79E-06,4.69E-05,7.17E-06,5.23E-05,3.03E-06
33,8.10E-06,5.94E-06,5.63E-05,1.33E-05,4.93E-05,3.74E-06
34,1.29E-05,7.82E-06,6.11E-05,7.47E-05,4.13E-05,5.67E-06
35,8.38E-06,1.16E-05,6.27E-05,0.000124164,2.88E-05,4.32E-06
36,-7.97E-06,1.21E-05,6.53E-05,8.31E-05,1.73E-05,1.45E-06
37,-1.72E-05,1.04E-05,6.63E-05,1.23E-05,1.16E-05,1.19E-06
38,-1.07E-05,9.56E-06,5.74E-05,-2.61E-05,1.04E-05,5.77E-06
39,-2.17E-06,1.02E-05,4.71E-05,-1.18E-05,1.07E-05,9.24E-06
40,5.71E-07,1.29E-05,4.80E-05,6.51E-05,1.08E-05,8.61E-06
41,-3.19E-06,1.50E-05,5.53E-05,0.000137572,9.50E-06,4.73E-06
42,-1.30E-05,1.34E-05,6.34E-05,0.000117445,6.93E-06,9.17E-07
43,-1.94E-05,1.03E-05,6.69E-05,3.50E-05,1.67E-06,1.53E-06
44,-1.40E-05,1.04E-05,5.82E-05,-2.01E-05,-7.94E-06,4.89E-06
45,-3.72E-06,1.34E-05,4.24E-05,-1.84E-05,-1.89E-05,5.28E-06
46,2.15E-06,1.62E-05,3.90E-05,4.26E-05,-2.65E-05,3.66E-06
47,1.55E-06,1.82E-05,4.77E-05,0.000114972,-3.07E-05,5.60E-06
48,-6.09E-06,1.85E-05,5.51E-05,0.00011615,-3.25E-05,9.61E-06
49,-1.42E-05,1.50E-05,5.62E-05,4.88E-05,-3.02E-05,1.39E-05
50,-1.02E-05,9.65E-06,4.74E-05,1.35E-06,-2.53E-05,2.05E-05
51,1.96E-06,5.92E-06,3.17E-05,5.87E-07,-2.03E-05,2.84E-05
52,7.83E-06,5.79E-06,2.77E-05,5.89E-05,-1.35E-05,3.17E-05
53,1.69E-06,9.76E-06,3.43E-05,0.000142131,-8.22E-06,2.98E-05
54,-1.77E-05,1.40E-05,3.67E-05,0.000148568,-4.97E-06,2.32E-05
55,-3.41E-05,1.40E-05,4.08E-05,6.31E-05,1.06E-07,1.63E-05
56,-2.58E-05,1.22E-05,4.46E-05,-2.31E-07,5.27E-06,1.72E-05
57,-8.38E-06,1.26E-05,3.98E-05,7.62E-06,5.55E-06,2.23E-05
58,-1.47E-06,1.48E-05,2.94E-05,2.69E-05,2.92E-06,2.54E-05
59,-3.57E-07,1.66E-05,2.95E-05,1.82E-05,-1.19E-06,2.82E-05
60,-1.29E-06,1.74E-05,4.03E-05,3.56E-05,-9.53E-06,3.00E-05
61,-5.72E-06,1.74E-05,4.54E-05,0.000103627,-1.67E-05,3.07E-05
62,-1.50E-05,1.51E-05,4.07E-05,0.000152848,-1.80E-05,2.64E-05
63,-2.78E-05,1.23E-05,3.76E-05,0.000108191,-1.49E-05,1.80E-05
64,-3.14E-05,1.28E-05,3.71E-05,3.81E-05,-1.21E-05,1.20E-05
65,-1.94E-05,1.49E-05,2.37E-05,6.71E-06,-1.12E-05,1.20E-05
66,-7.63E-06,1.55E-05,4.95E-06,2.64E-05,-1.05E-05,1.53E-05
67,-5.82E-06,1.52E-05,-5.37E-06,9.40E-05,-7.30E-06,1.76E-05
68,-1.23E-05,1.47E-05,-6.73E-06,0.000145848,1.46E-06,1.55E-05
69,-2.18E-05,1.24E-05,-3.94E-07,0.000109379,1.58E-05,7.77E-06
70,-2.62E-05,7.90E-06,8.30E-06,2.13E-05,3.04E-05,2.04E-06
71,-1.96E-05,5.43E-06,7.39E-06,-3.26E-05,3.64E-05,4.77E-06
72,-9.80E-06,7.34E-06,-1.99E-06,-2.36E-05,3.02E-05,1.17E-05
73,-6.57E-06,9.85E-06,2.31E-07,4.74E-05,1.41E-05,1.54E-05
74,-1.14E-05,1.10E-05,1.62E-05,0.000121573,-7.16E-06,1.62E-05
75,-2.31E-05,1.25E-05,3.41E-05,0.000113225,-2.75E-05,1.51E-05
76,-3.20E-05,1.27E-05,4.64E-05,3.54E-05,-4.35E-05,1.28E-05
77,-2.64E-05,1.10E-05,4.61E-05,-1.17E-05,-5.66E-05,1.28E-05
78,-1.21E-05,1.03E-05,3.73E-05,-4.75E-06,-6.65E-05,1.63E-05
79,-5.02E-06,1.16E-05,3.70E-05,5.90E-05,-6.71E-05,1.91E-05
80,-8.76E-06,1.37E-05,3.99E-05,0.000140773,-5.58E-05,1.92E-05
81,-2.22E-05,1.43E-05,3.86E-05,0.000142233,-3.93E-05,1.32E-05
82,-3.02E-05,1.12E-05,4.07E-05,6.21E-05,-2.68E-05,6.25E-06
83,-1.51E-05,8.90E-06,3.77E-05,9.05E-06,-1.94E-05,6.68E-06
84,1.38E-06,1.30E-05,2.68E-05,1.49E-05,-1.52E-05,8.72E-06
85,3.70E-06,1.83E-05,1.81E-05,3.28E-05,-1.49E-05,9.19E-06
86,5.79E-06,1.89E-05,2.25E-05,2.51E-05,-1.66E-05,1.20E-05
87,1.13E-05,1.77E-05,2.99E-05,3.31E-05,-1.75E-05,1.71E-05
88,1.43E-05,1.84E-05,2.81E-05,9.11E-05,-1.40E-05,1.97E-05
89,7.18E-06,2.06E-05,2.18E-05,0.000138597,-9.75E-06,1.73E-05
90,-9.06E-06,1.94E-05,1.82E-05,9.52E-05,-7.78E-06,1.28E-05
91,-1.65E-05,1.49E-05,2.21E-05,2.01E-05,-6.64E-06,1.07E-05
92,-5.91E-06,1.22E-05,1.84E-05,-2.01E-05,-6.56E-06,1.47E-05
93,7.68E-06,1.31E-05,9.13E-06,-2.88E-06,-8.76E-06,2.22E-05
94,1.37E-05,1.63E-05,8.65E-06,7.60E-05,-1.07E-05,2.70E-05
95,9.29E-06,1.87E-05,1.28E-05,0.0001494,-1.03E-05,2.42E-05
96,-3.92E-06,1.69E-05,1.66E-05,0.000132702,-9.13E-06,1.52E-05
97,-1.53E-05,1.19E-05,1.91E-05,5.50E-05,-8.03E-06,8.39E-06
98,-1.39E-05,8.92E-06,1.54E-05,-2.71E-06,-7.00E-06,9.99E-06
99,-6.12E-06,1.01E-05,8.01E-06,-1.19E-05,-5.99E-06,1.61E-05
100,-3.31E-06,1.31E-05,1.09E-05,4.17E-05,-5.69E-06,1.82E-05
101,-7.68E-06,1.48E-05,1.91E-05,0.000116084,-5.94E-06,1.28E-05
102,-1.59E-05,1.38E-05,1.97E-05,0.000117816,-6.30E-06,4.81E-06
103,-1.70E-05,1.21E-05,1.75E-05,4.13E-05,-5.06E-06,3.05E-06
104,-4.74E-06,1.01E-05,1.37E-05,-1.92E-05,3.46E-06,9.80E-06
105,9.63E-06,8.54E-06,4.31E-06,-2.94E-05,3.34E-05,1.73E-05
106,1.35E-05,1.05E-05,3.61E-06,2.63E-05,8.61E-05,1.89E-05
107,7.81E-06,1.33E-05,1.10E-05,0.000110082,0.000134156,1.54E-05
108,-1.11E-05,1.36E-05,1.32E-05,0.000114094,0.000153196,9.52E-06
109,-3.06E-05,1.22E-05,1.56E-05,2.70E-05,0.000144646,6.67E-06
110,-3.01E-05,1.08E-05,1.63E-05,-3.17E-05,0.000114703,8.60E-06
111,-2.04E-05,8.90E-06,1.14E-05,-1.07E-05,7.31E-05,1.20E-05
112,-1.62E-05,6.58E-06,5.73E-06,1.95E-05,1.99E-05,1.55E-05
113,-1.00E-05,6.88E-06,1.10E-05,3.41E-06,-4.61E-05,1.87E-05
114,-3.00E-06,8.51E-06,2.07E-05,4.06E-06,-0.000110192,1.82E-05
115,-1.53E-06,8.97E-06,2.13E-05,7.05E-05,-0.000159743,1.68E-05
116,-7.32E-06,8.76E-06,2.18E-05,0.000136521,-0.000187289,1.54E-05
117,-2.30E-05,6.30E-06,2.90E-05,0.000106402,-0.000193557,1.24E-05
118,-3.34E-05,2.29E-06,3.59E-05,3.86E-05,-0.000177518,1.19E-05
119,-2.69E-05,1.59E-07,2.70E-05,2.17E-06,-0.000139183,1.49E-05
120,-1.24E-05,5.32E-07,1.80E-05,1.90E-05,-8.76E-05,1.85E-05
121,-2.59E-06,4.16E-06,2.46E-05,9.03E-05,-3.81E-05,1.92E-05
122,-4.09E-06,1.05E-05,3.42E-05,0.000152537,-3.19E-06,1.51E-05
123,-1.30E-05,1.45E-05,3.96E-05,0.000125584,1.29E-05,8.44E-06
124,-1.71E-05,1.45E-05,4.22E-05,3.89E-05,1.37E-05,6.19E-06
125,-8.57E-06,1.28E-05,4.01E-05,-2.12E-05,6.38E-06,1.14E-05
126,4.78E-06,1.15E-05,3.48E-05,-2.15E-05,-3.96E-06,1.81E-05
127,1.10E-05,1.20E-05,3.76E-05,4.09E-05,-1.44E-05,2.01E-05
128,5.17E-06,1.36E-05,4.70E-05,0.000110351,-2.39E-05,1.82E-05
129,-8.37E-06,1.42E-05,5.53E-05,0.000103936,-3.04E-05,1.59E-05
130,-1.67E-05,1.31E-05,5.75E-05,2.63E-05,-3.33E-05,1.46E-05
131,-7.37E-06,1.25E-05,4.66E-05,-2.77E-05,-3.33E-05,1.55E-05
132,9.60E-06,1.38E-05,2.98E-05,-3.02E-05,-3.14E-05,1.74E-05
133,1.72E-05,1.55E-05,2.79E-05,2.68E-05,-2.73E-05,1.80E-05
134,1.40E-05,1.59E-05,3.52E-05,0.000106939,-1.76E-05,1.75E-05
135,1.50E-06,1.73E-05,3.88E-05,0.000113604,-4.07E-06,1.20E-05
136,-1.30E-05,1.90E-05,4.09E-05,4.10E-05,2.36E-06,5.05E-06
137,-1.39E-05,2.17E-05,3.65E-05,-1.79E-06,-1.43E-06,5.52E-06
138,-4.36E-06,2.36E-05,2.73E-05,1.50E-05,-7.52E-06,8.79E-06
139,1.18E-06,2.41E-05,2.01E-05,3.34E-05,-8.60E-06,8.69E-06
140,3.26E-06,2.46E-05,1.72E-05,1.82E-05,-6.23E-06,5.52E-06
141,6.44E-06,2.39E-05,1.93E-05,2.19E-05,-2.52E-06,3.89E-06
142,9.38E-06,2.29E-05,2.25E-05,8.56E-05,6.68E-06,5.19E-06
143,5.05E-06,2.23E-05,2.40E-05,0.000143536,1.83E-05,3.04E-06
144,-1.02E-05,2.09E-05,2.74E-05,0.000106864,2.66E-05,-3.29E-06
145,-2.26E-05,1.71E-05,3.08E-05,3.31E-05,3.44E-05,-4.76E-06
146,-1.90E-05,1.57E-05,2.29E-05,-7.40E-06,4.21E-05,2.56E-06
147,-6.94E-06,1.70E-05,1.64E-05,7.74E-06,4.40E-05,1.15E-05
148,1.61E-06,1.70E-05,2.62E-05,8.04E-05,3.65E-05,1.68E-05
149,-9.95E-07,1.41E-05,3.77E-05,0.00014485,2.45E-05,1.65E-05
150,-1.24E-05,9.62E-06,4.22E-05,0.000122729,1.56E-05,1.13E-05
151,-1.90E-05,7.41E-06,4.37E-05,5.10E-05,1.21E-05,6.96E-06
152,-1.24E-05,9.15E-06,4.35E-05,1.01E-05,1.05E-05,8.36E-06
153,-2.32E-07,1.27E-05,3.97E-05,2.12E-05,6.45E-06,1.43E-05
154,6.18E-06,1.56E-05,3.92E-05,8.32E-05,1.28E-06,2.03E-05
155,2.00E-06,1.62E-05,4.15E-05,0.000143826,-1.64E-06,2.38E-05
156,-1.06E-05,1.35E-05,4.39E-05,0.000120972,-3.62E-07,2.31E-05
157,-1.79E-05,1.15E-05,4.84E-05,3.00E-05,4.17E-06,1.91E-05
158,-8.58E-06,1.31E-05,4.84E-05,-2.64E-05,9.20E-06,1.57E-05
159,5.57E-06,1.48E-05,4.18E-05,-2.38E-05,1.08E-05,1.46E-05
160,1.03E-05,1.46E-05,4.32E-05,3.81E-05,7.02E-06,1.42E-05
161,5.82E-06,1.44E-05,5.04E-05,0.000112167,1.25E-06,1.21E-05
162,-5.75E-06,1.44E-05,5.19E-05,9.90E-05,-3.65E-06,6.75E-06
163,-1.52E-05,1.38E-05,5.31E-05,6.25E-06,-9.14E-06,1.43E-06
164,-8.23E-06,1.14E-05,5.07E-05,-4.62E-05,-1.39E-05,4.46E-06
165,3.43E-06,8.41E-06,4.56E-05,-2.23E-05,-1.27E-05,1.33E-05
166,4.35E-06,6.17E-06,3.60E-05,9.05E-06,-7.26E-06,1.66E-05
167,2.99E-06,4.59E-06,2.78E-05,-5.02E-07,-4.52E-06,1.50E-05
168,5.12E-06,4.61E-06,2.97E-05,-2.92E-07,-5.00E-06,1.20E-05
169,7.01E-06,6.45E-06,3.22E-05,5.50E-05,-6.91E-06,9.77E-06
170,8.89E-07,8.30E-06,2.68E-05,0.000110231,-8.98E-06,9.50E-06
171,-1.25E-05,9.29E-06,2.06E-05,7.65E-05,-1.11E-05,1.10E-05
172,-1.83E-05,9.40E-06,1.90E-05,8.41E-06,-1.41E-05,1.58E-05
173,-8.31E-06,9.95E-06,8.98E-06,-3.08E-05,-1.82E-05,2.17E-05
174,3.42E-06,1.12E-05,-1.85E-06,-1.68E-05,-2.07E-05,2.42E-05
175,5.35E-06,1.32E-05,1.77E-06,5.74E-05,-1.93E-05,2.28E-05
176,-9.51E-07,1.56E-05,1.30E-05,0.000130293,-1.38E-05,1.95E-05
177,-1.10E-05,1.50E-05,2.15E-05,0.000116884,-8.20E-06,1.50E-05
178,-1.57E-05,1.20E-05,2.41E-05,4.22E-05,-6.74E-06,1.06E-05
179,-7.77E-06,9.66E-06,1.88E-05,-9.31E-06,6.51E-07,7.66E-06
180,5.35E-06,9.26E-06,1.22E-05,-4.32E-06,2.78E-05,8.63E-06
181,1.23E-05,8.81E-06,1.60E-05,6.01E-05,6.76E-05,1.29E-05
182,1.10E-05,8.20E-06,2.28E-05,0.000131452,9.43E-05,1.55E-05
183,2.85E-06,8.75E-06,2.46E-05,0.000125704,9.08E-05,1.40E-05
184,-3.35E-06,9.84E-06,2.78E-05,5.05E-05,5.94E-05,1.53E-05
185,2.62E-06,1.03E-05,2.81E-05,6.66E-07,1.16E-05,2.35E-05
186,1.53E-05,1.06E-05,2.11E-05,3.35E-06,-3.93E-05,2.90E-05
187,2.15E-05,1.17E-05,2.31E-05,6.75E-05,-8.23E-05,2.47E-05
188,1.77E-05,1.41E-05,3.13E-05,0.000151728,-0.000108125,1.70E-05
189,2.21E-06,1.50E-05,3.29E-05,0.000152566,-0.000111697,1.07E-05
190,-1.34E-05,1.53E-05,3.65E-05,6.32E-05,-9.96E-05,8.03E-06
191,-4.89E-06,1.76E-05,3.61E-05,4.34E-06,-7.89E-05,9.92E-06
192,1.50E-05,1.95E-05,2.96E-05,1.54E-05,-6.02E-05,1.25E-05
193,2.10E-05,1.92E-05,2.54E-05,3.17E-05,-5.17E-05,1.44E-05
194,1.86E-05,1.49E-05,3.05E-05,8.84E-06,-4.64E-05,1.57E-05
195,1.48E-05,1.01E-05,4.10E-05,2.99E-06,-3.59E-05,1.37E-05
196,1.22E-05,8.39E-06,4.20E-05,5.59E-05,-1.80E-05,1.11E-05
197,5.62E-06,9.08E-06,3.61E-05,0.000105405,-1.38E-07,7.66E-06
198,-9.01E-06,9.82E-06,3.20E-05,6.64E-05,1.17E-05,-5.52E-08
199,-1.85E-05,9.44E-06,3.23E-05,-2.51E-06,1.61E-05,-5.50E-06
200,-1.24E-05,7.53E-06,2.62E-05,-3.76E-05,1.04E-05,-1.79E-06
201,-8.65E-07,5.02E-06,1.79E-05,-1.43E-05,-5.25E-06,4.58E-06
202,1.60E-06,4.00E-06,1.92E-05,7.50E-05,-2.31E-05,6.53E-06
203,-8.44E-06,4.37E-06,2.42E-05,0.000154888,-3.39E-05,3.68E-06
204,-2.26E-05,3.88E-06,2.99E-05,0.000131523,-3.50E-05,-2.05E-07
205,-2.65E-05,2.47E-06,3.51E-05,4.41E-05,-2.89E-05,1.19E-06
206,-1.42E-05,2.17E-06,3.28E-05,-3.59E-06,-2.05E-05,7.65E-06
207,2.30E-06,3.48E-06,2.26E-05,1.61E-05,-1.41E-05,1.34E-05
208,8.47E-06,6.02E-06,1.93E-05,8.56E-05,-8.55E-06,1.50E-05
209,3.42E-06,7.60E-06,2.12E-05,0.000147214,-2.80E-07,1.37E-05
210,-7.29E-06,5.02E-06,2.26E-05,0.000130633,1.20E-05,1.18E-05
211,-1.39E-05,5.96E-07,2.73E-05,4.75E-05,2.63E-05,1.13E-05
212,-8.34E-06,1.14E-06,2.91E-05,-7.57E-06,3.49E-05,1.16E-05
213,2.90E-06,6.94E-06,2.04E-05,-7.81E-06,3.33E-05,1.05E-05
214,7.61E-06,1.09E-05,1.36E-05,5.20E-05,2.60E-05,7.85E-06
215,3.09E-06,9.85E-06,1.51E-05,0.000138437,1.59E-05,6.38E-06
216,-1.06E-05,7.43E-06,2.18E-05,0.00014885,6.17E-06,4.95E-06
217,-2.25E-05,5.51E-06,3.56E-05,6.39E-05,-9.37E-08,3.35E-06
218,-1.61E-05,5.02E-06,4.75E-05,5.81E-07,-3.08E-06,5.85E-06
219,-2.00E-06,4.84E-06,4.45E-05,8.65E-06,-5.78E-06,8.85E-06
220,3.03E-06,6.86E-06,3.15E-05,3.15E-05,-7.97E-06,1.09E-05
221,2.17E-06,1.08E-05,3.21E-05,1.75E-05,-7.53E-06,1.43E-05
222,-1.41E-07,1.23E-05,4.27E-05,1.76E-05,-8.01E-06,1.69E-05
223,8.63E-07,1.28E-05,4.40E-05,7.21E-05,-1.07E-05,1.67E-05
224,-7.49E-07,1.32E-05,3.77E-05,0.000122162,-1.19E-05,1.28E-05
225,-1.18E-05,1.32E-05,3.76E-05,8.52E-05,-1.06E-05,1.01E-05
226,-1.70E-05,1.31E-05,4.15E-05,1.13E-05,-1.11E-05,1.02E-05
227,-7.85E-06,1.27E-05,3.32E-05,-3.15E-05,-1.74E-05,1.12E-05
228,-2.86E-07,1.20E-05,1.84E-05,-1.51E-05,-2.78E-05,1.31E-05
229,4.90E-07,1.31E-05,1.39E-05,6.58E-05,-3.73E-05,1.53E-05
230,-1.68E-06,1.42E-05,1.95E-05,0.000144828,-4.34E-05,1.37E-05
231,-1.01E-05,1.26E-05,2.96E-05,0.00013687,-4.49E-05,8.67E-06
232,-2.08E-05,9.91E-06,3.65E-05,6.45E-05,-4.07E-05,7.19E-06
233,-2.11E-05,8.88E-06,3.25E-05,1.16E-05,-2.80E-05,1.05E-05
234,-1.15E-05,9.49E-06,2.48E-05,1.00E-05,-6.71E-06,1.44E-05
235,-5.66E-06,9.82E-06,2.91E-05,6.29E-05,1.39E-05,1.68E-05
236,-1.06E-05,8.87E-06,3.99E-05,0.000123881,2.11E-05,1.65E-05
237,-2.50E-05,8.35E-06,4.51E-05,0.000116515,1.51E-05,1.32E-05
238,-3.84E-05,1.01E-05,4.63E-05,4.65E-05,7.46E-06,1.31E-05
239,-3.73E-05,1.27E-05,4.01E-05,1.28E-06,3.67E-06,1.80E-05
240,-2.51E-05,1.29E-05,2.67E-05,1.82E-06,4.66E-06,2.03E-05
241,-1.52E-05,1.31E-05,2.40E-05,5.52E-05,7.67E-06,1.67E-05
242,-1.26E-05,1.54E-05,3.15E-05,0.000130148,9.28E-06,1.20E-05
243,-2.32E-05,1.50E-05,3.23E-05,0.000129513,1.10E-05,7.33E-06
244,-3.53E-05,1.29E-05,3.22E-05,4.31E-05,1.09E-05,3.20E-06
245,-2.50E-05,1.27E-05,3.01E-05,-1.41E-05,6.40E-06,4.08E-06
246,-8.27E-06,1.30E-05,1.89E-05,-3.16E-07,-1.84E-06,8.72E-06
247,-4.96E-06,1.55E-05,6.93E-06,2.07E-05,-7.76E-06,1.24E-05
248,-5.11E-06,2.03E-05,6.81E-06,6.78E-07,-4.31E-06,1.55E-05
249,-2.15E-06,2.42E-05,1.26E-05,-2.08E-06,6.30E-06,1.89E-05
250,2.96E-06,2.54E-05,1.27E-05,5.33E-05,1.81E-05,2.00E-05
251,7.18E-07,2.51E-05,1.11E-05,0.000101361,2.90E-05,1.61E-05
252,-1.11E-05,2.44E-05,1.27E-05,6.22E-05,3.93E-05,9.46E-06
253,-1.92E-05,2.25E-05,1.23E-05,-3.35E-06,4.66E-05,5.53E-06
254,-1.35E-05,2.17E-05,-5.56E-07,-3.07E-05,4.65E-05,7.83E-06
255,-2.95E-06,2.28E-05,-1.53E-05,-2.55E-06,3.55E-05,1.29E-05
256,3.28E-06,2.55E-05,-1.58E-05,8.06E-05,1.57E-05,1.62E-05
257,2.24E-06,2.67E-05,-8.16E-06,0.000151312,-7.77E-06,1.60E-05
258,-4.72E-06,2.41E-05,1.27E-07,0.000128467,-2.89E-05,1.19E-05
259,-1.05E-05,2.03E-05,6.86E-06,4.65E-05,-4.75E-05,7.53E-06
260,-8.58E-06,1.83E-05,4.86E-06,-6.81E-06,-6.57E-05,9.19E-06
261,-1.60E-06,1.70E-05,-2.58E-06,-3.60E-06,-7.81E-05,1.75E-05
262,3.43E-06,1.66E-05,-7.83E-07,5.53E-05,-7.41E-05,2.47E-05
263,2.99E-06,1.74E-05,8.40E-06,0.000115256,-5.20E-05,2.39E-05
264,-5.29E-06,1.62E-05,1.60E-05,9.24E-05,-2.54E-05,1.77E-05
265,-1.34E-05,1.23E-05,1.98E-05,4.96E-07,-1.13E-05,1.45E-05
266,-1.00E-05,9.11E-06,1.36E-05,-5.46E-05,-1.52E-05,1.82E-05
267,1.97E-06,8.28E-06,1.13E-06,-4.56E-05,-2.58E-05,2.49E-05
268,6.54E-06,9.31E-06,1.46E-06,2.26E-05,-3.06E-05,2.87E-05
269,1.03E-07,1.15E-05,1.34E-05,0.000107218,-2.79E-05,2.86E-05
270,-1.55E-05,1.20E-05,1.80E-05,0.000113459,-2.43E-05,2.36E-05
271,-3.02E-05,1.17E-05,1.62E-05,3.68E-05,-2.05E-05,1.83E-05
272,-2.76E-05,1.33E-05,1.37E-05,-1.16E-05,-1.32E-05,1.82E-05
273,-1.50E-05,1.60E-05,1.20E-05,1.55E-05,-7.27E-06,1.91E-05
274,-1.08E-05,1.86E-05,5.62E-06,5.70E-05,-7.52E-06,1.80E-05
275,-1.20E-05,2.02E-05,2.64E-06,3.60E-05,-1.32E-05,1.91E-05
276,-9.39E-06,2.13E-05,8.42E-06,1.68E-05,-1.73E-05,2.03E-05
277,-5.22E-06,2.28E-05,1.27E-05,7.23E-05,-1.57E-05,1.96E-05
278,-6.89E-06,2.24E-05,1.44E-05,0.000133899,-1.20E-05,1.65E-05
279,-1.70E-05,1.87E-05,1.61E-05,0.00010714,-1.02E-05,1.32E-05
280,-2.45E-05,1.65E-05,1.45E-05,4.50E-05,-1.10E-05,1.27E-05
281,-1.82E-05,1.73E-05,-3.75E-06,6.37E-06,-1.22E-05,1.60E-05
282,-3.65E-06,1.85E-05,-2.36E-05,1.23E-05,-1.27E-05,2.07E-05
283,4.80E-06,1.88E-05,-2.32E-05,7.67E-05,-1.19E-05,2.30E-05
284,-7.63E-08,1.84E-05,-1.07E-05,0.000141395,-1.32E-05,2.14E-05
285,-1.28E-05,1.76E-05,2.65E-06,0.000123749,-2.04E-05,1.71E-05
286,-1.97E-05,1.66E-05,1.22E-05,4.77E-05,-3.45E-05,1.40E-05
287,-1.30E-05,1.62E-05,1.24E-05,-5.65E-06,-4.96E-05,1.51E-05
288,-2.31E-06,1.62E-05,6.08E-06,-4.73E-06,-5.58E-05,1.79E-05
289,2.21E-06,1.69E-05,6.21E-06,5.65E-05,-5.01E-05,1.88E-05
290,-1.12E-06,1.85E-05,1.31E-05,0.00012596,-3.98E-05,1.72E-05
291,-1.08E-05,1.87E-05,2.20E-05,0.00011714,-3.05E-05,1.26E-05
292,-1.81E-05,1.62E-05,3.26E-05,3.75E-05,-2.07E-05,7.97E-06
293,-1.35E-05,1.26E-05,3.72E-05,-1.42E-05,-9.76E-06,8.82E-06
294,-4.38E-07,9.66E-06,3.15E-05,-9.33E-06,-1.38E-06,1.44E-05
295,9.66E-06,9.34E-06,3.10E-05,5.29E-05,4.78E-06,1.53E-05
296,6.80E-06,1.08E-05,3.71E-05,0.00012862,1.17E-05,9.10E-06
297,-1.16E-05,1.06E-05,4.16E-05,0.00012497,1.56E-05,2.52E-06
298,-2.82E-05,8.33E-06,4.90E-05,3.96E-05,1.42E-05,1.72E-06
299,-2.29E-05,9.00E-06,4.85E-05,-2.06E-05,1.25E-05,8.47E-06
300,-9.59E-06,1.26E-05,3.29E-05,-1.22E-05,1.17E-05,1.26E-05
301,-3.13E-06,1.33E-05,1.61E-05,1.10E-05,1.17E-05,8.95E-06
302,1.05E-06,1.00E-05,1.57E-05,1.53E-07,1.52E-05,6.79E-06
303,2.17E-06,6.62E-06,2.57E-05,5.40E-06,1.85E-05,8.57E-06
304,2.05E-06,8.84E-06,3.18E-05,6.84E-05,1.73E-05,1.28E-05
305,-2.99E-06,1.27E-05,3.28E-05,0.000128593,1.19E-05,1.49E-05
306,-1.65E-05,1.34E-05,3.19E-05,9.78E-05,7.06E-06,1.14E-05
307,-2.55E-05,1.15E-05,3.02E-05,2.69E-05,3.88E-06,6.49E-06
308,-1.82E-05,8.53E-06,1.89E-05,-1.42E-05,2.68E-07,5.82E-06
309,-5.57E-06,6.71E-06,9.42E-06,-8.70E-07,-4.70E-06,7.60E-06
310,3.10E-07,8.41E-06,1.50E-05,6.94E-05,-7.56E-06,1.06E-05
311,-3.50E-06,1.17E-05,2.48E-05,0.000134308,-7.54E-06,1.16E-05
312,-1.40E-05,1.31E-05,3.02E-05,0.000113862,-1.00E-05,7.42E-06
313,-2.12E-05,1.35E-05,3.13E-05,3.69E-05,-1.90E-05,6.06E-06
314,-1.76E-05,1.43E-05,2.35E-05,-1.22E-05,-3.04E-05,1.28E-05
315,-8.47E-06,1.50E-05,1.07E-05,-4.42E-06,-3.60E-05,2.15E-05
316,-1.78E-06,1.45E-05,1.26E-05,5.78E-05,-3.30E-05,2.52E-05
317,-1.49E-06,1.41E-05,2.72E-05,0.000121593,-2.07E-05,2.37E-05
318,-1.10E-05,1.32E-05,3.78E-05,0.000107448,1.05E-05,1.72E-05
319,-2.03E-05,1.07E-05,4.18E-05,2.62E-05,6.92E-05,9.99E-06
320,-1.43E-05,8.22E-06,4.09E-05,-2.34E-05,0.000134452,6.66E-06
321,1.06E-06,8.34E-06,3.57E-05,-1.40E-05,0.000174855,6.94E-06
322,8.99E-06,1.02E-05,3.65E-05,5.37E-05,0.000181454,7.82E-06
323,9.36E-06,1.28E-05,4.62E-05,0.00014126,0.000160855,8.59E-06
324,3.40E-06,1.23E-05,5.33E-05,0.000156158,0.000120274,8.99E-06
325,-3.80E-06,7.07E-06,5.52E-05,8.22E-05,6.10E-05,9.76E-06
326,1.07E-06,4.04E-06,5.15E-05,2.14E-05,-1.82E-05,1.29E-05
327,1.14E-05,5.18E-06,4.66E-05,2.54E-05,-0.000100125,1.30E-05
328,1.59E-05,6.48E-06,4.66E-05,4.94E-05,-0.000162824,1.03E-05
329,1.80E-05,6.29E-06,5.53E-05,4.14E-05,-0.00019574,1.15E-05
330,1.85E-05,7.15E-06,6.80E-05,4.27E-05,-0.000200089,1.27E-05
331,1.78E-05,1.06E-05,7.33E-05,9.19E-05,-0.000186029,1.15E-05
332,9.67E-06,1.34E-05,7.12E-05,0.000131822,-0.000154743,7.98E-06
333,-7.42E-06,1.35E-05,6.54E-05,8.41E-05,-0.000107274,4.38E-06
334,-1.95E-05,1.32E-05,5.85E-05,8.31E-06,-5.18E-05,4.98E-06
335,-1.64E-05,1.31E-05,4.45E-05,-3.31E-05,-6.15E-06,9.91E-06
336,-7.24E-06,1.20E-05,3.28E-05,-2.29E-05,2.71E-05,1.48E-05
337,-2.09E-06,1.07E-05,3.38E-05,4.56E-05,6.14E-05,1.79E-05
338,-5.05E-06,1.03E-05,3.89E-05,0.000111178,9.03E-05,1.57E-05
339,-1.56E-05,9.11E-06,4.46E-05,9.54E-05,9.48E-05,7.98E-06
340,-2.22E-05,5.66E-06,5.00E-05,2.82E-05,6.89E-05,2.87E-06
341,-1.68E-05,2.27E-06,4.76E-05,-9.21E-06,2.57E-05,4.37E-06
342,-6.23E-06,3.10E-06,3.58E-05,5.88E-06,-2.02E-05,8.28E-06
343,2.28E-07,7.21E-06,3.03E-05,7.14E-05,-5.94E-05,9.66E-06
344,-9.02E-07,1.08E-05,3.51E-05,0.000136825,-8.52E-05,8.36E-06
345,-1.22E-05,1.11E-05,4.45E-05,0.000125182,-9.08E-05,6.10E-06
346,-2.43E-05,8.07E-06,5.47E-05,4.74E-05,-7.52E-05,7.19E-06
347,-2.39E-05,4.08E-06,5.64E-05,-2.64E-06,-4.50E-05,1.11E-05
348,-1.13E-05,2.29E-06,4.74E-05,2.20E-06,-1.28E-05,1.44E-05
349,1.12E-06,4.26E-06,4.31E-05,6.21E-05,7.07E-06,1.66E-05
350,1.86E-06,7.62E-06,4.68E-05,0.000137578,5.60E-06,1.86E-05
351,-1.32E-05,9.26E-06,4.99E-05,0.000137296,-9.45E-06,1.66E-05
352,-2.55E-05,8.89E-06,5.17E-05,5.53E-05,-2.34E-05,1.09E-05
353,-1.43E-05,9.38E-06,4.80E-05,-1.08E-06,-2.83E-05,8.96E-06
354,2.09E-06,1.10E-05,4.06E-05,2.00E-05,-2.90E-05,1.27E-05
355,3.15E-06,1.30E-05,3.42E-05,6.03E-05,-2.95E-05,1.51E-05
356,-1.86E-07,1.30E-05,3.74E-05,4.10E-05,-2.51E-05,1.52E-05
357,2.20E-06,1.04E-05,4.58E-05,2.47E-05,-1.62E-05,1.46E-05
358,6.71E-06,9.01E-06,4.81E-05,7.57E-05,-8.19E-06,1.53E-05
359,5.15E-06,9.10E-06,4.79E-05,0.00012429,-5.73E-06,1.64E-05
360,-3.51E-06,7.76E-06,4.98E-05,7.82E-05,-5.66E-06,1.41E-05
361,-7.66E-06,6.41E-06,5.40E-05,-1.69E-06,-3.46E-06,1.24E-05
362,1.61E-06,6.80E-06,4.51E-05,-3.70E-05,2.09E-06,1.49E-05
363,1.37E-05,7.29E-06,3.11E-05,-1.29E-05,7.35E-06,1.82E-05
364,1.73E-05,8.38E-06,3.05E-05,6.39E-05,9.57E-06,1.67E-05
365,9.59E-06,1.00E-05,4.17E-05,0.00012858,9.78E-06,1.16E-05
366,-5.19E-06,9.07E-06,5.40E-05,0.000104433,8.96E-06,6.12E-06
367,-1.65E-05,5.76E-06,5.84E-05,2.39E-05,6.20E-06,5.47E-06
368,-1.44E-05,3.00E-06,5.10E-05,-2.52E-05,2.59E-06,1.17E-05
369,-2.85E-06,3.63E-06,3.85E-05,-1.44E-05,-5.31E-07,1.84E-05
370,5.88E-06,7.45E-06,3.56E-05,5.51E-05,-5.51E-06,1.90E-05
371,4.49E-06,1.10E-05,3.79E-05,0.000127995,-1.23E-05,1.40E-05
372,-7.75E-06,1.24E-05,3.81E-05,0.000118243,-1.54E-05,7.10E-06
373,-1.92E-05,1.23E-05,3.94E-05,3.57E-05,-9.46E-06,1.94E-06
374,-1.74E-05,1.07E-05,3.80E-05,-1.81E-05,3.56E-06,8.41E-07
375,-8.10E-06,8.12E-06,2.94E-05,-1.39E-05,1.77E-05,5.70E-06
376,-5.06E-06,6.41E-06,2.86E-05,5.10E-05,2.66E-05,1.05E-05
377,-8.90E-06,6.90E-06,3.59E-05,0.000135281,2.82E-05,9.54E-06
378,-1.98E-05,1.03E-05,4.05E-05,0.000136256,2.49E-05,6.31E-06
379,-2.96E-05,1.10E-05,4.48E-05,4.44E-05,1.88E-05,5.59E-06
380,-2.32E-05,9.40E-06,4.73E-05,-2.63E-05,1.24E-05,1.19E-05
381,-8.60E-06,8.30E-06,4.29E-05,-1.88E-05,8.42E-06,1.81E-05
382,-2.19E-06,7.23E-06,3.54E-05,1.63E-05,4.24E-06,1.60E-05
383,6.70E-07,8.26E-06,3.76E-05,1.22E-05,-3.93E-06,1.15E-05
384,2.01E-06,9.76E-06,4.70E-05,1.16E-05,-1.12E-05,9.67E-06
385,-3.19E-07,1.23E-05,5.18E-05,6.48E-05,-1.44E-05,1.06E-05
386,-7.79E-06,1.60E-05,5.00E-05,0.000115812,-1.69E-05,1.22E-05
387,-2.16E-05,1.90E-05,4.60E-05,8.50E-05,-1.99E-05,1.14E-05
388,-2.96E-05,1.99E-05,4.19E-05,1.97E-05,-2.13E-05,1.07E-05
389,-2.13E-05,1.95E-05,3.20E-05,-1.60E-05,-1.97E-05,1.18E-05
390,-6.02E-06,1.99E-05,2.44E-05,1.50E-06,-1.79E-05,1.50E-05
391,2.42E-06,2.11E-05,2.98E-05,7.28E-05,-1.77E-05,2.11E-05
392,-9.03E-07,2.18E-05,4.38E-05,0.00013256,-1.76E-05,2.73E-05
393,-1.28E-05,2.01E-05,5.79E-05,0.000106729,-1.44E-05,3.00E-05
394,-2.17E-05,1.71E-05,6.54E-05,2.92E-05,-8.31E-06,2.77E-05
395,-1.69E-05,1.45E-05,6.16E-05,-2.27E-05,-2.83E-06,2.45E-05
396,-4.67E-06,1.33E-05,5.22E-05,-2.49E-05,-1.35E-06,2.36E-05
397,2.41E-06,1.36E-05,5.50E-05,3.17E-05,-3.68E-06,2.32E-05
398,4.52E-07,1.49E-05,6.66E-05,0.000104473,-5.91E-06,2.04E-05
399,-1.09E-05,1.62E-05,7.00E-05,0.000101738,-6.01E-06,1.79E-05
400,-2.18E-05,1.72E-05,6.42E-05,1.97E-05,-5.87E-06,1.78E-05
401,-2.04E-05,1.81E-05,5.49E-05,-3.83E-05,-5.83E-06,1.70E-05
402,-1.16E-05,1.89E-05,4.39E-05,-3.84E-05,-6.06E-06,1.41E-05
403,-7.23E-06,2.12E-05,4.51E-05,1.96E-05,-8.67E-06,1.26E-05
404,-1.08E-05,2.37E-05,5.61E-05,9.82E-05,-1.34E-05,1.45E-05
405,-2.40E-05,2.34E-05,6.04E-05,0.000100596,-1.70E-05,1.39E-05
406,-3.63E-05,1.91E-05,6.08E-05,2.16E-05,-1.52E-05,1.05E-05
407,-2.64E-05,1.48E-05,5.44E-05,-2.95E-05,-1.10E-05,1.00E-05
408,-7.92E-06,1.46E-05,4.12E-05,-1.63E-05,-1.42E-05,1.03E-05
409,-9.99E-07,1.67E-05,2.93E-05,7.36E-06,-2.74E-05,9.41E-06
410,-1.50E-07,1.74E-05,2.20E-05,-1.48E-06,-4.28E-05,8.55E-06
411,-1.33E-06,1.56E-05,1.60E-05,6.04E-06,-5.41E-05,9.29E-06
412,-1.89E-06,1.50E-05,6.77E-06,6.79E-05,-6.17E-05,1.11E-05
413,-8.83E-06,1.61E-05,-1.61E-06,0.000123373,-6.77E-05,1.13E-05
414,-2.55E-05,1.64E-05,-1.55E-06,8.94E-05,-7.02E-05,1.01E-05
415,-3.52E-05,1.63E-05,6.89E-06,2.31E-05,-6.34E-05,9.58E-06
416,-2.45E-05,1.56E-05,7.48E-06,-8.62E-06,-4.52E-05,1.22E-05
417,-6.46E-06,1.29E-05,5.10E-06,6.61E-06,-1.97E-05,1.51E-05
418,3.35E-06,1.14E-05,1.35E-05,7.22E-05,5.70E-06,1.52E-05
419,-1.55E-07,1.32E-05,2.58E-05,0.000134264,2.55E-05,1.20E-05
420,-1.29E-05,1.49E-05,3.57E-05,0.000118087,3.92E-05,8.68E-06
421,-2.12E-05,1.47E-05,4.21E-05,5.07E-05,4.75E-05,7.72E-06
422,-1.69E-05,1.36E-05,3.97E-05,4.89E-06,4.88E-05,9.89E-06
423,-9.47E-06,1.33E-05,2.75E-05,3.00E-06,4.36E-05,1.38E-05
424,-8.75E-06,1.36E-05,1.81E-05,5.69E-05,3.73E-05,1.71E-05
425,-1.12E-05,1.34E-05,1.43E-05,0.000127227,3.15E-05,1.75E-05
426,-1.43E-05,1.32E-05,1.36E-05,0.000124954,2.45E-05,1.52E-05
427,-1.49E-05,1.31E-05,1.61E-05,4.49E-05,1.69E-05,1.43E-05
428,-6.76E-06,1.33E-05,1.26E-05,-1.83E-05,1.11E-05,1.56E-05
429,4.25E-06,1.41E-05,-1.41E-06,-2.50E-05,7.18E-06,1.52E-05
430,8.81E-06,1.51E-05,-1.01E-05,3.68E-05,3.09E-06,1.28E-05
431,7.97E-06,1.61E-05,-1.04E-05,0.000125304,-1.25E-06,1.32E-05
432,-5.11E-06,1.57E-05,-1.25E-05,0.000134173,-4.97E-06,1.25E-05
433,-2.06E-05,1.50E-05,-1.04E-05,4.93E-05,-6.10E-06,9.79E-06
434,-1.56E-05,1.65E-05,-5.50E-06,-1.37E-05,-2.38E-06,1.16E-05
435,-2.89E-06,1.77E-05,-7.88E-06,-8.61E-07,2.99E-06,1.60E-05
436,1.83E-06,1.80E-05,-1.30E-05,2.69E-05,4.87E-06,1.80E-05
437,7.31E-06,1.66E-05,-7.82E-06,1.72E-05,8.42E-06,1.68E-05
438,1.61E-05,1.63E-05,-2.12E-06,2.60E-05,1.48E-05,1.41E-05
439,1.81E-05,1.91E-05,-1.10E-05,9.29E-05,1.72E-05,1.36E-05
440,5.62E-06,2.10E-05,-2.46E-05,0.000150891,1.02E-05,1.26E-05
441,-1.30E-05,1.97E-05,-2.68E-05,0.000114819,-5.04E-06,7.58E-06
442,-2.06E-05,1.71E-05,-2.21E-05,4.51E-05,-2.03E-05,2.04E-06
443,-1.18E-05,1.55E-05,-3.11E-05,6.87E-06,-3.38E-05,1.44E-06
444,-1.66E-06,1.52E-05,-4.47E-05,1.51E-05,-4.51E-05,4.02E-06
445,7.19E-07,1.56E-05,-3.90E-05,7.89E-05,-5.25E-05,6.41E-06
446,-4.91E-06,1.56E-05,-1.94E-05,0.000143661,-5.53E-05,6.30E-06
447,-1.41E-05,1.23E-05,-1.53E-06,0.000126619,-5.24E-05,4.41E-06
448,-1.58E-05,6.31E-06,5.78E-06,4.79E-05,-4.15E-05,4.42E-06
449,-3.78E-06,2.55E-06,1.10E-06,-8.48E-06,-2.38E-05,6.70E-06
450,1.04E-05,4.19E-06,-6.84E-06,-5.92E-06,-7.12E-06,7.44E-06
451,1.32E-05,8.79E-06,-3.74E-06,6.05E-05,1.21E-06,7.43E-06
452,4.47E-06,1.15E-05,5.64E-06,0.000137835,1.17E-06,8.44E-06
453,-8.38E-06,9.71E-06,1.12E-05,0.000137386,-1.96E-06,8.57E-06
454,-1.25E-05,4.80E-06,1.63E-05,6.28E-05,-2.43E-06,8.86E-06
455,-3.87E-06,2.32E-06,1.90E-05,1.17E-05,1.09E-06,1.09E-05
456,7.44E-06,5.22E-06,1.69E-05,1.36E-05,2.67E-06,1.25E-05
457,1.15E-05,9.61E-06,2.02E-05,7.07E-05,-4.73E-08,1.17E-05
458,9.16E-06,1.11E-05,2.70E-05,0.000141767,-2.80E-06,1.09E-05
459,-1.18E-06,1.04E-05,2.78E-05,0.000135419,-1.81E-06,9.48E-06
460,-1.22E-05,8.90E-06,2.99E-05,4.97E-05,5.45E-09,7.93E-06
461,-9.90E-06,7.30E-06,3.18E-05,-3.09E-06,-1.40E-06,6.72E-06
462,-3.12E-06,7.26E-06,2.26E-05,1.73E-05,-4.09E-06,4.48E-06
463,-2.72E-06,9.97E-06,8.67E-06,4.26E-05,-4.45E-06,2.14E-06
464,1.45E-06,1.29E-05,5.82E-06,2.54E-05,-3.60E-06,2.10E-06
465,8.82E-06,1.46E-05,1.22E-05,2.39E-05,-4.68E-06,5.64E-06
466,1.01E-05,1.63E-05,1.76E-05,8.08E-05,-6.00E-06,8.59E-06
467,-4.66E-07,1.74E-05,1.79E-05,0.000136938,-6.81E-06,6.34E-06
468,-1.89E-05,1.71E-05,1.90E-05,0.000107914,-7.21E-06,4.67E-07
469,-2.75E-05,1.61E-05,1.93E-05,4.19E-05,-8.22E-06,1.49E-07
470,-1.69E-05,1.54E-05,7.47E-06,-2.27E-06,-1.14E-05,6.26E-06
471,-2.39E-06,1.66E-05,-3.81E-06,2.82E-07,-1.40E-05,1.33E-05
472,2.26E-06,2.04E-05,2.90E-06,6.44E-05,-1.50E-05,1.79E-05
473,-3.66E-06,2.28E-05,1.64E-05,0.000131064,-1.37E-05,1.74E-05
474,-1.33E-05,2.04E-05,2.33E-05,0.000114688,-1.01E-05,1.35E-05
475,-1.49E-05,1.74E-05,2.12E-05,4.12E-05,-6.98E-06,1.33E-05
476,-5.26E-06,1.69E-05,1.05E-05,-5.72E-06,-6.93E-06,1.93E-05
477,6.32E-06,1.69E-05,-9.98E-07,2.06E-07,-8.79E-06,2.51E-05
478,1.11E-05,1.56E-05,8.06E-07,6.19E-05,-9.73E-06,2.67E-05
479,6.93E-06,1.38E-05,1.21E-05,0.000133922,-9.47E-06,2.42E-05
480,-7.44E-06,1.29E-05,2.13E-05,0.000133357,-8.87E-06,1.74E-05
481,-2.01E-05,1.28E-05,2.47E-05,6.05E-05,-7.67E-06,1.03E-05
482,-1.52E-05,1.26E-05,1.81E-05,4.44E-06,-6.13E-06,8.19E-06
483,7.60E-07,1.10E-05,6.44E-06,-4.02E-06,-7.14E-06,9.40E-06
484,8.46E-06,1.01E-05,7.87E-06,4.82E-05,-1.22E-05,1.27E-05
485,3.43E-06,1.28E-05,2.11E-05,0.000128403,-1.67E-05,1.59E-05
486,-1.11E-05,1.57E-05,2.79E-05,0.000138029,-1.67E-05,1.55E-05
487,-1.98E-05,1.42E-05,2.73E-05,6.46E-05,-1.40E-05,1.31E-05
488,-8.74E-06,1.11E-05,1.82E-05,1.28E-05,-1.07E-05,1.58E-05
489,5.27E-06,1.02E-05,5.93E-06,2.31E-05,-8.87E-06,2.01E-05
490,9.48E-06,1.20E-05,2.05E-06,4.64E-05,-7.41E-06,2.10E-05
491,1.24E-05,1.27E-05,1.45E-05,3.80E-05,-5.19E-06,2.10E-05
492,1.68E-05,1.08E-05,3.21E-05,4.04E-05,-2.98E-06,2.17E-05
493,1.76E-05,1.00E-05,3.75E-05,8.68E-05,-4.32E-06,2.58E-05
494,8.38E-06,1.06E-05,3.50E-05,0.000125153,-1.32E-05,2.99E-05
495,-9.99E-06,9.89E-06,3.50E-05,8.37E-05,-2.60E-05,2.96E-05
496,-1.89E-05,8.61E-06,3.78E-05,1.44E-05,-3.75E-05,2.63E-05
497,-7.62E-06,6.69E-06,2.98E-05,-2.63E-05,-4.47E-05,2.33E-05
498,7.06E-06,5.16E-06,1.62E-05,-1.91E-05,-4.50E-05,2.11E-05
499,1.06E-05,6.88E-06,1.42E-05,4.61E-05,-3.87E-05,1.88E-05
500,1.76E-06,1.06E-05,2.32E-05,0.000112813,-2.75E-05,1.55E-05
501,-1.25E-05,1.12E-05,3.40E-05,9.66E-05,-1.34E-05,8.97E-06
502,-1.92E-05,7.99E-06,3.95E-05,1.99E-05,1.46E-06,8.02E-07
503,-1.09E-05,4.55E-06,3.27E-05,-3.03E-05,1.46E-05,-1.99E-06
504,6.45E-07,1.97E-06,1.87E-05,-2.35E-05,2.56E-05,4.01E-06
505,2.70E-06,1.72E-06,1.53E-05,3.66E-05,3.33E-05,1.26E-05
506,-2.55E-06,5.88E-06,2.18E-05,0.000105174,3.34E-05,1.52E-05
507,-1.07E-05,1.13E-05,2.59E-05,0.000109523,2.45E-05,1.10E-05
508,-1.57E-05,1.39E-05,2.76E-05,4.75E-05,1.19E-05,8.22E-06
509,-1.02E-05,1.49E-05,2.76E-05,1.83E-07,1.08E-06,1.38E-05
510,-6.09E-07,1.52E-05,2.15E-05,-3.81E-06,-8.03E-06,2.20E-05
511,3.85E-07,1.57E-05,1.88E-05,5.24E-05,-1.68E-05,2.39E-05
512,-8.34E-06,1.81E-05,2.23E-05,0.00013306,-2.07E-05,1.98E-05
513,-2.41E-05,1.95E-05,2.61E-05,0.000133757,-1.53E-05,1.28E-05
514,-3.24E-05,1.68E-05,3.65E-05,5.01E-05,-5.29E-06,7.95E-06
515,-2.02E-05,1.21E-05,4.81E-05,-6.22E-07,-9.62E-07,9.21E-06
516,-4.77E-06,1.03E-05,5.19E-05,1.22E-05,-4.67E-06,1.26E-05
517,-2.26E-06,1.21E-05,5.12E-05,3.34E-05,-7.73E-06,1.49E-05
518,-4.51E-06,1.40E-05,5.35E-05,2.37E-05,-7.96E-06,1.62E-05
519,-4.25E-06,1.46E-05,6.01E-05,2.52E-05,-8.81E-06,1.59E-05
520,-5.86E-07,1.51E-05,6.35E-05,7.71E-05,-1.09E-05,1.44E-05
521,-1.52E-06,1.68E-05,6.24E-05,0.0001195,-1.28E-05,1.37E-05
522,-1.13E-05,1.76E-05,6.21E-05,7.42E-05,-1.37E-05,1.36E-05
523,-1.82E-05,1.79E-05,6.30E-05,3.08E-06,-1.26E-05,1.47E-05
524,-1.19E-05,1.75E-05,5.45E-05,-3.26E-05,-1.10E-05,1.51E-05
525,6.50E-07,1.53E-05,4.01E-05,-1.89E-05,-1.05E-05,1.02E-05
526,8.25E-06,1.33E-05,3.56E-05,5.35E-05,-4.37E-06,4.44E-06
527,3.76E-06,1.36E-05,4.08E-05,0.000126846,2.13E-05,3.42E-06
528,-9.29E-06,1.54E-05,4.93E-05,0.000112947,6.49E-05,5.60E-06
529,-1.80E-05,1.71E-05,5.52E-05,3.49E-05,0.000100294,8.17E-06
530,-1.34E-05,1.72E-05,5.28E-05,-1.95E-05,0.000107006,1.29E-05
531,-5.94E-07,1.58E-05,4.36E-05,-1.58E-05,8.34E-05,1.83E-05
532,9.21E-06,1.49E-05,3.98E-05,4.72E-05,3.77E-05,1.80E-05
533,9.33E-06,1.49E-05,4.20E-05,0.000116902,-1.70E-05,1.03E-05
534,-2.06E-06,1.36E-05,4.27E-05,0.000109834,-6.54E-05,1.61E-06
535,-1.42E-05,1.16E-05,4.37E-05,3.11E-05,-9.70E-05,-6.79E-07
536,-1.28E-05,1.17E-05,4.34E-05,-2.77E-05,-0.000105396,4.21E-06
537,-2.95E-06,1.27E-05,3.73E-05,-3.45E-05,-9.06E-05,1.01E-05
538,-1.52E-07,1.28E-05,3.50E-05,2.07E-05,-6.44E-05,1.25E-05
539,-5.07E-06,1.40E-05,3.59E-05,9.78E-05,-4.65E-05,1.39E-05
540,-1.53E-05,1.64E-05,2.97E-05,9.65E-05,-4.71E-05,1.39E-05
541,-2.24E-05,1.51E-05,2.53E-05,5.31E-06,-5.85E-05,1.17E-05
542,-1.26E-05,1.10E-05,2.47E-05,-5.79E-05,-6.43E-05,1.07E-05
543,1.29E-06,8.88E-06,2.10E-05,-4.69E-05,-5.70E-05,1.26E-05
544,4.60E-06,7.02E-06,1.35E-05,-1.91E-05,-4.27E-05,1.50E-05
545,6.47E-06,3.58E-06,1.50E-05,-1.86E-05,-3.26E-05,1.71E-05
546,9.11E-06,1.73E-06,2.36E-05,1.66E-06,-2.37E-05,2.03E-05
547,8.78E-06,5.36E-06,2.57E-05,7.05E-05,-9.03E-06,2.36E-05
548,7.32E-07,9.78E-06,2.35E-05,0.000125122,5.11E-06,2.42E-05
549,-1.38E-05,9.15E-06,2.69E-05,8.86E-05,1.09E-05,2.04E-05
550,-1.99E-05,5.87E-06,3.18E-05,2.12E-05,8.87E-06,1.52E-05
551,-1.11E-05,3.99E-06,2.27E-05,-9.71E-06,3.94E-06,1.25E-05
552,-4.51E-07,3.44E-06,1.07E-05,1.18E-05,1.96E-07,1.22E-05
553,3.17E-06,4.70E-06,1.41E-05,8.76E-05,-2.75E-06,1.06E-05
554,-3.97E-07,7.92E-06,2.52E-05,0.000154537,-9.40E-06,7.25E-06
555,-9.98E-06,9.85E-06,3.42E-05,0.000134901,-2.07E-05,6.88E-06
556,-1.97E-05,9.33E-06,4.09E-05,5.56E-05,-3.22E-05,1.14E-05
557,-1.92E-05,6.24E-06,4.11E-05,2.75E-08,-3.93E-05,1.59E-05
558,-8.38E-06,2.04E-06,3.43E-05,4.91E-06,-4.15E-05,1.59E-05
559,9.52E-07,1.20E-06,3.28E-05,7.39E-05,-3.97E-05,1.23E-05
560,3.73E-07,6.18E-06,3.77E-05,0.000144401,-3.44E-05,7.77E-06
561,-9.50E-06,1.22E-05,4.06E-05,0.000130851,-2.51E-05,3.13E-06
562,-1.69E-05,1.52E-05,4.11E-05,4.92E-05,-1.25E-05,1.23E-06
563,-8.84E-06,1.58E-05,3.60E-05,-4.01E-06,2.04E-06,5.33E-06
564,7.54E-06,1.46E-05,2.70E-05,-7.46E-06,1.63E-05,1.24E-05
565,1.58E-05,1.44E-05,2.83E-05,4.03E-05,2.62E-05,1.62E-05
566,1.19E-05,1.63E-05,3.65E-05,0.000110528,3.04E-05,1.64E-05
567,-3.50E-06,1.66E-05,3.84E-05,0.000111642,2.98E-05,1.56E-05
568,-1.66E-05,1.53E-05,4.04E-05,3.30E-05,2.51E-05,1.55E-05
569,-1.38E-05,1.43E-05,4.28E-05,-1.87E-05,1.84E-05,1.67E-05
570,-9.97E-06,1.08E-05,3.76E-05,-7.94E-06,1.07E-05,1.71E-05
571,-1.56E-05,9.39E-06,2.74E-05,1.06E-05,7.65E-06,1.94E-05
572,-1.55E-05,1.06E-05,2.76E-05,1.75E-06,8.24E-06,2.16E-05
573,-7.65E-06,1.06E-05,3.64E-05,1.88E-05,8.63E-06,2.13E-05
574,-4.75E-06,1.15E-05,3.89E-05,9.20E-05,2.42E-05,2.09E-05
575,-1.29E-05,1.37E-05,3.57E-05,0.000152727,6.19E-05,1.83E-05
576,-2.78E-05,1.59E-05,3.48E-05,0.000118385,0.000101951,1.48E-05
577,-3.37E-05,1.70E-05,3.11E-05,4.19E-05,0.000125956,1.54E-05
578,-2.21E-05,1.68E-05,1.48E-05,-1.05E-05,0.000127444,1.90E-05
579,-8.02E-06,1.61E-05,2.62E-06,-1.40E-05,0.000111406,1.89E-05
580,-4.98E-06,1.62E-05,9.61E-06,4.07E-05,8.28E-05,1.61E-05
581,-1.15E-05,1.68E-05,2.64E-05,0.000105563,3.61E-05,1.43E-05
582,-1.94E-05,1.61E-05,4.09E-05,0.000104607,-2.75E-05,1.21E-05
583,-1.99E-05,1.38E-05,4.67E-05,4.95E-05,-9.51E-05,1.00E-05
584,-1.20E-05,1.09E-05,4.31E-05,6.19E-06,-0.000152235,1.29E-05
585,-3.52E-06,8.54E-06,3.86E-05,2.21E-06,-0.000189212,1.84E-05
586,-7.75E-07,7.93E-06,4.14E-05,5.15E-05,-0.000200147,1.94E-05
587,-3.54E-06,9.63E-06,4.28E-05,0.000115669,-0.000184739,1.43E-05
588,-1.15E-05,1.13E-05,3.90E-05,0.000107347,-0.000145409,7.40E-06
589,-1.72E-05,1.04E-05,3.62E-05,2.43E-05,-9.03E-05,5.29E-06
590,-1.25E-05,8.53E-06,2.88E-05,-3.25E-05,-3.56E-05,8.16E-06
591,-2.82E-06,8.75E-06,1.78E-05,-3.04E-05,2.02E-06,9.00E-06
592,7.42E-07,1.11E-05,2.06E-05,3.55E-05,1.56E-05,6.03E-06
593,-3.64E-06,1.31E-05,3.33E-05,0.000128011,1.12E-05,1.20E-06
594,-1.58E-05,1.31E-05,3.84E-05,0.000142694,1.47E-06,-5.77E-06
595,-2.63E-05,9.95E-06,4.10E-05,6.39E-05,-5.70E-06,-7.23E-06
596,-1.93E-05,7.19E-06,4.10E-05,8.22E-06,-7.02E-06,5.53E-07
597,-1.00E-05,7.97E-06,3.44E-05,1.43E-05,-4.58E-06,9.16E-06
598,-1.28E-05,1.11E-05,2.47E-05,2.20E-05,-2.59E-06,1.40E-05
599,-1.21E-05,1.33E-05,2.03E-05,-3.28E-07,-1.99E-06,1.71E-05
600,-2.74E-06,1.33E-05,2.45E-05,9.12E-07,-3.33E-06,1.61E-05
601,8.14E-06,1.31E-05,2.93E-05,5.99E-05,-4.95E-06,1.28E-05
602,8.01E-06,1.39E-05,3.19E-05,0.000116141,-7.80E-06,1.03E-05
603,-6.80E-06,1.55E-05,3.21E-05,8.27E-05,-9.20E-06,7.29E-06
604,-1.73E-05,1.72E-05,3.06E-05,1.13E-05,-5.82E-06,6.36E-06
605,-9.91E-06,1.94E-05,2.09E-05,-2.39E-05,1.62E-06,9.89E-06
606,1.73E-06,2.06E-05,1.04E-05,-4.61E-06,8.12E-06,1.27E-05
607,5.69E-06,2.15E-05,1.24E-05,6.84E-05,1.04E-05,1.26E-05
608,4.82E-07,2.30E-05,1.91E-05,0.000136928,1.04E-05,1.20E-05
609,-1.21E-05,2.14E-05,2.36E-05,0.000122963,9.66E-06,9.96E-06
610,-2.31E-05,1.52E-05,2.44E-05,5.21E-05,6.84E-06,6.46E-06
611,-2.22E-05,8.45E-06,1.80E-05,6.79E-06,7.10E-07,5.01E-06
612,-1.24E-05,6.84E-06,7.65E-06,1.72E-05,-5.22E-06,8.95E-06
613,-4.53E-06,9.24E-06,7.28E-06,8.13E-05,-6.04E-06,1.60E-05
614,-5.12E-06,1.03E-05,1.48E-05,0.000145244,1.13E-06,2.08E-05
615,-1.46E-05,8.25E-06,2.11E-05,0.000131732,1.29E-05,2.05E-05
616,-2.17E-05,6.79E-06,2.62E-05,5.15E-05,2.39E-05,1.76E-05
617,-1.50E-05,8.43E-06,2.62E-05,-2.82E-06,3.32E-05,1.69E-05
618,6.50E-07,1.20E-05,1.81E-05,-7.99E-06,4.23E-05,1.98E-05
619,9.21E-06,1.42E-05,1.95E-05,4.24E-05,4.93E-05,2.26E-05
620,2.76E-06,1.36E-05,3.33E-05,0.000122135,5.09E-05,2.13E-05
621,-1.44E-05,1.08E-05,4.08E-05,0.000132287,4.23E-05,1.51E-05
622,-2.37E-05,7.85E-06,4.18E-05,5.55E-05,2.50E-05,1.04E-05
623,-1.00E-05,8.29E-06,4.01E-05,-2.11E-06,2.10E-06,1.00E-05
624,7.90E-06,9.18E-06,3.33E-05,7.26E-06,-2.30E-05,1.00E-05
625,1.09E-05,6.46E-06,2.60E-05,3.02E-05,-4.59E-05,8.72E-06
626,9.37E-06,2.10E-06,3.15E-05,1.72E-05,-6.80E-05,8.63E-06
627,1.11E-05,2.75E-06,4.56E-05,2.31E-05,-8.64E-05,9.80E-06
628,1.24E-05,9.12E-06,5.41E-05,8.17E-05,-8.98E-05,1.10E-05
629,2.89E-06,1.35E-05,5.46E-05,0.000126106,-7.13E-05,1.20E-05
630,-1.53E-05,1.22E-05,5.46E-05,8.24E-05,-4.04E-05,1.39E-05
631,-2.30E-05,8.26E-06,5.40E-05,1.45E-05,-1.56E-05,1.84E-05
632,-1.01E-05,6.95E-06,4.11E-05,-1.65E-05,-8.05E-06,2.17E-05
633,7.54E-06,8.42E-06,2.80E-05,9.19E-07,-1.03E-05,2.23E-05
634,1.36E-05,1.23E-05,2.96E-05,7.50E-05,-7.86E-06,2.18E-05
635,6.24E-06,1.72E-05,3.46E-05,0.000148282,1.95E-06,2.04E-05
636,-7.98E-06,1.94E-05,3.35E-05,0.000136413,1.19E-05,1.90E-05
637,-1.62E-05,1.78E-05,2.71E-05,6.08E-05,1.68E-05,2.01E-05
638,-1.25E-05,1.62E-05,1.65E-05,5.57E-06,1.61E-05,2.34E-05
639,-3.76E-06,1.81E-05,8.30E-06,8.21E-06,1.16E-05,2.40E-05
640,3.36E-07,2.23E-05,1.41E-05,7.38E-05,8.39E-06,2.16E-05
641,-4.07E-06,2.51E-05,2.90E-05,0.000148025,1.00E-05,1.93E-05
642,-1.72E-05,2.34E-05,4.25E-05,0.000142933,1.27E-05,1.45E-05
643,-2.89E-05,1.88E-05,5.37E-05,6.28E-05,9.61E-06,6.17E-06
644,-2.59E-05,1.53E-05,5.63E-05,6.96E-06,3.03E-07,5.50E-07
645,-1.35E-05,1.67E-05,4.52E-05,7.61E-06,-9.40E-06,8.17E-07
646,-8.74E-06,2.03E-05,3.86E-05,6.73E-05,-1.02E-05,3.08E-06
647,-1.43E-05,1.97E-05,4.43E-05,0.000146922,-1.04E-07,1.24E-06
648,-2.75E-05,1.58E-05,4.98E-05,0.000149827,9.28E-06,-5.94E-06
649,-3.58E-05,1.35E-05,5.02E-05,6.54E-05,1.25E-05,-1.09E-05
650,-2.49E-05,1.27E-05,4.17E-05,1.77E-09,1.11E-05,-6.27E-06
651,-8.96E-06,1.24E-05,2.80E-05,4.35E-06,2.86E-07,9.81E-07
652,-4.97E-06,1.21E-05,1.66E-05,3.25E-05,-1.88E-05,3.67E-06
653,-2.60E-06,8.76E-06,1.71E-05,3.19E-05,-3.71E-05,7.02E-06
654,3.42E-06,4.81E-06,2.90E-05,3.89E-05,-4.61E-05,1.31E-05
655,5.78E-06,6.09E-06,3.63E-05,9.20E-05,-4.73E-05,1.76E-05
656,-2.12E-06,1.21E-05,3.34E-05,0.000138122,-4.68E-05,1.50E-05
657,-1.76E-05,1.61E-05,3.07E-05,9.50E-05,-4.46E-05,7.33E-06
658,-2.49E-05,1.37E-05,3.41E-05,1.71E-05,-3.86E-05,3.13E-06
659,-1.36E-05,8.85E-06,2.80E-05,-2.88E-05,-2.66E-05,8.44E-06
660,3.93E-06,6.55E-06,1.61E-05,-2.03E-05,-1.05E-05,1.66E-05
661,1.21E-05,8.09E-06,1.26E-05,5.05E-05,3.06E-06,1.95E-05
662,6.65E-06,9.99E-06,1.54E-05,0.000118076,7.34E-06,1.67E-05
663,-5.81E-06,1.02E-05,2.08E-05,9.37E-05,1.73E-06,1.22E-05
664,-1.10E-05,1.04E-05,2.49E-05,7.32E-06,-7.61E-06,1.04E-05
665,-5.32E-06,1.12E-05,2.17E-05,-4.59E-05,-1.37E-05,1.18E-05
666,2.31E-06,1.23E-05,1.48E-05,-3.44E-05,-1.47E-05,1.26E-05
667,4.78E-06,1.30E-05,1.86E-05,3.23E-05,-1.29E-05,1.02E-05
668,7.53E-07,1.09E-05,2.92E-05,9.68E-05,-8.66E-06,7.16E-06
669,-9.46E-06,6.64E-06,3.47E-05,8.62E-05,-1.10E-06,5.63E-06
670,-1.48E-05,5.14E-06,3.53E-05,1.57E-05,7.59E-06,6.80E-06
671,-6.02E-06,7.15E-06,3.11E-05,-2.47E-05,1.58E-05,1.09E-05
672,8.33E-06,8.25E-06,2.12E-05,-1.44E-05,2.31E-05,1.71E-05
673,1.57E-05,8.14E-06,1.64E-05,4.86E-05,2.54E-05,2.18E-05
674,9.86E-06,1.13E-05,1.95E-05,0.00012838,1.91E-05,1.90E-05
675,-1.01E-05,1.56E-05,2.23E-05,0.000131299,7.18E-06,8.58E-06
676,-2.57E-05,1.57E-05,2.74E-05,4.80E-05,-5.77E-07,2.73E-06
677,-1.86E-05,1.34E-05,3.10E-05,-1.33E-05,-2.18E-06,9.61E-06
678,-4.27E-06,9.55E-06,2.59E-05,-5.73E-06,-3.61E-06,1.92E-05
679,-1.36E-06,7.04E-06,2.14E-05,2.30E-05,-4.39E-06,2.31E-05
680,-2.57E-06,8.68E-06,2.67E-05,2.33E-05,-3.40E-06,2.14E-05
681,-2.62E-06,1.09E-05,3.54E-05,3.18E-05,-1.83E-06,1.61E-05
682,-3.22E-06,1.30E-05,3.86E-05,8.45E-05,-3.59E-06,1.44E-05
683,-8.83E-06,1.47E-05,3.62E-05,0.000125489,-7.05E-06,1.67E-05
684,-1.96E-05,1.35E-05,3.28E-05,7.72E-05,-6.44E-06,1.82E-05
685,-2.38E-05,1.14E-05,3.08E-05,-1.06E-06,-3.39E-06,1.79E-05
686,-1.62E-05,1.19E-05,2.46E-05,-3.86E-05,-1.72E-06,1.83E-05
687,-6.64E-06,1.45E-05,1.94E-05,-1.49E-05,-1.83E-06,2.09E-05
688,-2.37E-06,1.81E-05,2.57E-05,6.60E-05,6.59E-06,2.16E-05
689,-4.20E-06,2.20E-05,3.40E-05,0.000135957,3.45E-05,1.88E-05
690,-1.17E-05,2.32E-05,3.27E-05,0.000118491,7.42E-05,1.60E-05
691,-1.70E-05,2.14E-05,2.55E-05,4.81E-05,0.000101868,1.73E-05
692,-1.10E-05,1.83E-05,1.92E-05,5.93E-06,0.000100132,2.02E-05
693,2.07E-06,1.63E-05,1.60E-05,1.26E-05,6.96E-05,2.17E-05
694,9.19E-06,1.61E-05,2.14E-05,6.81E-05,2.23E-05,2.39E-05
695,5.32E-06,1.72E-05,2.82E-05,0.000130765,-2.97E-05,2.70E-05
696,-7.32E-06,1.79E-05,2.53E-05,0.00012197,-7.56E-05,2.58E-05
697,-1.77E-05,1.58E-05,1.68E-05,4.49E-05,-0.000101317,2.11E-05
698,-1.32E-05,1.20E-05,4.97E-06,-7.08E-06,-0.000100059,1.87E-05
699,-4.06E-07,9.39E-06,-9.86E-06,-8.81E-06,-8.24E-05,2.15E-05
700,4.74E-06,8.16E-06,-1.02E-05,4.57E-05,-6.83E-05,2.39E-05
701,-1.35E-06,9.61E-06,5.03E-06,0.000124724,-6.94E-05,2.10E-05
702,-1.61E-05,1.23E-05,1.79E-05,0.000131998,-8.40E-05,1.42E-05
703,-2.53E-05,1.01E-05,2.71E-05,5.54E-05,-0.000102767,1.07E-05
704,-1.18E-05,5.07E-06,2.38E-05,-3.02E-06,-0.000114889,1.42E-05
705,7.95E-06,4.28E-06,7.41E-06,9.21E-07,-0.000110301,1.62E-05
706,1.27E-05,8.03E-06,-3.78E-06,2.18E-05,-8.98E-05,1.50E-05
707,1.08E-05,1.06E-05,3.05E-06,1.49E-05,-6.05E-05,1.67E-05
708,8.53E-06,1.10E-05,1.96E-05,2.35E-05,-2.83E-05,1.99E-05
709,6.12E-06,1.30E-05,2.90E-05,8.22E-05,-1.52E-06,1.97E-05
710,-2.14E-06,1.70E-05,3.36E-05,0.000135804,1.74E-05,1.40E-05
711,-1.74E-05,1.93E-05,3.83E-05,0.000102082,2.93E-05,6.80E-06
712,-2.65E-05,1.90E-05,3.80E-05,2.98E-05,3.33E-05,4.42E-06
713,-2.01E-05,1.78E-05,2.68E-05,-1.47E-05,3.17E-05,6.25E-06
714,-8.80E-06,1.62E-05,1.83E-05,-3.47E-06,2.92E-05,8.57E-06
715,-5.04E-06,1.67E-05,2.38E-05,6.99E-05,2.62E-05,9.21E-06
716,-1.06E-05,1.71E-05,3.10E-05,0.000141469,2.18E-05,7.58E-06
717,-2.03E-05,1.53E-05,2.96E-05,0.000131277,1.87E-05,5.58E-06
718,-2.29E-05,1.49E-05,1.96E-05,6.43E-05,1.65E-05,7.62E-06
719,-1.10E-05,1.77E-05,5.34E-06,1.78E-05,1.20E-05,1.37E-05
720,7.56E-06,1.94E-05,-3.01E-06,1.85E-05,3.30E-06,1.67E-05
721,1.72E-05,1.77E-05,6.81E-06,7.18E-05,-9.36E-06,1.27E-05
722,1.25E-05,1.42E-05,2.60E-05,0.000133137,-2.34E-05,5.43E-06
723,-3.56E-07,1.09E-05,4.16E-05,0.000126979,-3.32E-05,-2.50E-07
724,-7.93E-06,8.55E-06,5.42E-05,5.32E-05,-3.40E-05,-1.40E-06
725,-8.86E-07,6.99E-06,5.94E-05,-5.84E-06,-2.73E-05,2.18E-06
726,1.25E-05,7.29E-06,5.38E-05,-1.79E-05,-1.97E-05,6.14E-06
727,1.90E-05,1.01E-05,5.33E-05,3.43E-05,-1.49E-05,7.60E-06
728,1.54E-05,1.22E-05,6.15E-05,0.000114968,-8.72E-06,4.64E-06
729,-5.85E-07,8.94E-06,6.82E-05,0.000121149,3.42E-06,-1.95E-06
730,-1.53E-05,2.16E-06,7.60E-05,3.55E-05,1.51E-05,-6.06E-06
731,-1.07E-05,-4.80E-07,7.62E-05,-2.99E-05,1.96E-05,-1.08E-06
732,1.29E-06,1.38E-06,6.46E-05,-2.00E-05,2.10E-05,7.53E-06
733,3.33E-06,3.87E-06,5.17E-05,4.76E-06,2.01E-05,1.34E-05
734,1.96E-06,6.72E-06,4.97E-05,-8.10E-06,1.52E-05,1.49E-05
735,3.52E-06,9.57E-06,5.69E-05,4.92E-07,8.26E-06,1.17E-05
736,4.93E-06,1.44E-05,5.81E-05,6.72E-05,3.15E-06,7.61E-06
737,1.78E-06,1.95E-05,4.98E-05,0.000121194,-1.42E-06,4.53E-06
738,-1.11E-05,2.00E-05,3.99E-05,8.43E-05,-4.19E-06,3.56E-06
739,-2.40E-05,1.67E-05,3.40E-05,1.80E-05,-4.35E-06,3.88E-06
740,-2.14E-05,1.42E-05,2.05E-05,-1.45E-05,-4.10E-06,8.09E-06
741,-9.83E-06,1.51E-05,4.76E-07,1.41E-06,-5.34E-06,1.42E-05
742,-1.67E-06,1.87E-05,-1.04E-05,7.22E-05,-7.61E-06,1.85E-05
743,-3.63E-06,2.23E-05,-1.11E-05,0.000140926,-9.30E-06,1.83E-05
744,-1.44E-05,2.21E-05,-4.31E-06,0.000122847,-9.35E-06,1.33E-05
745,-2.13E-05,1.89E-05,4.24E-06,4.12E-05,-8.26E-06,8.49E-06
746,-1.59E-05,1.67E-05,4.19E-06,-1.66E-05,-8.17E-06,8.76E-06
747,-6.40E-06,1.81E-05,-3.08E-06,-1.50E-05,-9.38E-06,1.46E-05
748,-2.60E-06,2.17E-05,-1.30E-06,4.74E-05,-1.12E-05,1.98E-05
749,-4.27E-06,2.42E-05,8.10E-06,0.000115909,-1.19E-05,1.96E-05
750,-1.06E-05,2.32E-05,1.36E-05,0.000107263,-1.09E-05,1.41E-05
751,-1.59E-05,1.86E-05,1.60E-05,3.01E-05,-9.25E-06,1.04E-05
752,-1.08E-05,1.31E-05,1.43E-05,-1.57E-05,-9.35E-06,1.34E-05
753,-1.21E-06,8.89E-06,6.50E-06,-4.34E-06,-9.71E-06,1.99E-05
754,1.02E-06,6.68E-06,6.81E-06,5.92E-05,-9.29E-06,2.27E-05
755,-1.07E-06,6.26E-06,1.86E-05,0.000133869,-9.53E-06,1.85E-05
756,-8.06E-06,4.81E-06,2.79E-05,0.000127885,-9.66E-06,9.16E-06
757,-1.58E-05,4.40E-06,3.44E-05,3.97E-05,-8.41E-06,3.29E-06
758,-8.69E-06,6.23E-06,3.72E-05,-1.80E-05,-6.41E-06,7.17E-06
759,1.46E-06,6.29E-06,2.74E-05,-3.16E-06,-3.28E-06,1.34E-05
760,3.02E-07,3.34E-06,1.29E-05,2.57E-05,-8.21E-07,1.71E-05
761,1.10E-07,2.05E-06,1.45E-05,1.63E-05,-3.00E-06,2.02E-05
762,4.32E-06,4.54E-06,2.53E-05,1.98E-05,-7.98E-06,2.14E-05
763,6.89E-06,8.25E-06,2.70E-05,8.08E-05,-1.34E-05,2.02E-05
764,-2.83E-07,1.15E-05,2.17E-05,0.000133097,-1.49E-05,1.60E-05
765,-1.58E-05,1.20E-05,2.30E-05,9.26E-05,-1.06E-05,1.21E-05
766,-2.41E-05,9.17E-06,3.02E-05,1.83E-05,-6.85E-06,1.02E-05
767,-1.61E-05,6.24E-06,2.74E-05,-1.88E-05,-7.87E-06,1.06E-05
768,-3.96E-06,4.68E-06,1.84E-05,9.87E-07,-1.25E-05,1.10E-05
769,-1.18E-07,4.32E-06,1.52E-05,7.33E-05,-1.59E-05,1.05E-05
770,-5.91E-06,6.15E-06,1.36E-05,0.00013327,-1.43E-05,9.77E-06
771,-1.70E-05,8.28E-06,1.29E-05,0.000107681,-7.76E-06,9.39E-06
772,-2.21E-05,8.43E-06,1.59E-05,3.14E-05,2.41E-07,1.23E-05
773,-1.30E-05,7.21E-06,1.22E-05,-1.49E-05,6.87E-06,1.59E-05
774,2.10E-06,6.75E-06,-9.89E-07,-7.12E-06,1.29E-05,1.60E-05
775,8.51E-06,8.17E-06,-6.31E-06,5.57E-05,2.16E-05,1.33E-05
776,3.33E-06,1.06E-05,-1.88E-07,0.000125982,3.38E-05,1.00E-05
777,-7.47E-06,1.14E-05,6.25E-06,0.00011978,4.37E-05,4.38E-06
778,-1.42E-05,1.18E-05,1.04E-05,4.16E-05,4.18E-05,2.16E-07
779,-1.15E-05,1.31E-05,7.74E-06,-1.06E-05,2.56E-05,3.17E-06
780,-3.34E-06,1.32E-05,-3.73E-06,-7.20E-06,2.04E-06,1.08E-05
781,1.86E-06,1.40E-05,-5.76E-06,5.02E-05,-2.34E-05,1.50E-05
782,-3.98E-08,1.64E-05,7.75E-06,0.000123467,-4.78E-05,1.52E-05
783,-1.16E-05,1.67E-05,1.88E-05,0.000122409,-6.79E-05,1.42E-05
784,-2.12E-05,1.37E-05,2.36E-05,3.44E-05,-7.52E-05,1.42E-05
785,-1.44E-05,1.25E-05,2.60E-05,-3.60E-05,-5.08E-05,1.74E-05
786,-5.09E-06,1.52E-05,2.37E-05,-3.58E-05,1.85E-06,1.97E-05
787,-4.63E-06,1.89E-05,2.03E-05,-1.20E-05,5.13E-05,2.03E-05
788,-4.12E-06,1.88E-05,2.53E-05,-1.23E-05,7.82E-05,2.15E-05
789,-2.04E-06,1.48E-05,3.42E-05,4.44E-06,7.83E-05,1.94E-05
790,3.13E-07,1.26E-05,3.53E-05,6.89E-05,6.05E-05,1.51E-05
791,-4.59E-06,1.34E-05,2.99E-05,0.00011893,3.33E-05,1.19E-05
792,-1.77E-05,1.40E-05,2.82E-05,8.07E-05,-2.23E-06,1.16E-05
793,-2.42E-05,1.20E-05,2.79E-05,1.31E-05,-4.36E-05,1.30E-05
794,-1.42E-05,8.99E-06,1.63E-05,-2.00E-05,-8.56E-05,1.46E-05
795,-5.58E-07,8.65E-06,4.10E-06,7.23E-07,-0.000120458,1.61E-05
796,3.06E-06,1.25E-05,5.51E-06,7.72E-05,-0.000141043,1.67E-05
797,-3.35E-06,1.78E-05,1.40E-05,0.000143562,-0.000145997,1.50E-05
798,-1.48E-05,2.07E-05,2.50E-05,0.000117419,-0.000135331,1.25E-05
799,-2.19E-05,2.00E-05,3.47E-05,2.97E-05,-0.000106315,1.35E-05
800,-1.78E-05,1.85E-05,3.16E-05,-2.54E-05,-6.09E-05,1.76E-05
801,-8.78E-06,1.79E-05,1.92E-05,-1.44E-05,-1.29E-05,2.20E-05
802,-5.19E-06,1.65E-05,1.67E-05,5.57E-05,1.83E-05,2.41E-05
803,-8.21E-06,1.35E-05,2.49E-05,0.000129492,2.45E-05,2.13E-05
804,-1.71E-05,1.03E-05,3.24E-05,0.000127502,1.32E-05,1.26E-05
805,-2.35E-05,9.57E-06,3.61E-05,5.60E-05,-1.64E-06,4.65E-06
806,-1.73E-05,1.27E-05,3.00E-05,4.11E-06,-1.07E-05,5.13E-06
807,-2.34E-06,1.57E-05,1.70E-05,4.94E-07,-1.12E-05,1.11E-05
808,7.01E-06,1.62E-05,1.81E-05,5.47E-05,-5.98E-06,1.43E-05
809,1.72E-06,1.82E-05,3.03E-05,0.000134483,7.78E-07,1.31E-05
810,-1.76E-05,2.09E-05,3.21E-05,0.000143188,6.35E-06,1.06E-05
811,-3.23E-05,2.01E-05,2.74E-05,6.75E-05,1.04E-05,1.03E-05
812,-2.53E-05,1.41E-05,2.56E-05,1.42E-05,1.27E-05,1.39E-05
813,-1.29E-05,7.23E-06,2.24E-05,2.89E-05,1.09E-05,1.99E-05
814,-1.21E-05,6.42E-06,1.50E-05,5.79E-05,6.25E-06,2.39E-05
815,-1.13E-05,9.82E-06,1.92E-05,5.24E-05,2.42E-06,2.46E-05
816,-4.12E-06,1.20E-05,3.33E-05,5.74E-05,1.79E-06,2.21E-05
817,5.38E-06,1.00E-05,4.01E-05,0.000116251,2.69E-06,1.65E-05
818,5.29E-06,7.26E-06,3.90E-05,0.000170843,1.02E-06,1.09E-05
819,-9.14E-06,7.14E-06,4.06E-05,0.00013078,-6.72E-06,8.03E-06
820,-1.98E-05,7.59E-06,4.54E-05,4.60E-05,-1.80E-05,9.38E-06
821,-1.34E-05,7.73E-06,3.84E-05,-1.02E-05,-2.46E-05,1.24E-05
822,-4.22E-07,8.62E-06,2.86E-05,-7.46E-06,-2.57E-05,1.33E-05
823,6.95E-06,1.21E-05,3.01E-05,6.11E-05,-2.39E-05,1.29E-05
824,5.37E-06,1.78E-05,3.72E-05,0.000132864,-1.87E-05,1.46E-05
825,-3.37E-06,2.28E-05,4.39E-05,0.000125272,-7.72E-06,1.40E-05
826,-9.09E-06,2.47E-05,4.86E-05,5.85E-05,6.13E-06,1.04E-05
827,-6.52E-06,2.33E-05,4.65E-05,1.10E-05,1.57E-05,7.75E-06
828,-1.47E-06,2.20E-05,3.98E-05,1.94E-05,1.75E-05,5.47E-06
829,-2.83E-07,2.30E-05,4.22E-05,8.57E-05,1.50E-05,2.05E-06
830,-4.19E-06,2.39E-05,5.08E-05,0.00015187,1.11E-05,9.95E-08
831,-1.25E-05,2.18E-05,5.30E-05,0.000136847,6.86E-06,1.40E-06
832,-1.85E-05,1.93E-05,5.01E-05,5.48E-05,7.66E-06,4.12E-06
833,-1.44E-05,1.74E-05,4.30E-05,3.97E-06,1.56E-05,8.99E-06
834,-3.08E-06,1.53E-05,3.26E-05,1.19E-05,2.49E-05,1.60E-05
835,5.53E-06,1.35E-05,3.25E-05,7.57E-05,2.95E-05,2.06E-05
836,4.73E-06,1.42E-05,3.93E-05,0.0001562,2.75E-05,1.72E-05
837,-8.76E-06,1.55E-05,4.12E-05,0.0001616,2.16E-05,8.31E-06
838,-2.32E-05,1.31E-05,4.38E-05,7.94E-05,1.52E-05,3.11E-06
839,-1.78E-05,1.19E-05,4.55E-05,1.65E-05,7.22E-06,7.75E-06
840,-3.45E-06,1.44E-05,3.65E-05,2.48E-05,-3.33E-06,1.46E-05
841,3.67E-07,1.58E-05,2.11E-05,4.93E-05,-1.03E-05,1.48E-05
842,-3.80E-06,1.46E-05,1.66E-05,3.51E-05,-6.79E-06,9.57E-06
843,-6.52E-06,1.38E-05,2.60E-05,2.99E-05,8.06E-06,4.72E-06
844,-1.49E-06,1.58E-05,3.87E-05,8.04E-05,4.07E-05,5.08E-06
845,8.98E-07,1.79E-05,4.65E-05,0.000128814,8.42E-05,7.33E-06
846,-7.34E-06,1.68E-05,4.91E-05,9.03E-05,0.000110301,7.52E-06
847,-1.51E-05,1.49E-05,5.25E-05,1.95E-05,0.000100902,6.23E-06
848,-8.27E-06,1.49E-05,4.93E-05,-2.02E-05,6.07E-05,7.58E-06
849,3.77E-06,1.61E-05,4.43E-05,-9.77E-06,5.69E-06,1.25E-05
850,9.26E-06,1.77E-05,4.91E-05,5.87E-05,-4.86E-05,1.86E-05
851,6.17E-06,1.89E-05,5.59E-05,0.000128669,-9.20E-05,2.23E-05
852,-3.04E-06,1.78E-05,5.91E-05,0.000115025,-0.000116591,2.13E-05
853,-1.05E-05,1.53E-05,6.02E-05,3.75E-05,-0.000118062,1.99E-05
854,-8.45E-06,1.48E-05,5.74E-05,-1.91E-05,-0.000101535,2.30E-05
855,1.52E-06,1.55E-05,5.26E-05,-2.00E-05,-8.01E-05,2.61E-05
856,9.70E-06,1.57E-05,5.44E-05,3.73E-05,-6.57E-05,2.27E-05
857,1.08E-05,1.60E-05,5.68E-05,0.000104235,-6.14E-05,1.47E-05
858,2.35E-06,1.58E-05,5.51E-05,0.000102827,-5.92E-05,7.99E-06
859,-5.49E-06,1.44E-05,5.63E-05,3.37E-05,-5.00E-05,5.41E-06
860,6.11E-07,1.27E-05,5.35E-05,-2.04E-05,-3.32E-05,4.58E-06
861,1.47E-05,1.05E-05,3.88E-05,-3.08E-05,-1.48E-05,4.15E-06
862,1.84E-05,7.88E-06,3.17E-05,1.97E-05,1.10E-09,6.36E-06
863,1.01E-05,6.76E-06,4.01E-05,9.81E-05,1.14E-05,1.26E-05
864,-8.46E-06,6.38E-06,4.68E-05,0.000105244,1.66E-05,1.71E-05
865,-2.55E-05,4.41E-06,5.11E-05,3.18E-05,1.25E-05,1.50E-05
866,-2.29E-05,2.26E-06,5.00E-05,-1.83E-05,5.58E-06,9.39E-06
867,-1.32E-05,-1.32E-06,3.82E-05,-3.44E-06,3.48E-06,7.11E-06
868,-1.06E-05,-3.45E-06,2.39E-05,2.18E-05,3.00E-06,8.81E-06
869,-8.49E-06,-4.52E-06,2.50E-05,7.10E-06,-2.72E-07,1.33E-05
870,-4.35E-06,-4.91E-06,3.62E-05,3.09E-06,-3.99E-06,1.85E-05
871,-1.82E-06,-1.11E-06,3.56E-05,5.01E-05,-5.08E-06,1.99E-05
872,-6.71E-06,4.38E-06,2.53E-05,9.14E-05,-4.23E-06,1.47E-05
873,-1.89E-05,7.38E-06,1.88E-05,5.20E-05,-3.19E-06,5.26E-06
874,-2.78E-05,6.49E-06,1.93E-05,-1.10E-05,-2.57E-06,2.45E-06
875,-2.34E-05,3.28E-06,1.14E-05,-3.60E-05,-6.45E-07,9.60E-06
876,-1.14E-05,2.28E-07,6.79E-07,-1.38E-05,3.68E-06,1.70E-05
877,-3.37E-06,2.14E-06,2.47E-06,6.03E-05,5.95E-06,1.86E-05
878,-5.15E-06,8.64E-06,9.76E-06,0.000132185,4.43E-06,1.78E-05
879,-1.58E-05,1.40E-05,1.65E-05,0.000118332,5.02E-07,1.65E-05
880,-2.32E-05,1.43E-05,2.20E-05,3.82E-05,-3.86E-06,1.48E-05
881,-1.61E-05,1.29E-05,2.01E-05,-1.97E-05,-7.12E-06,1.43E-05
882,-7.77E-07,1.25E-05,1.22E-05,-1.62E-05,-6.95E-06,1.41E-05
883,5.53E-06,1.16E-05,1.25E-05,4.93E-05,-3.24E-06,1.34E-05
884,-3.79E-06,9.35E-06,1.81E-05,0.000121459,1.24E-07,1.36E-05
885,-2.03E-05,5.96E-06,2.08E-05,0.000114851,7.94E-07,1.21E-05
886,-2.88E-05,2.62E-06,2.27E-05,3.46E-05,-4.90E-07,7.35E-06
887,-2.00E-05,1.44E-06,2.08E-05,-2.16E-05,-3.02E-06,3.98E-06
888,-2.40E-06,1.23E-06,1.50E-05,-2.68E-05,-6.57E-06,6.27E-06
889,7.54E-06,-4.75E-07,1.86E-05,1.88E-05,-1.05E-05,1.25E-05
890,5.55E-06,-3.12E-07,2.55E-05,8.53E-05,-1.34E-05,1.67E-05
891,-4.63E-06,1.32E-06,2.85E-05,8.33E-05,-1.36E-05,1.52E-05
892,-1.05E-05,1.19E-06,3.55E-05,-4.58E-07,-1.34E-05,1.19E-05
893,5.93E-08,2.45E-06,4.00E-05,-6.28E-05,-1.55E-05,1.52E-05
894,1.29E-05,5.42E-06,3.19E-05,-5.59E-05,-1.71E-05,2.04E-05
895,1.17E-05,6.15E-06,1.56E-05,-2.61E-05,-1.55E-05,2.25E-05
896,7.53E-06,4.57E-06,1.15E-05,-2.79E-05,-1.45E-05,2.29E-05
897,8.38E-06,5.49E-06,1.77E-05,-2.24E-05,-1.51E-05,2.31E-05
898,1.23E-05,1.15E-05,1.89E-05,3.11E-05,-1.42E-05,2.32E-05
899,9.42E-06,1.81E-05,1.78E-05,7.86E-05,-9.99E-06,1.80E-05
900,-2.84E-06,1.93E-05,2.41E-05,4.25E-05,-6.65E-06,1.04E-05
901,-9.93E-06,1.61E-05,3.32E-05,-2.16E-05,-6.41E-06,6.31E-06
902,-3.35E-06,1.28E-05,2.75E-05,-4.97E-05,-6.36E-06,6.42E-06
903,7.09E-06,1.17E-05,1.50E-05,-2.95E-05,-4.44E-06,7.32E-06
904,9.03E-06,1.31E-05,1.47E-05,4.62E-05,-2.56E-06,7.67E-06
905,-7.80E-07,1.48E-05,2.29E-05,0.000119706,-2.90E-06,7.05E-06
906,-1.66E-05,1.58E-05,2.74E-05,0.000107631,-3.85E-06,6.52E-06
907,-2.54E-05,1.58E-05,2.51E-05,3.21E-05,-5.32E-06,8.80E-06
908,-2.00E-05,1.59E-05,1.78E-05,-2.48E-05,-9.17E-06,1.28E-05
909,-8.22E-06,1.75E-05,1.24E-05,-2.70E-05,-1.51E-05,1.50E-05
910,-1.60E-06,2.07E-05,1.81E-05,3.22E-05,-1.98E-05,1.42E-05
911,-3.40E-06,2.30E-05,2.63E-05,0.0001037,-2.24E-05,1.28E-05
912,-1.24E-05,2.17E-05,2.76E-05,0.000106089,-2.22E-05,1.27E-05
913,-1.85E-05,1.76E-05,2.59E-05,4.06E-05,-2.04E-05,1.71E-05
914,-1.28E-05,1.51E-05,2.00E-05,-5.29E-06,-1.98E-05,2.71E-05
915,-2.35E-06,1.58E-05,1.24E-05,-4.89E-06,-2.13E-05,3.84E-05
916,2.10E-06,1.84E-05,1.44E-05,4.78E-05,-2.25E-05,3.93E-05
917,-1.59E-07,2.12E-05,2.35E-05,0.000128695,-1.95E-05,2.64E-05
918,-1.17E-05,1.96E-05,3.05E-05,0.000143862,-1.41E-05,1.04E-05
919,-2.22E-05,1.38E-05,3.89E-05,6.59E-05,-1.15E-05,1.90E-06
920,-1.79E-05,1.13E-05,4.25E-05,-3.92E-06,-1.47E-05,5.24E-06
921,-9.22E-06,1.33E-05,3.70E-05,3.78E-06,-2.37E-05,1.40E-05
922,-6.68E-06,1.35E-05,2.92E-05,4.28E-05,-3.13E-05,1.84E-05
923,-2.16E-06,1.14E-05,2.68E-05,3.46E-05,-3.05E-05,1.69E-05
924,5.08E-06,1.19E-05,3.36E-05,2.80E-05,-1.94E-05,1.32E-05
925,9.56E-06,1.50E-05,3.98E-05,8.24E-05,-4.47E-06,9.77E-06
926,6.85E-06,1.61E-05,3.95E-05,0.000132145,8.27E-06,5.96E-06
927,-5.06E-06,1.22E-05,3.50E-05,8.92E-05,1.76E-05,1.86E-06
928,-1.40E-05,6.18E-06,3.13E-05,1.03E-05,2.27E-05,-1.81E-06
929,-1.00E-05,3.05E-06,2.44E-05,-3.10E-05,2.38E-05,-8.35E-07
930,-1.05E-06,4.32E-06,1.71E-05,-1.52E-05,2.16E-05,4.34E-06
931,2.21E-06,8.22E-06,1.82E-05,5.92E-05,1.83E-05,6.74E-06
932,-1.75E-06,1.15E-05,2.16E-05,0.000131205,1.40E-05,3.92E-06
933,-1.04E-05,1.29E-05,2.36E-05,0.000120244,7.45E-06,-1.40E-08
934,-1.59E-05,1.29E-05,2.46E-05,5.13E-05,-3.38E-06,-5.33E-08
935,-1.01E-05,1.18E-05,2.05E-05,2.75E-06,-1.68E-05,3.71E-06
936,6.21E-07,9.93E-06,9.57E-06,2.49E-06,-2.70E-05,6.97E-06
937,4.63E-06,9.50E-06,5.27E-06,6.12E-05,-3.03E-05,7.25E-06
938,-7.28E-07,1.16E-05,9.26E-06,0.000136592,-2.90E-05,5.10E-06
939,-1.23E-05,1.28E-05,1.39E-05,0.000136584,-2.79E-05,1.80E-06
940,-2.11E-05,1.13E-05,1.74E-05,5.74E-05,-2.82E-05,2.24E-06
941,-1.91E-05,1.03E-05,1.38E-05,-2.14E-06,-2.71E-05,7.69E-06
942,-1.07E-05,1.03E-05,-1.32E-08,-3.50E-06,-2.19E-05,1.32E-05
943,-4.53E-06,1.13E-05,-3.34E-06,5.71E-05,-1.56E-05,1.57E-05
944,-5.12E-06,1.53E-05,9.87E-06,0.000136541,-1.29E-05,1.33E-05
945,-1.65E-05,1.80E-05,1.85E-05,0.000138368,-1.28E-05,6.37E-06
946,-2.85E-05,1.58E-05,2.13E-05,5.45E-05,-1.25E-05,1.39E-06
947,-2.32E-05,1.11E-05,2.24E-05,-5.83E-07,-1.06E-05,3.59E-06
948,-9.59E-06,1.05E-05,1.52E-05,1.76E-05,-7.72E-06,7.11E-06
949,-1.81E-06,1.33E-05,2.81E-06,4.06E-05,-2.96E-06,6.46E-06
950,3.04E-06,1.23E-05,4.38E-06,2.14E-05,2.20E-06,5.41E-06
951,6.27E-06,1.17E-05,1.37E-05,1.84E-05,5.24E-06,5.90E-06
952,5.50E-06,1.59E-05,1.34E-05,7.49E-05,5.66E-06,8.85E-06
953,-1.74E-06,2.17E-05,8.76E-06,0.000128148,2.21E-06,1.02E-05
954,-1.57E-05,2.23E-05,1.04E-05,9.14E-05,-2.12E-06,8.10E-06
955,-2.60E-05,1.88E-05,1.67E-05,1.83E-05,-4.50E-06,8.81E-06
956,-2.11E-05,1.41E-05,1.34E-05,-2.01E-05,-1.00E-05,1.34E-05
957,-1.04E-05,9.93E-06,8.07E-06,-3.33E-06,-2.25E-05,1.66E-05
958,-5.00E-06,9.90E-06,1.35E-05,7.05E-05,-3.74E-05,1.76E-05
959,-8.43E-06,1.45E-05,2.18E-05,0.000140078,-4.67E-05,1.77E-05
960,-1.94E-05,1.91E-05,2.53E-05,0.000123337,-4.23E-05,1.57E-05
961,-2.82E-05,1.83E-05,2.65E-05,4.39E-05,-2.36E-05,1.30E-05
962,-2.29E-05,1.36E-05,2.36E-05,-1.32E-05,2.56E-06,1.34E-05
963,-8.86E-06,1.02E-05,1.74E-05,-1.56E-05,3.00E-05,1.62E-05
964,8.85E-08,1.07E-05,1.91E-05,3.99E-05,5.57E-05,1.83E-05
965,-5.50E-08,1.27E-05,2.70E-05,0.000107702,7.57E-05,1.95E-05
966,-6.95E-06,1.31E-05,3.19E-05,0.000105434,8.61E-05,1.93E-05
967,-1.48E-05,9.40E-06,3.49E-05,2.98E-05,8.19E-05,1.72E-05
968,-1.61E-05,2.33E-06,3.39E-05,-2.75E-05,5.86E-05,1.50E-05
969,-1.15E-05,-2.40E-06,2.38E-05,-2.91E-05,2.00E-05,1.46E-05
970,-8.44E-06,-3.58E-07,1.78E-05,3.40E-05,-1.92E-05,1.52E-05
971,-1.14E-05,5.57E-06,1.99E-05,0.000121277,-4.74E-05,1.57E-05
972,-2.33E-05,9.38E-06,2.04E-05,0.000132089,-6.57E-05,1.18E-05
973,-3.23E-05,6.96E-06,2.54E-05,5.90E-05,-7.52E-05,6.29E-06
974,-2.12E-05,4.65E-06,3.63E-05,1.46E-05,-7.42E-05,7.34E-06
975,-5.05E-06,5.43E-06,3.81E-05,3.84E-05,-6.38E-05,1.20E-05
976,-1.57E-06,5.99E-06,2.72E-05,6.25E-05,-4.87E-05,1.62E-05
977,-6.46E-07,7.35E-06,2.11E-05,4.09E-05,-3.58E-05,1.94E-05
978,4.30E-07,8.50E-06,2.78E-05,3.50E-05,-2.91E-05,1.85E-05
979,9.94E-07,1.10E-05,3.57E-05,9.27E-05,-2.57E-05,1.57E-05
980,-1.85E-06,1.61E-05,4.11E-05,0.000149122,-2.33E-05,1.40E-05
981,-1.13E-05,1.98E-05,4.85E-05,0.000115876,-2.62E-05,1.02E-05
982,-1.72E-05,1.91E-05,5.19E-05,4.30E-05,-3.57E-05,7.17E-06
983,-8.52E-06,1.69E-05,4.05E-05,-1.84E-06,-4.62E-05,1.00E-05
984,3.91E-06,1.59E-05,2.64E-05,7.86E-06,-5.04E-05,1.44E-05
985,6.20E-06,1.67E-05,2.80E-05,7.88E-05,-4.71E-05,1.52E-05
986,-2.75E-06,1.89E-05,3.75E-05,0.000147752,-4.03E-05,1.03E-05
987,-1.72E-05,2.05E-05,4.16E-05,0.000133191,-3.05E-05,2.62E-06
988,-2.54E-05,2.05E-05,4.12E-05,5.97E-05,-1.52E-05,2.05E-07
989,-1.96E-05,1.88E-05,3.77E-05,7.02E-06,3.83E-06,3.73E-06
990,-5.84E-06,1.75E-05,3.23E-05,8.18E-06,2.10E-05,6.16E-06
991,3.60E-06,1.91E-05,3.17E-05,6.75E-05,3.43E-05,4.48E-06
992,2.98E-06,2.34E-05,3.42E-05,0.000133496,4.38E-05,3.54E-06
993,-7.97E-06,2.74E-05,3.58E-05,0.000127015,4.74E-05,4.62E-06
994,-1.89E-05,2.73E-05,3.93E-05,5.35E-05,4.19E-05,6.08E-06
995,-1.59E-05,2.28E-05,3.77E-05,1.67E-06,2.48E-05,9.56E-06
996,-2.43E-06,1.74E-05,2.67E-05,-5.82E-09,8.45E-07,1.34E-05
997,4.44E-06,1.46E-05,2.29E-05,5.61E-05,-2.02E-05,1.40E-05
998,-1.91E-06,1.44E-05,2.74E-05,0.00013621,-3.00E-05,1.43E-05
999,-1.85E-05,1.48E-05,2.84E-05,0.000141984,-2.63E-05,1.35E-05
1000,-2.77E-05,1.43E-05,3.15E-05,6.13E-05,-1.80E-05,1.05E-05
1001,-1.35E-05,1.29E-05,3.72E-05,3.52E-06,-1.26E-05,1.16E-05
1002,4.42E-06,1.13E-05,3.59E-05,1.45E-05,-6.53E-06,1.68E-05
1003,8.17E-06,1.04E-05,2.63E-05,4.22E-05,6.72E-06,2.23E-05
1004,7.79E-06,1.08E-05,2.70E-05,3.58E-05,2.25E-05,2.64E-05
1005,9.09E-06,1.17E-05,3.94E-05,3.93E-05,2.94E-05,2.65E-05
1006,1.04E-05,1.32E-05,4.61E-05,9.55E-05,2.60E-05,2.34E-05
1007,5.63E-06,1.38E-05,4.48E-05,0.000146012,1.50E-05,1.85E-05
1008,-5.97E-06,1.26E-05,4.22E-05,0.000108832,-4.43E-07,1.37E-05
1009,-1.26E-05,1.14E-05,4.24E-05,3.83E-05,-1.39E-05,1.26E-05
1010,-6.46E-06,1.15E-05,3.60E-05,2.10E-06,-2.03E-05,1.68E-05
1011,4.19E-06,1.22E-05,2.81E-05,1.34E-05,-1.99E-05,2.29E-05
1012,1.13E-05,1.39E-05,2.97E-05,7.62E-05,-1.62E-05,2.66E-05
1013,1.12E-05,1.54E-05,3.34E-05,0.000139128,-1.28E-05,2.55E-05
1014,1.95E-06,1.53E-05,3.36E-05,0.000127353,-1.02E-05,1.96E-05
1015,-8.92E-06,1.39E-05,3.38E-05,5.98E-05,-3.89E-06,1.51E-05
1016,-1.19E-05,1.18E-05,2.90E-05,8.26E-06,6.51E-06,1.79E-05
1017,-7.43E-06,1.11E-05,1.62E-05,7.38E-06,1.36E-05,2.58E-05
1018,-2.19E-06,1.31E-05,1.02E-05,6.82E-05,1.18E-05,3.08E-05
1019,-3.64E-06,1.59E-05,1.57E-05,0.000140935,3.36E-06,2.66E-05
1020,-1.42E-05,1.55E-05,2.66E-05,0.000135405,-3.56E-06,1.71E-05
1021,-2.04E-05,1.29E-05,3.85E-05,5.33E-05,-4.14E-06,1.16E-05
1022,-1.09E-05,1.03E-05,4.10E-05,-6.68E-06,-1.95E-06,1.27E-05
1023,3.89E-06,8.07E-06,3.44E-05,-9.09E-06,-2.14E-06,1.60E-05
1024,8.62E-06,6.85E-06,3.82E-05,4.78E-05,6.53E-06,1.72E-05
1025,4.41E-06,8.06E-06,5.19E-05,0.000129149,4.93E-05,1.71E-05
1026,-6.18E-06,9.51E-06,5.69E-05,0.000138735,0.000131929,1.53E-05
1027,-1.67E-05,7.94E-06,5.75E-05,6.10E-05,0.00021773,1.33E-05
1028,-1.34E-05,4.77E-06,5.29E-05,3.33E-06,0.000256406,1.72E-05
1029,-4.45E-06,6.39E-06,3.87E-05,9.49E-06,0.000228441,1.98E-05
1030,-3.57E-06,1.15E-05,2.75E-05,2.60E-05,0.000153404,1.72E-05
1031,-2.47E-06,1.40E-05,2.95E-05,1.21E-05,6.36E-05,1.59E-05
1032,1.54E-06,1.46E-05,3.96E-05,1.56E-05,-2.18E-05,1.56E-05
1033,4.99E-06,1.56E-05,4.40E-05,7.08E-05,-9.92E-05,1.13E-05
1034,8.99E-07,1.73E-05,4.13E-05,0.000120485,-0.00016745,1.24E-06
1035,-1.39E-05,1.64E-05,4.10E-05,8.38E-05,-0.000217281,-7.70E-06
1036,-2.37E-05,1.25E-05,4.29E-05,1.24E-05,-0.000239763,-6.69E-06
1037,-1.59E-05,1.07E-05,3.15E-05,-2.55E-05,-0.000241318,3.85E-06
1038,-1.04E-06,1.19E-05,1.77E-05,-1.01E-05,-0.000235267,1.46E-05
1039,5.70E-06,1.45E-05,2.13E-05,6.13E-05,-0.000220239,1.98E-05
1040,2.49E-07,1.57E-05,3.32E-05,0.000130504,-0.000186789,1.85E-05
1041,-1.20E-05,1.30E-05,3.89E-05,0.000116969,-0.000134342,1.39E-05
1042,-1.69E-05,7.93E-06,3.73E-05,4.00E-05,-7.73E-05,1.14E-05
1043,-7.50E-06,5.38E-06,3.09E-05,-1.74E-05,-3.30E-05,1.32E-05
1044,5.94E-06,7.85E-06,2.20E-05,-1.60E-05,-7.35E-06,1.56E-05
1045,1.15E-05,1.31E-05,1.93E-05,5.04E-05,1.57E-06,1.59E-05
1046,8.63E-06,1.76E-05,2.10E-05,0.000127808,8.38E-07,1.59E-05
1047,-1.16E-06,1.75E-05,2.15E-05,0.000128567,-2.36E-06,1.65E-05
1048,-1.04E-05,1.33E-05,2.10E-05,5.49E-05,-4.22E-06,1.80E-05
1049,-6.37E-06,1.00E-05,1.95E-05,2.79E-06,-5.01E-06,2.11E-05
1050,6.76E-06,1.03E-05,1.70E-05,3.37E-06,-7.46E-06,2.61E-05
1051,1.26E-05,1.22E-05,2.08E-05,5.94E-05,-9.75E-06,2.86E-05
1052,5.49E-06,1.39E-05,2.67E-05,0.000135985,-6.21E-06,2.31E-05
1053,-1.41E-05,1.39E-05,2.49E-05,0.000137918,-7.84E-07,1.19E-05
1054,-2.95E-05,1.20E-05,2.33E-05,5.26E-05,-4.56E-07,6.06E-06
1055,-2.07E-05,1.28E-05,2.62E-05,-7.25E-06,-4.46E-07,9.89E-06
1056,-5.99E-06,1.56E-05,2.62E-05,8.89E-06,3.22E-06,1.45E-05
1057,-1.75E-06,1.32E-05,2.21E-05,4.14E-05,6.52E-06,1.80E-05
1058,1.63E-06,9.12E-06,2.65E-05,3.49E-05,8.78E-06,1.95E-05
1059,3.89E-06,7.87E-06,3.89E-05,3.28E-05,1.16E-05,1.87E-05
1060,3.66E-06,9.66E-06,4.60E-05,7.93E-05,1.43E-05,1.83E-05
1061,-6.64E-07,1.51E-05,4.46E-05,0.000120769,1.72E-05,1.34E-05
1062,-1.14E-05,1.88E-05,3.82E-05,7.73E-05,2.24E-05,4.07E-06
1063,-1.78E-05,1.84E-05,3.14E-05,-2.06E-06,2.57E-05,-1.63E-06
1064,-1.05E-05,1.78E-05,1.90E-05,-4.93E-05,2.14E-05,-4.29E-07
1065,2.47E-07,1.92E-05,4.70E-06,-3.78E-05,1.26E-05,2.31E-06
1066,2.31E-06,2.22E-05,1.52E-06,3.58E-05,6.38E-06,3.29E-06
1067,-4.88E-06,2.41E-05,7.71E-06,0.000107007,5.69E-06,2.56E-06
1068,-1.60E-05,2.27E-05,1.46E-05,9.51E-05,8.75E-06,1.28E-06
1069,-2.17E-05,1.98E-05,1.72E-05,2.62E-05,1.46E-05,1.88E-06
1070,-1.65E-05,1.58E-05,1.08E-05,-2.01E-05,2.30E-05,6.20E-06
1071,-7.96E-06,1.14E-05,-9.88E-07,-1.50E-05,3.06E-05,1.20E-05
1072,-5.50E-06,9.54E-06,-3.62E-06,4.37E-05,3.31E-05,1.54E-05
1073,-8.43E-06,1.17E-05,2.40E-06,0.00011011,3.00E-05,1.62E-05
1074,-1.59E-05,1.55E-05,8.57E-06,0.000105199,2.31E-05,1.32E-05
1075,-2.37E-05,1.68E-05,1.52E-05,3.21E-05,1.32E-05,7.93E-06
1076,-2.10E-05,1.33E-05,1.54E-05,-2.00E-05,1.52E-06,6.96E-06
1077,-8.40E-06,8.39E-06,6.76E-06,-2.22E-05,-9.18E-06,1.16E-05
1078,-1.41E-07,7.52E-06,8.68E-06,3.19E-05,-1.82E-05,1.58E-05
1079,-2.80E-06,1.05E-05,2.28E-05,0.000110272,-2.34E-05,1.63E-05
1080,-1.56E-05,1.33E-05,3.06E-05,0.000118358,-2.43E-05,1.18E-05
1081,-2.73E-05,1.35E-05,3.52E-05,3.93E-05,-2.13E-05,7.02E-06
1082,-1.84E-05,1.10E-05,3.87E-05,-1.83E-05,-1.41E-05,7.10E-06
1083,-1.85E-06,1.14E-05,3.65E-05,-7.39E-06,-7.24E-06,9.52E-06
1084,1.19E-06,1.61E-05,3.01E-05,1.89E-05,-1.72E-06,1.17E-05
1085,2.58E-06,1.87E-05,3.15E-05,1.45E-05,5.31E-06,1.33E-05
1086,7.74E-06,1.79E-05,4.42E-05,1.69E-05,1.06E-05,1.20E-05
1087,1.15E-05,1.72E-05,5.24E-05,6.41E-05,8.98E-06,9.21E-06
1088,6.69E-06,1.83E-05,5.31E-05,0.000104541,1.13E-06,7.57E-06
1089,-7.45E-06,1.87E-05,5.46E-05,6.34E-05,-6.79E-06,8.28E-06
1090,-1.68E-05,1.85E-05,5.53E-05,-4.28E-06,-1.18E-05,1.29E-05
1091,-1.07E-05,1.79E-05,4.25E-05,-3.38E-05,-1.54E-05,1.89E-05
1092,3.34E-06,1.51E-05,2.54E-05,-1.21E-05,-1.91E-05,2.24E-05
1093,1.38E-05,1.10E-05,2.26E-05,6.01E-05,-2.11E-05,2.37E-05
1094,1.24E-05,7.97E-06,3.06E-05,0.000126582,-1.91E-05,2.24E-05
1095,-3.89E-06,6.55E-06,3.97E-05,0.000109124,-1.66E-05,1.65E-05
1096,-1.98E-05,7.15E-06,4.52E-05,2.75E-05,-2.04E-05,8.59E-06
1097,-1.73E-05,9.86E-06,4.03E-05,-3.56E-05,-2.95E-05,5.40E-06
1098,-2.36E-06,1.21E-05,2.61E-05,-3.96E-05,-3.66E-05,7.21E-06
1099,5.21E-06,1.30E-05,1.90E-05,2.44E-05,-3.68E-05,8.41E-06
1100,-1.03E-06,1.45E-05,1.90E-05,0.000102072,-3.07E-05,5.93E-06
1101,-1.54E-05,1.52E-05,1.78E-05,0.000100433,-2.12E-05,2.34E-06
1102,-2.63E-05,1.21E-05,1.81E-05,2.20E-05,-1.10E-05,2.36E-06
1103,-2.16E-05,7.30E-06,1.42E-05,-3.41E-05,-6.95E-07,6.36E-06
1104,-3.16E-06,4.49E-06,2.60E-06,-3.03E-05,1.21E-05,1.10E-05
1105,1.14E-05,5.08E-06,2.36E-06,3.96E-05,2.45E-05,1.55E-05
1106,1.16E-05,8.75E-06,1.42E-05,0.000133667,3.05E-05,2.04E-05
1107,-5.22E-06,1.15E-05,2.09E-05,0.00014864,2.55E-05,2.06E-05
1108,-2.35E-05,1.05E-05,2.20E-05,6.97E-05,1.08E-05,1.67E-05
1109,-2.13E-05,6.89E-06,1.98E-05,9.50E-06,-2.44E-06,1.87E-05
1110,-9.75E-06,6.03E-06,1.10E-05,3.08E-05,-6.11E-06,2.66E-05
1111,-6.80E-06,8.72E-06,8.35E-07,7.46E-05,-1.51E-06,2.82E-05
1112,-6.50E-06,9.23E-06,4.51E-06,6.49E-05,3.78E-06,2.30E-05
1113,-2.61E-06,9.12E-06,1.76E-05,5.47E-05,5.88E-06,1.92E-05
1114,2.23E-06,1.03E-05,2.37E-05,0.000108284,6.37E-06,1.75E-05
1115,-3.79E-07,1.06E-05,2.29E-05,0.00016533,5.73E-06,1.53E-05
1116,-1.40E-05,7.40E-06,2.56E-05,0.000128251,3.95E-06,1.03E-05
1117,-2.47E-05,4.70E-06,2.94E-05,4.73E-05,8.60E-07,5.26E-06
1118,-1.95E-05,3.94E-06,2.10E-05,-2.17E-06,-1.81E-06,2.22E-06
1119,-5.81E-06,5.11E-06,7.51E-06,1.58E-06,-2.36E-06,2.42E-06
1120,2.27E-06,9.07E-06,6.67E-06,6.62E-05,-1.37E-06,4.19E-06
1121,1.97E-06,1.33E-05,1.74E-05,0.000133694,-5.32E-07,4.80E-06
1122,-3.03E-06,1.46E-05,3.06E-05,0.00011631,-1.79E-06,4.46E-06
1123,-5.76E-06,1.36E-05,3.88E-05,3.17E-05,-6.35E-06,4.13E-06
1124,-3.05E-08,1.32E-05,3.57E-05,-3.02E-05,-1.23E-05,4.62E-06
1125,9.41E-06,1.40E-05,2.75E-05,-3.00E-05,-1.59E-05,5.28E-06
1126,1.10E-05,1.48E-05,2.91E-05,3.19E-05,-1.43E-05,5.65E-06
1127,1.32E-06,1.30E-05,3.69E-05,9.86E-05,-6.81E-06,3.78E-06
1128,-1.41E-05,1.03E-05,3.93E-05,8.58E-05,5.00E-06,-3.81E-07
1129,-2.35E-05,9.15E-06,3.86E-05,2.49E-06,1.62E-05,-3.07E-06
1130,-1.59E-05,9.35E-06,3.51E-05,-5.47E-05,2.20E-05,7.07E-07
1131,2.69E-06,9.55E-06,2.72E-05,-5.64E-05,2.22E-05,9.65E-06
1132,1.47E-05,1.08E-05,2.41E-05,2.58E-07,2.21E-05,1.68E-05
1133,1.12E-05,1.25E-05,2.65E-05,8.39E-05,2.33E-05,1.74E-05
1134,-5.81E-06,1.16E-05,3.12E-05,9.92E-05,1.76E-05,1.21E-05
1135,-2.08E-05,8.07E-06,4.03E-05,2.87E-05,4.05E-06,7.48E-06
1136,-1.65E-05,9.48E-06,4.05E-05,-1.63E-05,-1.82E-05,9.38E-06
1137,-2.45E-06,1.72E-05,2.33E-05,7.04E-06,-4.49E-05,1.34E-05
1138,5.51E-06,2.27E-05,1.90E-07,3.20E-05,-6.80E-05,1.38E-05
1139,8.04E-06,1.98E-05,-9.22E-06,1.80E-05,-8.50E-05,1.28E-05
1140,5.93E-06,1.38E-05,1.93E-07,1.91E-05,-9.03E-05,1.50E-05
1141,5.87E-07,1.23E-05,1.17E-05,7.75E-05,-8.11E-05,1.93E-05
1142,-7.33E-06,1.22E-05,1.20E-05,0.000134445,-6.20E-05,1.74E-05
1143,-1.78E-05,8.36E-06,1.20E-05,0.000104475,-4.17E-05,9.80E-06
1144,-2.06E-05,4.24E-06,1.92E-05,3.26E-05,-2.38E-05,3.69E-06
1145,-1.12E-05,4.10E-06,2.02E-05,-1.50E-05,-9.01E-06,3.79E-06
1146,8.00E-07,6.61E-06,1.78E-05,-1.21E-05,7.52E-07,7.61E-06
1147,7.14E-06,9.60E-06,2.70E-05,5.25E-05,5.55E-06,1.09E-05
1148,2.94E-06,1.09E-05,4.13E-05,0.000122791,8.59E-06,1.25E-05
1149,-9.89E-06,9.69E-06,4.95E-05,0.000113717,1.00E-05,1.27E-05
1150,-1.85E-05,7.61E-06,5.05E-05,4.15E-05,4.84E-06,1.33E-05
1151,-1.15E-05,7.37E-06,4.46E-05,-1.33E-05,-8.29E-06,1.59E-05
1152,2.81E-06,9.26E-06,3.53E-05,-1.10E-05,-2.36E-05,1.82E-05
1153,8.67E-06,1.16E-05,3.17E-05,5.58E-05,-3.49E-05,1.84E-05
1154,3.12E-06,1.35E-05,3.15E-05,0.000132522,-4.20E-05,1.81E-05
1155,-8.79E-06,1.41E-05,2.81E-05,0.000127257,-4.59E-05,1.70E-05
1156,-1.70E-05,1.28E-05,2.52E-05,4.42E-05,-4.45E-05,1.56E-05
1157,-1.01E-05,1.07E-05,2.21E-05,-1.22E-05,-3.43E-05,1.71E-05
1158,4.92E-06,9.65E-06,1.75E-05,-5.10E-06,-1.81E-05,2.18E-05
1159,1.13E-05,1.15E-05,2.12E-05,5.90E-05,-2.62E-06,2.49E-05
1160,7.51E-06,1.51E-05,2.87E-05,0.000133512,8.76E-06,2.15E-05
1161,-3.89E-06,1.57E-05,2.95E-05,0.00013348,1.70E-05,1.18E-05
1162,-1.13E-05,1.33E-05,2.97E-05,5.88E-05,2.30E-05,3.84E-06
1163,-1.33E-06,1.20E-05,2.76E-05,8.25E-06,2.55E-05,3.42E-06
1164,8.97E-06,1.31E-05,2.32E-05,2.16E-05,2.20E-05,8.51E-06
1165,6.17E-06,1.57E-05,2.24E-05,4.33E-05,1.92E-05,1.07E-05
1166,2.66E-06,1.60E-05,3.16E-05,2.70E-05,2.30E-05,1.07E-05
1167,3.05E-06,1.29E-05,4.41E-05,2.16E-05,2.76E-05,1.35E-05
1168,3.52E-06,9.93E-06,4.83E-05,7.46E-05,2.66E-05,1.65E-05
1169,-3.68E-06,1.03E-05,4.54E-05,0.000130506,2.04E-05,1.67E-05
1170,-1.96E-05,1.21E-05,4.43E-05,0.000103356,1.25E-05,1.34E-05
1171,-2.91E-05,1.37E-05,4.42E-05,4.21E-05,5.54E-06,1.04E-05
1172,-1.97E-05,1.43E-05,3.09E-05,1.41E-05,2.33E-07,1.17E-05
1173,-4.45E-06,1.37E-05,1.09E-05,3.89E-05,-4.29E-06,1.62E-05
1174,4.81E-07,1.29E-05,4.56E-06,0.000115837,-7.58E-06,2.09E-05
1175,-6.85E-06,1.39E-05,9.63E-06,0.000181925,-7.99E-06,2.24E-05
1176,-1.93E-05,1.47E-05,1.60E-05,0.000158217,-6.07E-06,2.00E-05
1177,-2.79E-05,1.33E-05,2.06E-05,7.51E-05,-4.93E-06,1.79E-05
1178,-2.58E-05,1.25E-05,1.85E-05,2.03E-05,-7.67E-06,2.03E-05
1179,-1.52E-05,1.42E-05,1.14E-05,2.71E-05,-1.52E-05,2.46E-05
1180,-6.07E-06,1.58E-05,1.17E-05,9.37E-05,-2.36E-05,2.51E-05
1181,-6.14E-06,1.45E-05,2.01E-05,0.000166074,-2.72E-05,2.03E-05
1182,-1.75E-05,1.12E-05,2.93E-05,0.000160642,-2.57E-05,1.36E-05
1183,-3.03E-05,8.99E-06,3.77E-05,8.27E-05,-2.27E-05,9.15E-06
1184,-3.12E-05,1.11E-05,3.75E-05,2.78E-05,-1.86E-05,8.73E-06
1185,-2.12E-05,1.47E-05,2.86E-05,2.49E-05,-5.23E-06,9.36E-06
1186,-1.39E-05,1.66E-05,2.78E-05,7.47E-05,2.78E-05,8.28E-06
1187,-1.49E-05,1.70E-05,3.63E-05,0.000147195,6.74E-05,7.05E-06
1188,-2.56E-05,1.46E-05,4.13E-05,0.00015322,8.62E-05,5.12E-06
1189,-3.68E-05,9.70E-06,4.58E-05,7.50E-05,7.55E-05,4.14E-06
1190,-2.92E-05,8.24E-06,5.02E-05,1.07E-05,3.86E-05,7.84E-06
1191,-1.15E-05,1.07E-05,4.71E-05,1.48E-05,-1.26E-05,1.04E-05
1192,-3.05E-06,1.28E-05,4.12E-05,4.42E-05,-6.00E-05,8.44E-06
1193,2.55E-07,1.32E-05,4.55E-05,4.45E-05,-8.71E-05,7.30E-06
1194,2.40E-06,1.10E-05,5.19E-05,4.85E-05,-8.84E-05,1.11E-05
1195,3.16E-06,1.00E-05,4.79E-05,0.000100679,-7.10E-05,1.67E-05
1196,-3.83E-06,1.31E-05,4.05E-05,0.000152116,-4.29E-05,1.73E-05
1197,-2.19E-05,1.54E-05,3.94E-05,0.000115305,-2.00E-05,1.60E-05
1198,-3.50E-05,1.34E-05,4.19E-05,3.94E-05,-1.86E-05,1.80E-05
1199,-2.76E-05,8.23E-06,3.36E-05,-4.55E-06,-3.88E-05,2.18E-05
1200,-1.13E-05,5.49E-06,2.04E-05,2.09E-06,-6.17E-05,2.21E-05
1201,-3.36E-06,8.64E-06,1.83E-05,6.15E-05,-6.95E-05,1.90E-05
1202,-9.03E-06,1.46E-05,2.45E-05,0.000118885,-6.06E-05,1.58E-05
1203,-2.16E-05,1.79E-05,3.40E-05,9.83E-05,-4.53E-05,1.24E-05
1204,-2.68E-05,1.70E-05,4.50E-05,2.34E-05,-3.08E-05,9.98E-06
1205,-1.68E-05,1.52E-05,4.84E-05,-2.66E-05,-1.63E-05,1.06E-05
1206,-2.88E-06,1.59E-05,4.05E-05,-2.42E-05,-2.58E-06,1.45E-05
1207,-6.41E-07,1.93E-05,3.40E-05,3.05E-05,6.29E-06,1.91E-05
1208,-9.59E-06,2.33E-05,3.24E-05,9.51E-05,8.34E-06,2.03E-05
1209,-2.05E-05,2.55E-05,3.29E-05,9.27E-05,7.06E-06,1.56E-05
1210,-2.46E-05,2.43E-05,3.63E-05,2.54E-05,4.76E-06,8.13E-06
1211,-1.75E-05,2.32E-05,3.30E-05,-1.97E-05,1.26E-06,4.38E-06
1212,-3.73E-06,2.43E-05,2.05E-05,-1.98E-05,-4.37E-06,7.72E-06
1213,3.88E-06,2.62E-05,1.63E-05,2.74E-05,-1.31E-05,1.27E-05
1214,4.14E-07,2.77E-05,1.98E-05,9.63E-05,-2.29E-05,1.28E-05
1215,-1.31E-05,2.71E-05,2.06E-05,0.000102666,-2.57E-05,6.65E-06
1216,-2.42E-05,2.30E-05,2.83E-05,3.01E-05,-2.09E-05,5.28E-07
1217,-1.69E-05,1.69E-05,3.80E-05,-2.62E-05,-1.64E-05,1.60E-06
1218,-1.80E-06,1.22E-05,3.49E-05,-1.77E-05,-1.45E-05,4.09E-06
1219,5.19E-06,1.15E-05,2.41E-05,7.18E-06,-1.37E-05,4.99E-06
1220,7.94E-06,1.21E-05,2.30E-05,-6.20E-06,-1.45E-05,6.50E-06
1221,6.79E-06,1.24E-05,3.11E-05,-1.19E-05,-1.59E-05,5.25E-06
1222,3.34E-06,1.21E-05,3.49E-05,3.83E-05,-1.73E-05,2.21E-06
1223,-3.93E-07,1.09E-05,3.70E-05,8.84E-05,-1.87E-05,-9.45E-08
1224,-1.03E-05,7.52E-06,4.40E-05,5.78E-05,-1.83E-05,-7.53E-07
1225,-1.79E-05,4.23E-06,5.25E-05,-1.52E-06,-1.64E-05,3.08E-06
1226,-1.08E-05,4.01E-06,4.90E-05,-2.85E-05,-1.35E-05,1.12E-05
1227,3.00E-06,4.77E-06,3.97E-05,-9.72E-06,-1.25E-05,1.82E-05
1228,9.73E-06,5.18E-06,4.18E-05,6.17E-05,-1.76E-05,2.18E-05
1229,5.79E-06,6.84E-06,4.96E-05,0.00013117,-2.97E-05,2.14E-05
1230,-5.05E-06,1.04E-05,5.44E-05,0.000115008,-4.23E-05,1.69E-05
1231,-1.33E-05,1.23E-05,5.41E-05,3.18E-05,-4.54E-05,1.28E-05
1232,-9.41E-06,1.10E-05,4.59E-05,-2.85E-05,-3.57E-05,1.39E-05
1233,3.03E-06,8.13E-06,3.29E-05,-2.45E-05,-1.89E-05,1.87E-05
1234,1.33E-05,6.64E-06,2.57E-05,4.16E-05,-2.61E-07,2.22E-05
1235,1.42E-05,7.05E-06,2.16E-05,0.000114199,1.86E-05,2.18E-05
1236,4.11E-06,7.96E-06,1.42E-05,0.000113154,3.58E-05,1.72E-05
1237,-7.82E-06,8.21E-06,7.53E-06,4.24E-05,4.95E-05,1.20E-05
1238,-9.18E-06,9.40E-06,1.15E-06,-1.02E-05,5.71E-05,9.67E-06
1239,-8.54E-07,1.11E-05,-6.84E-06,-1.78E-05,5.35E-05,9.60E-06
1240,6.76E-06,1.10E-05,-6.86E-06,2.83E-05,3.55E-05,9.23E-06
1241,7.92E-06,8.63E-06,8.94E-07,0.000101178,1.27E-05,8.58E-06
1242,-3.83E-06,5.37E-06,4.78E-06,0.000104327,1.33E-06,5.82E-06
1243,-1.84E-05,2.65E-06,8.44E-06,2.07E-05,6.03E-07,1.86E-07
1244,-1.57E-05,3.01E-06,1.53E-05,-4.25E-05,1.05E-05,1.08E-06
1245,-6.01E-06,7.05E-06,1.66E-05,-3.33E-05,4.77E-05,1.06E-05
1246,-3.21E-06,1.22E-05,1.14E-05,-4.24E-06,0.000104124,2.02E-05
1247,4.14E-07,1.67E-05,1.92E-05,-5.58E-06,0.000145612,2.75E-05
1248,4.77E-06,1.87E-05,3.75E-05,4.85E-06,0.000153661,2.93E-05
1249,3.59E-06,1.88E-05,4.61E-05,6.88E-05,0.000135129,2.82E-05
1250,-4.47E-06,1.85E-05,4.48E-05,0.000124527,0.000104652,2.58E-05
1251,-1.81E-05,1.73E-05,4.94E-05,8.56E-05,6.48E-05,2.05E-05
1252,-2.37E-05,1.41E-05,6.01E-05,1.03E-05,6.82E-06,1.66E-05
1253,-1.13E-05,1.09E-05,5.60E-05,-2.98E-05,-6.70E-05,1.64E-05
1254,5.24E-06,9.34E-06,4.18E-05,-1.35E-05,-0.000136596,1.70E-05
1255,1.07E-05,1.08E-05,3.79E-05,6.13E-05,-0.000182181,1.81E-05
1256,1.81E-06,1.46E-05,4.48E-05,0.000134068,-0.000198673,1.92E-05
1257,-1.45E-05,1.66E-05,5.48E-05,0.000121312,-0.000191777,1.74E-05
1258,-2.28E-05,1.63E-05,6.03E-05,4.21E-05,-0.000165978,1.42E-05
1259,-1.51E-05,1.68E-05,5.35E-05,-2.16E-05,-0.000124482,1.44E-05
1260,-1.08E-06,1.80E-05,3.94E-05,-2.88E-05,-7.38E-05,1.78E-05
1261,6.21E-06,1.83E-05,3.44E-05,3.02E-05,-2.53E-05,2.02E-05
1262,4.46E-07,1.79E-05,3.69E-05,0.000104025,7.43E-06,1.92E-05
1263,-1.55E-05,1.62E-05,3.62E-05,0.000105835,1.77E-05,1.54E-05
1264,-2.81E-05,1.34E-05,3.22E-05,3.45E-05,1.21E-05,1.17E-05
1265,-2.72E-05,1.08E-05,2.34E-05,-1.93E-05,2.21E-06,1.11E-05
1266,-1.77E-05,9.45E-06,8.96E-06,-2.12E-05,-4.80E-06,1.38E-05
1267,-1.20E-05,8.71E-06,5.70E-06,3.73E-05,-8.36E-06,1.70E-05
1268,-1.64E-05,8.00E-06,1.38E-05,0.000120168,-9.91E-06,1.62E-05
1269,-2.97E-05,6.64E-06,1.71E-05,0.000128408,-1.19E-05,1.04E-05
1270,-3.63E-05,3.86E-06,1.91E-05,4.49E-05,-1.41E-05,6.32E-06
1271,-2.13E-05,1.04E-06,2.06E-05,-1.89E-05,-1.28E-05,9.73E-06
1272,-3.77E-06,5.12E-07,1.45E-05,-1.25E-05,-8.40E-06,1.53E-05
1273,-1.86E-06,2.55E-06,1.96E-06,9.60E-06,-6.75E-06,1.59E-05
1274,-4.69E-06,5.06E-06,-1.17E-06,4.44E-06,-1.12E-05,1.60E-05
1275,-2.59E-06,7.52E-06,7.87E-06,1.45E-05,-1.94E-05,1.95E-05
1276,8.32E-07,9.43E-06,1.51E-05,7.26E-05,-2.46E-05,2.01E-05
1277,-3.93E-06,9.23E-06,1.68E-05,0.000125963,-2.20E-05,1.33E-05
1278,-1.75E-05,6.27E-06,1.87E-05,9.89E-05,-1.54E-05,3.71E-06
1279,-2.72E-05,3.51E-06,2.05E-05,3.98E-05,-1.11E-05,-9.65E-07
1280,-2.23E-05,3.03E-06,1.11E-05,7.62E-06,-9.35E-06,1.29E-06
1281,-1.18E-05,5.04E-06,-1.56E-06,1.67E-05,-7.78E-06,5.33E-06
1282,-5.92E-06,9.22E-06,-5.58E-07,7.75E-05,-5.47E-06,7.36E-06
1283,-7.53E-06,1.16E-05,7.92E-06,0.000143507,-5.70E-06,5.08E-06
1284,-1.48E-05,8.42E-06,1.48E-05,0.000134369,-1.36E-05,-6.10E-07
1285,-2.02E-05,2.99E-06,1.89E-05,6.78E-05,-2.55E-05,-2.27E-06
1286,-1.40E-05,1.32E-06,1.74E-05,2.04E-05,-3.07E-05,4.02E-06
1287,1.23E-06,5.13E-06,1.20E-05,1.87E-05,-2.26E-05,1.34E-05
1288,1.15E-05,1.20E-05,1.33E-05,6.76E-05,-4.03E-06,1.86E-05
1289,8.31E-06,1.74E-05,1.91E-05,0.000127765,1.83E-05,1.71E-05
1290,-3.94E-06,1.89E-05,2.12E-05,0.000119007,3.73E-05,1.13E-05
1291,-1.11E-05,1.77E-05,2.32E-05,4.13E-05,4.59E-05,8.34E-06
1292,-3.88E-06,1.69E-05,2.35E-05,-1.16E-05,4.05E-05,1.14E-05
1293,8.29E-06,1.70E-05,1.65E-05,-5.36E-06,2.12E-05,1.60E-05
1294,1.15E-05,1.67E-05,1.35E-05,5.90E-05,-5.90E-06,1.82E-05
1295,7.94E-06,1.69E-05,1.90E-05,0.000142929,-3.09E-05,1.63E-05
1296,-2.30E-06,1.71E-05,2.19E-05,0.000154248,-4.91E-05,9.48E-06
1297,-1.46E-05,1.60E-05,2.26E-05,7.03E-05,-6.14E-05,4.30E-06
1298,-9.38E-06,1.52E-05,1.88E-05,-3.16E-06,-6.21E-05,7.58E-06
1299,3.75E-06,1.51E-05,9.58E-06,-7.64E-06,-4.45E-05,9.88E-06
1300,3.38E-06,1.45E-05,3.65E-07,1.17E-05,-1.62E-05,7.74E-06
1301,-2.06E-06,1.25E-05,2.79E-06,1.00E-05,1.06E-05,9.35E-06
1302,-1.17E-06,1.08E-05,1.24E-05,2.58E-05,3.02E-05,1.47E-05
1303,2.19E-06,1.37E-05,1.49E-05,8.54E-05,4.41E-05,1.99E-05
1304,-1.50E-06,1.83E-05,1.13E-05,0.000130417,5.16E-05,1.98E-05
1305,-1.19E-05,1.81E-05,1.19E-05,9.16E-05,5.13E-05,1.40E-05
1306,-1.76E-05,1.45E-05,1.82E-05,2.59E-05,4.36E-05,7.62E-06
1307,-1.25E-05,1.30E-05,1.38E-05,-9.23E-06,3.32E-05,8.19E-06
1308,-4.52E-06,1.44E-05,3.64E-06,2.30E-06,2.46E-05,1.39E-05
1309,7.43E-07,1.57E-05,4.46E-06,7.28E-05,1.93E-05,1.94E-05
1310,-1.22E-06,1.47E-05,1.19E-05,0.000144162,1.61E-05,2.03E-05
1311,-1.14E-05,1.12E-05,2.06E-05,0.000129054,1.14E-05,1.62E-05
1312,-1.88E-05,7.62E-06,3.20E-05,4.47E-05,5.24E-06,1.27E-05
1313,-1.22E-05,7.49E-06,3.62E-05,-2.05E-05,6.98E-08,1.37E-05
1314,2.00E-06,1.05E-05,2.72E-05,-2.39E-05,-2.87E-06,1.92E-05
1315,1.01E-05,1.44E-05,1.88E-05,3.97E-05,-6.11E-06,2.47E-05
1316,8.57E-06,1.73E-05,2.24E-05,0.000115145,-9.18E-06,2.56E-05
1317,4.36E-07,1.76E-05,3.37E-05,0.000116483,-9.77E-06,2.11E-05
1318,-3.00E-06,1.46E-05,4.13E-05,4.61E-05,-8.36E-06,1.85E-05
1319,7.12E-06,1.09E-05,3.60E-05,-4.41E-06,-9.88E-06,2.14E-05
1320,2.05E-05,1.02E-05,2.65E-05,-3.29E-06,-1.52E-05,2.43E-05
1321,2.33E-05,1.16E-05,3.14E-05,5.24E-05,-1.87E-05,2.32E-05
1322,1.42E-05,1.20E-05,4.50E-05,0.000128732,-1.70E-05,1.98E-05
1323,-1.94E-06,9.66E-06,5.19E-05,0.000132349,-1.27E-05,1.31E-05
1324,-9.08E-06,5.32E-06,5.84E-05,4.51E-05,-9.54E-06,7.56E-06
1325,8.35E-06,5.63E-06,6.44E-05,-3.46E-05,-1.03E-05,8.79E-06
1326,3.12E-05,9.89E-06,5.87E-05,-5.17E-05,-1.53E-05,1.22E-05
1327,3.73E-05,1.19E-05,4.73E-05,-4.18E-05,-1.89E-05,1.39E-05
1328,3.75E-05,1.05E-05,4.64E-05,-5.35E-05,-1.80E-05,1.30E-05
1329,3.82E-05,8.77E-06,5.33E-05,-5.03E-05,-1.75E-05,1.31E-05
1330,3.67E-05,1.01E-05,5.51E-05,3.57E-06,-1.73E-05,1.51E-05
1331,2.56E-05,1.39E-05,5.02E-05,5.33E-05,-1.36E-05,1.27E-05
1332,6.02E-06,1.70E-05,4.62E-05,2.17E-05,-9.22E-06,6.19E-06
1333,-6.40E-06,1.70E-05,4.54E-05,-3.96E-05,-7.88E-06,1.99E-06
1334,-1.77E-06,1.50E-05,3.68E-05,-6.83E-05,-9.59E-06,3.92E-06
1335,8.46E-06,1.31E-05,2.33E-05,-4.82E-05,-1.32E-05,7.57E-06
1336,1.36E-05,1.36E-05,1.95E-05,2.70E-05,-1.77E-05,9.42E-06
1337,1.01E-05,1.51E-05,2.42E-05,0.000101669,-2.14E-05,8.43E-06
1338,-1.33E-07,1.45E-05,3.12E-05,9.34E-05,-2.44E-05,4.80E-06
1339,-6.59E-06,1.12E-05,3.59E-05,2.00E-05,-2.75E-05,2.54E-06
1340,-2.07E-06,7.78E-06,3.13E-05,-3.50E-05,-2.86E-05,4.74E-06
1341,6.06E-06,6.70E-06,1.87E-05,-3.47E-05,-2.36E-05,8.56E-06
1342,6.41E-06,9.53E-06,1.23E-05,2.72E-05,-1.32E-05,9.87E-06
1343,-2.31E-06,1.52E-05,1.45E-05,0.00010361,-2.29E-06,8.96E-06
1344,-1.71E-05,1.84E-05,1.94E-05,0.000110801,5.78E-06,7.28E-06
1345,-2.88E-05,1.71E-05,2.37E-05,4.33E-05,1.07E-05,7.59E-06
1346,-2.89E-05,1.50E-05,2.06E-05,-1.09E-05,1.29E-05,1.11E-05
1347,-1.93E-05,1.37E-05,1.34E-05,-1.35E-05,1.06E-05,1.46E-05
1348,-9.80E-06,1.39E-05,1.55E-05,4.44E-05,3.48E-06,1.62E-05
1349,-7.95E-06,1.54E-05,2.57E-05,0.000125712,-2.95E-06,1.66E-05
1350,-1.89E-05,1.50E-05,3.32E-05,0.000141001,-5.36E-06,1.04E-05
1351,-3.07E-05,1.35E-05,3.66E-05,7.84E-05,-5.50E-06,1.76E-06
1352,-2.39E-05,1.25E-05,3.17E-05,3.27E-05,-6.15E-06,1.32E-06
1353,-8.88E-06,1.15E-05,2.26E-05,4.42E-05,-8.87E-06,4.73E-06
1354,-3.58E-06,1.35E-05,1.89E-05,6.82E-05,-1.26E-05,4.51E-06
1355,-2.43E-06,1.67E-05,2.44E-05,6.20E-05,-1.37E-05,4.26E-06
1356,-1.94E-06,1.78E-05,3.48E-05,6.55E-05,-1.20E-05,7.56E-06
1357,-5.16E-07,1.83E-05,4.18E-05,0.000121948,-3.82E-06,1.10E-05
1358,-3.47E-06,1.81E-05,4.46E-05,0.00017721,2.61E-05,8.24E-06
1359,-1.54E-05,1.64E-05,4.30E-05,0.000144228,7.23E-05,1.49E-06
1360,-2.48E-05,1.36E-05,4.09E-05,6.91E-05,0.000103749,-1.53E-06
1361,-1.97E-05,1.27E-05,3.57E-05,2.25E-05,0.000100039,1.83E-06
1362,-9.54E-06,1.36E-05,2.96E-05,3.08E-05,6.56E-05,6.70E-06
1363,-7.08E-06,1.50E-05,2.90E-05,0.00010104,1.61E-05,8.48E-06
1364,-1.34E-05,1.64E-05,2.97E-05,0.00017426,-3.69E-05,7.20E-06
1365,-2.38E-05,1.58E-05,2.96E-05,0.000167514,-8.77E-05,4.38E-06
1366,-2.91E-05,1.33E-05,2.93E-05,9.68E-05,-0.000125612,4.44E-06
1367,-2.33E-05,1.12E-05,2.34E-05,4.25E-05,-0.000137708,7.98E-06
1368,-1.13E-05,9.98E-06,1.13E-05,3.95E-05,-0.000124676,1.03E-05
1369,-4.50E-06,1.01E-05,8.08E-06,9.52E-05,-0.000101041,8.99E-06
1370,-7.16E-06,1.29E-05,1.68E-05,0.00016593,-7.89E-05,6.11E-06
1371,-1.80E-05,1.46E-05,2.68E-05,0.000166321,-5.99E-05,3.46E-06
1372,-2.72E-05,1.28E-05,3.42E-05,9.25E-05,-4.13E-05,6.10E-06
1373,-2.22E-05,1.14E-05,3.39E-05,3.66E-05,-2.20E-05,1.58E-05
1374,-7.81E-06,1.20E-05,2.30E-05,3.08E-05,-4.09E-06,2.54E-05
1375,-2.91E-06,1.09E-05,1.71E-05,7.80E-05,9.59E-06,2.94E-05
1376,-1.03E-05,8.26E-06,2.13E-05,0.000144302,1.74E-05,2.93E-05
1377,-2.63E-05,6.33E-06,2.95E-05,0.000144435,1.69E-05,2.64E-05
1378,-3.89E-05,6.31E-06,4.18E-05,6.95E-05,1.02E-05,2.26E-05
1379,-3.17E-05,8.73E-06,4.90E-05,1.52E-05,4.54E-06,1.95E-05
1380,-1.65E-05,1.19E-05,4.26E-05,2.81E-05,1.28E-06,1.54E-05
1381,-1.02E-05,1.29E-05,3.22E-05,6.00E-05,-4.77E-06,1.30E-05
1382,-6.62E-06,1.12E-05,3.53E-05,5.29E-05,-1.41E-05,1.36E-05
1383,-2.69E-07,9.80E-06,4.70E-05,5.07E-05,-1.95E-05,1.30E-05
1384,5.46E-06,1.09E-05,5.31E-05,0.000106725,-1.81E-05,1.01E-05
1385,2.40E-06,1.32E-05,5.34E-05,0.000162993,-1.45E-05,4.24E-06
1386,-1.21E-05,1.50E-05,5.72E-05,0.000127804,-1.06E-05,-2.35E-06
1387,-2.42E-05,1.55E-05,6.36E-05,5.07E-05,-6.18E-06,-4.89E-06
1388,-2.07E-05,1.46E-05,5.74E-05,5.20E-06,-7.64E-07,-2.64E-07
1389,-8.56E-06,1.29E-05,4.41E-05,1.35E-05,5.45E-06,6.94E-06
1390,6.46E-08,1.24E-05,4.07E-05,8.16E-05,1.01E-05,1.22E-05
1391,-2.30E-06,1.46E-05,4.54E-05,0.000153986,1.10E-05,1.45E-05
1392,-1.50E-05,1.76E-05,5.26E-05,0.000145323,8.99E-06,1.40E-05
1393,-2.45E-05,1.70E-05,5.94E-05,7.03E-05,7.42E-06,1.28E-05
1394,-2.07E-05,1.36E-05,5.89E-05,1.16E-05,6.61E-06,1.46E-05
1395,-1.09E-05,1.18E-05,4.95E-05,6.16E-06,5.65E-06,2.02E-05
1396,-5.57E-06,1.23E-05,4.27E-05,6.01E-05,4.81E-06,2.49E-05
1397,-6.74E-06,1.30E-05,4.19E-05,0.000129702,3.11E-06,2.44E-05
1398,-1.49E-05,1.24E-05,4.40E-05,0.00012913,-5.99E-07,1.84E-05
1399,-2.52E-05,1.12E-05,4.95E-05,4.96E-05,-5.06E-06,1.29E-05
1400,-2.53E-05,9.76E-06,4.86E-05,-1.75E-05,-9.44E-06,1.42E-05
1401,-1.68E-05,8.39E-06,3.63E-05,-2.77E-05,-1.46E-05,2.05E-05
1402,-1.47E-05,1.09E-05,2.87E-05,2.68E-05,-1.72E-05,2.48E-05
1403,-1.78E-05,1.80E-05,3.00E-05,0.000106919,-1.43E-05,2.22E-05
1404,-2.26E-05,2.27E-05,3.25E-05,0.000114885,-9.69E-06,1.46E-05
1405,-2.54E-05,2.11E-05,3.82E-05,3.66E-05,-5.87E-06,1.07E-05
1406,-1.79E-05,1.72E-05,4.19E-05,-2.00E-05,-3.67E-06,1.60E-05
1407,-1.01E-05,1.50E-05,3.49E-05,-7.17E-06,-5.11E-06,2.26E-05
1408,-8.59E-06,1.46E-05,2.54E-05,2.08E-05,-7.49E-06,2.35E-05
1409,-5.65E-06,1.53E-05,2.80E-05,7.78E-06,-7.30E-06,2.51E-05
1410,-1.54E-06,1.54E-05,3.43E-05,-8.62E-07,-7.40E-06,3.06E-05
1411,1.82E-06,1.54E-05,3.39E-05,4.78E-05,-1.14E-05,3.36E-05
1412,-2.65E-06,1.58E-05,2.96E-05,0.000103112,-1.38E-05,2.65E-05
1413,-1.73E-05,1.56E-05,2.69E-05,7.99E-05,-1.01E-05,1.37E-05
1414,-2.71E-05,1.34E-05,2.55E-05,1.33E-05,-5.84E-06,6.27E-06
1415,-1.94E-05,8.26E-06,1.67E-05,-3.63E-05,-4.67E-06,5.99E-06
1416,-4.95E-06,3.79E-06,6.14E-06,-3.71E-05,-5.50E-06,7.10E-06
1417,2.64E-06,3.22E-06,5.16E-06,3.10E-05,-8.15E-06,7.61E-06
1418,-3.24E-07,5.60E-06,1.13E-05,0.000108014,-1.12E-05,7.87E-06
1419,-1.06E-05,6.91E-06,1.99E-05,0.000100895,-1.25E-05,8.26E-06
1420,-1.59E-05,6.45E-06,2.61E-05,2.63E-05,-1.10E-05,1.09E-05
1421,-9.58E-06,6.35E-06,2.11E-05,-2.62E-05,-9.04E-06,1.62E-05
1422,4.90E-08,7.77E-06,7.40E-06,-1.61E-05,-8.92E-06,2.12E-05
1423,3.54E-06,9.93E-06,7.54E-07,5.34E-05,-8.39E-06,2.08E-05
1424,1.23E-06,1.23E-05,5.32E-06,0.000128118,-5.53E-06,1.39E-05
1425,-5.79E-06,1.33E-05,1.54E-05,0.000126522,-2.59E-06,4.91E-06
1426,-1.07E-05,1.18E-05,2.73E-05,5.03E-05,-1.85E-06,8.82E-07
1427,-4.47E-06,1.11E-05,3.01E-05,-1.33E-05,-4.40E-06,2.89E-06
1428,8.58E-06,1.39E-05,2.23E-05,-2.99E-05,-9.60E-06,6.84E-06
1429,1.69E-05,1.92E-05,2.30E-05,1.78E-05,-1.42E-05,9.69E-06
1430,1.52E-05,2.24E-05,3.31E-05,9.90E-05,-1.91E-05,1.17E-05
1431,-1.43E-07,1.91E-05,3.54E-05,0.000107484,-2.96E-05,1.19E-05
1432,-1.67E-05,1.28E-05,3.24E-05,2.55E-05,-4.52E-05,1.07E-05
1433,-1.23E-05,1.03E-05,2.75E-05,-3.19E-05,-5.51E-05,1.16E-05
1434,3.37E-06,1.14E-05,1.63E-05,-6.07E-06,-5.03E-05,1.36E-05
1435,8.85E-06,1.33E-05,2.52E-06,4.27E-05,-3.73E-05,1.47E-05
1436,8.18E-06,1.48E-05,-1.04E-06,4.02E-05,-2.70E-05,1.60E-05
1437,1.01E-05,1.37E-05,5.75E-06,3.40E-05,-1.67E-05,1.75E-05
1438,1.19E-05,1.22E-05,1.02E-05,8.20E-05,-2.76E-06,2.18E-05
1439,3.79E-06,1.27E-05,8.90E-06,0.00012621,1.11E-05,2.51E-05
1440,-1.61E-05,1.29E-05,5.81E-06,9.01E-05,2.01E-05,2.25E-05
1441,-3.02E-05,1.15E-05,1.02E-06,2.60E-05,2.66E-05,1.87E-05
1442,-2.29E-05,1.05E-05,-1.57E-05,-8.51E-06,3.11E-05,1.85E-05
1443,-4.71E-06,9.49E-06,-3.53E-05,-2.71E-06,3.05E-05,1.90E-05
1444,5.79E-06,9.54E-06,-3.98E-05,5.68E-05,2.41E-05,1.83E-05
1445,1.77E-06,1.13E-05,-3.28E-05,0.000126215,1.65E-05,1.80E-05
1446,-9.96E-06,1.25E-05,-2.25E-05,0.000121549,1.16E-05,1.74E-05
1447,-1.65E-05,1.14E-05,-9.89E-06,5.05E-05,1.00E-05,1.64E-05
1448,-1.19E-05,8.83E-06,-1.76E-06,-7.21E-06,1.10E-05,1.72E-05
1449,-3.39E-06,8.13E-06,-2.69E-06,-9.13E-06,1.08E-05,1.77E-05
1450,-1.55E-06,1.15E-05,-4.68E-07,5.23E-05,6.80E-06,1.50E-05
1451,-8.84E-06,1.78E-05,7.11E-06,0.000125996,3.82E-07,1.17E-05
1452,-2.08E-05,2.20E-05,1.32E-05,0.000122279,-5.70E-06,9.21E-06
1453,-2.85E-05,2.11E-05,1.86E-05,4.10E-05,-9.72E-06,9.29E-06
1454,-2.39E-05,1.74E-05,2.04E-05,-2.22E-05,-9.49E-06,1.42E-05
1455,-1.09E-05,1.41E-05,1.90E-05,-3.28E-05,-5.94E-06,1.97E-05
1456,-3.11E-06,1.35E-05,3.15E-05,1.64E-05,-2.89E-06,2.19E-05
1457,-5.44E-06,1.64E-05,5.65E-05,9.70E-05,-4.01E-06,2.11E-05
1458,-1.59E-05,1.87E-05,7.48E-05,0.000110366,-6.66E-06,1.55E-05
1459,-2.23E-05,1.64E-05,8.88E-05,3.73E-05,-8.00E-06,9.26E-06
1460,-1.02E-05,1.25E-05,9.40E-05,-1.66E-05,-9.60E-06,8.93E-06
1461,2.68E-06,1.14E-05,8.76E-05,1.10E-06,-1.31E-05,1.04E-05
1462,-3.86E-07,1.31E-05,7.71E-05,3.55E-05,-1.91E-05,1.07E-05
1463,-1.05E-06,1.46E-05,7.40E-05,1.66E-05,-2.80E-05,1.17E-05
1464,9.98E-06,1.66E-05,8.10E-05,-3.93E-06,-3.95E-05,1.18E-05
1465,2.09E-05,2.01E-05,8.31E-05,4.00E-05,-5.05E-05,1.15E-05
1466,1.80E-05,2.25E-05,7.59E-05,9.07E-05,-5.67E-05,1.08E-05
1467,3.28E-06,2.12E-05,6.85E-05,5.94E-05,-5.75E-05,9.31E-06
1468,-5.00E-06,1.78E-05,6.29E-05,-9.00E-06,-5.22E-05,6.56E-06
1469,2.46E-06,1.59E-05,4.57E-05,-4.59E-05,-3.84E-05,4.98E-06
1470,1.39E-05,1.66E-05,2.45E-05,-3.08E-05,-1.85E-05,5.47E-06
1471,1.46E-05,1.87E-05,1.45E-05,4.02E-05,1.89E-06,5.83E-06
1472,4.96E-06,1.88E-05,1.45E-05,0.000105565,1.72E-05,4.13E-06
1473,-5.36E-06,1.43E-05,1.89E-05,8.41E-05,2.56E-05,1.21E-06
1474,-7.20E-06,9.56E-06,2.09E-05,1.41E-06,2.97E-05,1.44E-06
1475,-3.72E-07,8.84E-06,1.09E-05,-5.51E-05,3.22E-05,5.97E-06
1476,6.95E-06,9.50E-06,-6.82E-06,-4.77E-05,3.10E-05,9.70E-06
1477,7.63E-06,9.30E-06,-9.80E-06,2.68E-05,2.32E-05,7.43E-06
1478,1.36E-06,1.05E-05,2.54E-06,0.000117836,1.21E-05,1.35E-06
1479,-9.61E-06,1.28E-05,1.36E-05,0.000135791,5.42E-06,-3.43E-06
1480,-1.76E-05,1.37E-05,1.65E-05,7.22E-05,6.18E-06,-3.54E-06
1481,-1.34E-05,1.17E-05,8.44E-06,1.49E-05,1.37E-05,2.00E-06
1482,-1.52E-06,7.25E-06,-6.30E-06,6.78E-06,2.47E-05,1.03E-05
1483,5.47E-06,6.32E-06,-9.11E-06,5.96E-05,3.54E-05,1.51E-05
1484,2.27E-06,1.01E-05,-2.87E-06,0.000138464,4.37E-05,1.66E-05
1485,-1.07E-05,1.09E-05,-8.12E-07,0.000147462,4.56E-05,1.69E-05
1486,-2.30E-05,7.62E-06,8.85E-07,7.07E-05,3.81E-05,1.59E-05
1487,-1.76E-05,6.57E-06,2.67E-06,1.25E-05,1.92E-05,1.82E-05
1488,-3.91E-06,1.01E-05,-5.26E-06,1.97E-05,-9.42E-06,2.16E-05
1489,-3.07E-07,1.39E-05,-1.74E-05,4.08E-05,-3.88E-05,2.11E-05
1490,-1.82E-06,1.52E-05,-1.42E-05,2.83E-05,-5.96E-05,1.83E-05
1491,-1.01E-06,1.53E-05,-1.00E-06,2.19E-05,-7.11E-05,1.49E-05
1492,2.84E-06,1.67E-05,6.93E-06,6.72E-05,-7.60E-05,1.26E-05
1493,2.45E-06,1.86E-05,9.49E-06,0.000112353,-7.37E-05,9.71E-06
1494,-7.17E-06,1.74E-05,1.18E-05,7.55E-05,-6.18E-05,6.78E-06
1495,-1.64E-05,1.35E-05,1.35E-05,4.81E-06,-4.42E-05,8.63E-06
1496,-1.04E-05,9.27E-06,7.09E-06,-3.26E-05,-3.21E-05,1.30E-05
1497,5.03E-06,9.24E-06,1.48E-06,-1.45E-05,-3.27E-05,1.49E-05
1498,1.54E-05,1.43E-05,9.45E-06,6.07E-05,-4.26E-05,1.41E-05
1499,1.40E-05,1.93E-05,2.00E-05,0.00012867,-5.08E-05,1.28E-05
1500,3.73E-06,1.96E-05,2.52E-05,0.000108099,-5.12E-05,1.04E-05
1501,-3.09E-06,1.74E-05,2.82E-05,2.71E-05,-4.40E-05,7.86E-06
1502,2.05E-06,1.56E-05,2.63E-05,-2.73E-05,-2.93E-05,7.72E-06
1503,1.08E-05,1.38E-05,1.97E-05,-2.16E-05,-8.25E-06,1.01E-05
1504,1.17E-05,1.16E-05,2.21E-05,4.47E-05,1.18E-05,1.30E-05
1505,5.29E-06,9.10E-06,3.52E-05,0.000121482,2.46E-05,1.37E-05
1506,-5.73E-06,6.34E-06,4.51E-05,0.00012357,3.09E-05,1.18E-05
1507,-1.50E-05,5.08E-06,4.41E-05,4.97E-05,3.33E-05,1.01E-05
1508,-1.42E-05,6.26E-06,3.01E-05,-6.13E-06,3.38E-05,1.14E-05
1509,-5.26E-06,8.92E-06,1.11E-05,-6.09E-06,4.24E-05,1.48E-05
1510,1.23E-06,1.39E-05,9.36E-06,5.02E-05,7.09E-05,1.73E-05
1511,2.46E-07,1.76E-05,2.34E-05,0.000126964,0.000111087,1.87E-05
1512,-1.05E-05,1.41E-05,3.22E-05,0.000134454,0.000137447,1.73E-05
1513,-2.15E-05,6.79E-06,3.99E-05,5.75E-05,0.000137793,1.54E-05
1514,-1.71E-05,3.58E-06,4.35E-05,1.02E-06,0.000116698,1.96E-05
1515,-4.73E-06,5.63E-06,3.41E-05,1.57E-05,8.11E-05,2.49E-05
1516,1.28E-06,8.52E-06,2.19E-05,4.32E-05,2.89E-05,2.46E-05
1517,3.89E-06,9.14E-06,2.15E-05,3.15E-05,-4.32E-05,2.22E-05
1518,6.44E-06,1.02E-05,3.33E-05,3.13E-05,-0.000118754,2.07E-05
1519,7.63E-06,1.34E-05,4.29E-05,8.81E-05,-0.000175234,1.94E-05
1520,1.48E-06,1.58E-05,4.36E-05,0.000142605,-0.00020138,1.53E-05
1521,-1.63E-05,1.58E-05,4.10E-05,0.000108622,-0.000203849,9.78E-06
1522,-3.26E-05,1.32E-05,3.84E-05,3.61E-05,-0.000192003,5.61E-06
1523,-3.00E-05,7.99E-06,2.78E-05,-6.74E-06,-0.000165365,3.43E-06
1524,-1.30E-05,4.06E-06,1.80E-05,5.43E-07,-0.000122996,2.76E-06
1525,1.90E-06,5.05E-06,2.12E-05,6.70E-05,-7.23E-05,3.97E-06
1526,4.54E-06,7.96E-06,2.95E-05,0.00013341,-2.83E-05,5.05E-06
1527,-3.08E-06,8.00E-06,3.49E-05,0.000112071,-4.13E-06,3.42E-06
1528,-1.04E-05,6.13E-06,3.78E-05,2.69E-05,-1.95E-06,2.40E-06
1529,-9.99E-06,5.18E-06,3.44E-05,-2.92E-05,-1.24E-05,5.62E-06
1530,-5.84E-06,5.02E-06,2.39E-05,-2.21E-05,-2.34E-05,1.03E-05
1531,-4.96E-06,5.48E-06,2.15E-05,4.09E-05,-2.33E-05,1.27E-05
1532,-8.75E-06,6.92E-06,2.96E-05,0.000108722,5.40E-07,1.23E-05
1533,-1.86E-05,8.79E-06,3.67E-05,0.000102881,4.75E-05,8.56E-06
1534,-2.86E-05,1.00E-05,3.75E-05,2.59E-05,9.21E-05,5.07E-06
1535,-2.64E-05,1.09E-05,3.00E-05,-3.03E-05,0.000107943,7.90E-06
1536,-1.37E-05,1.32E-05,1.78E-05,-3.23E-05,9.09E-05,1.45E-05
1537,-5.87E-06,1.63E-05,1.60E-05,2.85E-05,5.19E-05,1.78E-05
1538,-8.62E-06,1.74E-05,2.17E-05,0.000122636,3.03E-06,1.68E-05
1539,-2.06E-05,1.60E-05,2.27E-05,0.000150485,-4.56E-05,1.08E-05
1540,-3.40E-05,1.29E-05,2.49E-05,8.34E-05,-8.20E-05,3.80E-06
1541,-3.16E-05,1.10E-05,2.62E-05,2.09E-05,-9.31E-05,4.39E-06
1542,-1.98E-05,1.15E-05,1.94E-05,3.06E-05,-7.71E-05,9.35E-06
1543,-1.57E-05,1.37E-05,1.11E-05,6.91E-05,-4.76E-05,1.26E-05
1544,-1.19E-05,1.45E-05,1.57E-05,5.99E-05,-2.36E-05,1.51E-05
1545,-3.30E-06,1.43E-05,3.00E-05,4.12E-05,-1.67E-05,1.62E-05
1546,4.13E-06,1.49E-05,3.97E-05,7.57E-05,-2.35E-05,1.20E-05
1547,-5.85E-07,1.63E-05,4.04E-05,0.000120397,-3.03E-05,4.23E-06
1548,-1.71E-05,1.52E-05,4.16E-05,9.35E-05,-2.87E-05,8.50E-07
1549,-2.80E-05,1.16E-05,4.63E-05,3.23E-05,-1.89E-05,5.15E-06
1550,-2.07E-05,8.73E-06,3.92E-05,2.02E-06,-7.63E-06,1.21E-05
1551,-5.88E-06,8.12E-06,2.39E-05,2.32E-05,3.25E-07,1.60E-05
1552,2.66E-06,1.10E-05,2.11E-05,9.94E-05,4.93E-06,1.80E-05
1553,-5.69E-07,1.41E-05,3.15E-05,0.000173818,7.71E-06,1.92E-05
1554,-1.41E-05,1.49E-05,4.21E-05,0.000163649,9.95E-06,1.76E-05
1555,-2.34E-05,1.37E-05,4.57E-05,8.64E-05,1.19E-05,1.46E-05
1556,-1.52E-05,1.17E-05,4.02E-05,2.82E-05,1.39E-05,1.41E-05
1557,2.08E-06,9.52E-06,3.20E-05,2.61E-05,1.53E-05,1.60E-05
1558,1.05E-05,7.55E-06,3.26E-05,8.18E-05,1.58E-05,1.70E-05
1559,4.22E-06,7.17E-06,3.92E-05,0.000145893,1.55E-05,1.57E-05
1560,-1.16E-05,8.90E-06,4.43E-05,0.000135917,1.49E-05,1.29E-05
1561,-2.09E-05,9.56E-06,4.84E-05,5.54E-05,1.51E-05,1.11E-05
1562,-1.43E-05,7.69E-06,4.41E-05,-4.32E-06,1.74E-05,1.19E-05
1563,-9.78E-07,5.72E-06,2.82E-05,-1.29E-05,2.08E-05,1.32E-05
1564,6.43E-06,5.78E-06,1.95E-05,3.25E-05,2.32E-05,1.25E-05
1565,5.65E-06,8.27E-06,2.33E-05,0.00010298,2.38E-05,1.23E-05
1566,-5.24E-06,1.08E-05,2.79E-05,0.00011403,2.15E-05,1.19E-05
1567,-1.55E-05,1.03E-05,3.18E-05,4.74E-05,1.54E-05,1.05E-05
1568,-9.56E-06,6.80E-06,3.13E-05,-6.12E-06,9.36E-06,1.22E-05
1569,-8.46E-07,3.46E-06,2.23E-05,1.23E-05,6.41E-06,1.46E-05
1570,-2.65E-06,2.19E-06,1.42E-05,5.45E-05,4.82E-06,1.65E-05
1571,-4.87E-06,2.54E-06,1.92E-05,4.62E-05,6.00E-07,1.90E-05
1572,-3.88E-06,3.33E-06,3.02E-05,3.37E-05,-9.31E-06,1.98E-05
1573,-3.08E-06,4.60E-06,3.55E-05,8.08E-05,-1.97E-05,1.89E-05
1574,-4.72E-06,7.41E-06,3.49E-05,0.000133785,-2.56E-05,1.49E-05
1575,-1.29E-05,1.09E-05,3.40E-05,0.000102532,-2.98E-05,8.70E-06
1576,-2.26E-05,1.37E-05,3.45E-05,2.67E-05,-3.11E-05,4.45E-06
1577,-2.00E-05,1.64E-05,2.70E-05,-1.79E-05,-2.68E-05,4.99E-06
1578,-1.08E-05,1.77E-05,1.68E-05,-2.35E-06,-1.92E-05,8.26E-06
1579,-7.52E-06,1.80E-05,1.80E-05,7.21E-05,-9.90E-06,9.72E-06
1580,-1.29E-05,1.94E-05,2.69E-05,0.000138979,1.27E-06,7.51E-06
1581,-2.40E-05,2.03E-05,3.58E-05,0.000118791,1.02E-05,2.20E-06
1582,-3.07E-05,1.89E-05,4.10E-05,3.93E-05,1.19E-05,-1.53E-06
1583,-2.32E-05,1.62E-05,3.92E-05,-1.73E-05,8.28E-06,4.07E-07
1584,-8.12E-06,1.49E-05,3.44E-05,-2.30E-05,3.98E-06,6.26E-06
1585,4.23E-07,1.60E-05,3.56E-05,2.21E-05,5.95E-07,1.29E-05
1586,-2.03E-06,1.94E-05,3.92E-05,7.73E-05,-2.24E-06,1.82E-05
1587,-1.35E-05,2.26E-05,4.21E-05,7.05E-05,-2.15E-06,1.89E-05
1588,-2.19E-05,2.23E-05,4.79E-05,3.52E-06,2.35E-06,1.64E-05
1589,-1.41E-05,1.95E-05,4.69E-05,-4.30E-05,3.66E-06,1.71E-05
1590,2.46E-06,1.77E-05,3.75E-05,-4.39E-05,-7.54E-06,2.21E-05
1591,1.14E-05,2.00E-05,3.96E-05,4.54E-06,-2.43E-05,2.54E-05
1592,9.59E-06,2.62E-05,5.41E-05,7.53E-05,-3.32E-05,2.45E-05
1593,-3.14E-06,3.06E-05,6.26E-05,7.82E-05,-3.19E-05,2.04E-05
1594,-1.36E-05,2.80E-05,6.71E-05,-2.38E-06,-2.47E-05,1.65E-05
1595,-1.74E-06,2.13E-05,6.89E-05,-5.56E-05,-1.55E-05,1.66E-05
1596,1.55E-05,1.78E-05,6.48E-05,-3.34E-05,-2.24E-06,1.81E-05
1597,1.51E-05,1.77E-05,5.86E-05,2.85E-07,1.81E-05,1.69E-05
1598,1.07E-05,1.60E-05,6.20E-05,-7.57E-06,3.58E-05,1.69E-05
1599,1.17E-05,1.19E-05,6.73E-05,-6.13E-06,3.88E-05,1.92E-05
1600,1.34E-05,7.39E-06,6.17E-05,5.62E-05,3.01E-05,2.04E-05
1601,8.29E-06,5.60E-06,5.47E-05,0.000122047,2.09E-05,1.70E-05
1602,-5.55E-06,6.98E-06,5.54E-05,9.61E-05,1.63E-05,1.26E-05
1603,-1.40E-05,9.81E-06,5.65E-05,2.21E-05,1.30E-05,1.26E-05
1604,-6.40E-06,1.11E-05,4.15E-05,-1.99E-05,8.22E-06,1.49E-05
1605,6.31E-06,9.60E-06,2.32E-05,-4.39E-06,4.29E-06,1.53E-05
1606,9.25E-06,9.04E-06,2.28E-05,6.93E-05,4.72E-06,1.53E-05
1607,-2.57E-07,1.06E-05,3.22E-05,0.000141773,8.64E-06,1.42E-05
1608,-1.67E-05,1.12E-05,3.57E-05,0.0001308,1.03E-05,1.04E-05
1609,-2.68E-05,8.92E-06,3.41E-05,5.63E-05,3.83E-06,7.90E-06
1610,-2.05E-05,7.40E-06,2.90E-05,2.36E-06,-1.22E-05,1.18E-05
1611,-4.80E-06,9.36E-06,2.11E-05,5.05E-06,-3.21E-05,1.96E-05
1612,5.22E-06,1.21E-05,2.25E-05,6.43E-05,-4.57E-05,2.28E-05
1613,2.29E-06,1.29E-05,3.40E-05,0.000132395,-4.98E-05,1.84E-05
1614,-1.12E-05,1.26E-05,4.28E-05,0.000128445,-4.85E-05,1.12E-05
1615,-2.10E-05,1.21E-05,4.42E-05,5.38E-05,-4.43E-05,8.77E-06
1616,-1.62E-05,1.12E-05,3.91E-05,2.65E-06,-3.70E-05,1.24E-05
1617,-4.73E-06,1.20E-05,2.95E-05,7.69E-06,-2.69E-05,1.75E-05
1618,-5.55E-07,1.62E-05,2.55E-05,6.40E-05,-1.46E-05,2.09E-05
1619,-5.35E-06,1.91E-05,2.90E-05,0.000134505,-1.77E-06,2.04E-05
1620,-1.61E-05,1.76E-05,3.35E-05,0.000132297,8.18E-06,1.55E-05
1621,-2.50E-05,1.58E-05,4.06E-05,4.82E-05,1.07E-05,1.38E-05
1622,-1.83E-05,1.84E-05,4.67E-05,-1.24E-05,6.09E-06,1.76E-05
1623,-4.14E-06,1.95E-05,4.01E-05,-5.41E-06,-1.44E-06,1.84E-05
1624,2.59E-06,1.45E-05,2.47E-05,1.69E-05,-9.01E-06,1.34E-05
1625,4.73E-06,1.04E-05,2.00E-05,9.24E-06,-1.33E-05,9.68E-06
1626,4.28E-06,9.80E-06,2.83E-05,1.47E-05,-1.32E-05,1.03E-05
1627,2.21E-06,1.16E-05,3.49E-05,7.51E-05,-9.35E-06,1.46E-05
1628,-4.32E-06,1.38E-05,3.34E-05,0.000129174,-5.62E-06,1.78E-05
1629,-1.85E-05,1.39E-05,3.18E-05,8.91E-05,-6.99E-06,1.56E-05
1630,-2.88E-05,1.29E-05,3.56E-05,5.76E-06,-1.34E-05,1.22E-05
1631,-2.16E-05,1.29E-05,3.31E-05,-4.11E-05,-1.96E-05,1.24E-05
1632,-4.23E-06,1.28E-05,2.33E-05,-2.56E-05,-2.21E-05,1.76E-05
1633,8.94E-06,1.30E-05,1.75E-05,5.25E-05,-2.23E-05,2.50E-05
1634,8.51E-06,1.42E-05,1.72E-05,0.00012895,-1.85E-05,2.92E-05
1635,-4.03E-06,1.48E-05,2.09E-05,0.000118307,-7.19E-06,2.63E-05
1636,-1.54E-05,1.27E-05,2.58E-05,4.32E-05,8.13E-06,1.94E-05
1637,-1.35E-05,8.61E-06,2.40E-05,-9.29E-06,1.99E-05,1.44E-05
1638,-2.19E-06,6.48E-06,1.50E-05,-2.04E-06,2.63E-05,1.31E-05
1639,4.87E-06,8.46E-06,1.37E-05,6.42E-05,2.91E-05,1.27E-05
1640,-6.38E-07,1.23E-05,2.26E-05,0.000132502,2.62E-05,1.04E-05
1641,-1.59E-05,1.35E-05,2.94E-05,0.000117036,1.65E-05,6.12E-06
1642,-2.69E-05,1.08E-05,2.92E-05,2.92E-05,7.39E-06,4.89E-06
1643,-2.47E-05,6.43E-06,2.18E-05,-3.00E-05,4.87E-06,1.04E-05
1644,-1.56E-05,4.52E-06,9.43E-06,-2.82E-05,4.54E-06,1.53E-05
1645,-1.06E-05,6.59E-06,6.07E-06,3.10E-05,3.39E-06,1.31E-05
1646,-1.08E-05,9.59E-06,1.35E-05,0.000111356,6.56E-06,9.37E-06
1647,-1.88E-05,1.08E-05,2.20E-05,0.000119963,1.73E-05,8.49E-06
1648,-2.75E-05,1.05E-05,3.08E-05,4.50E-05,2.67E-05,9.61E-06
1649,-1.97E-05,1.02E-05,3.07E-05,-8.30E-06,2.30E-05,1.36E-05
1650,-8.72E-07,1.03E-05,1.89E-05,1.55E-05,5.05E-06,1.87E-05
1651,1.16E-05,8.75E-06,8.95E-06,5.96E-05,-2.02E-05,2.21E-05
1652,1.78E-05,4.98E-06,1.14E-05,5.20E-05,-4.48E-05,2.21E-05
1653,2.06E-05,2.95E-06,1.95E-05,3.75E-05,-6.35E-05,1.98E-05
1654,1.98E-05,6.77E-06,2.03E-05,7.44E-05,-7.77E-05,1.70E-05
1655,1.08E-05,1.09E-05,1.55E-05,0.000117968,-8.63E-05,1.19E-05
1656,-7.03E-06,1.11E-05,1.50E-05,8.71E-05,-8.52E-05,4.77E-06
1657,-2.02E-05,9.42E-06,2.04E-05,2.30E-05,-7.23E-05,5.28E-07
1658,-1.70E-05,9.32E-06,1.90E-05,-1.33E-05,-5.25E-05,2.48E-06
1659,-4.20E-06,1.15E-05,1.18E-05,-2.68E-06,-3.60E-05,6.72E-06
1660,6.67E-06,1.49E-05,1.17E-05,6.40E-05,-3.02E-05,8.28E-06
1661,7.01E-06,1.61E-05,1.86E-05,0.000131999,-3.20E-05,5.30E-06
1662,-3.60E-06,1.33E-05,2.55E-05,0.000115775,-3.24E-05,-9.16E-07
1663,-1.26E-05,1.01E-05,2.92E-05,3.08E-05,-2.74E-05,-5.19E-06
1664,-8.53E-06,9.26E-06,2.54E-05,-3.53E-05,-2.07E-05,-3.98E-06
1665,3.42E-06,1.00E-05,1.59E-05,-3.87E-05,-1.66E-05,-6.86E-07
1666,1.03E-05,1.06E-05,1.55E-05,2.63E-05,-1.47E-05,-7.74E-07
1667,7.40E-06,1.28E-05,2.59E-05,0.00010502,-1.43E-05,-3.55E-06
1668,-2.60E-06,1.59E-05,3.49E-05,0.000107303,-1.52E-05,-4.52E-06
1669,-1.06E-05,1.66E-05,3.58E-05,3.25E-05,-1.61E-05,-1.22E-06
1670,-7.38E-06,1.39E-05,2.80E-05,-2.44E-05,-1.47E-05,3.57E-06
1671,4.14E-06,1.17E-05,1.62E-05,-2.54E-05,-1.15E-05,6.15E-06
1672,1.20E-05,1.41E-05,1.52E-05,3.53E-05,-7.21E-06,7.34E-06
1673,1.08E-05,2.01E-05,2.48E-05,0.000121554,-3.92E-06,8.18E-06
1674,-4.57E-06,2.31E-05,3.03E-05,0.000135726,-3.43E-06,6.38E-06
1675,-2.44E-05,1.93E-05,3.40E-05,5.76E-05,-3.51E-06,4.93E-06
1676,-2.65E-05,1.19E-05,3.49E-05,-7.97E-06,-2.74E-06,1.14E-05
1677,-1.32E-05,8.21E-06,2.73E-05,-3.31E-06,-2.72E-06,1.99E-05
1678,-4.43E-06,1.01E-05,1.90E-05,2.34E-05,-3.40E-06,2.31E-05
1679,-4.91E-06,1.33E-05,1.96E-05,1.96E-05,-5.06E-06,2.02E-05
1680,-7.12E-06,1.37E-05,2.81E-05,2.47E-05,-7.17E-06,1.47E-05
1681,-6.99E-06,1.43E-05,3.59E-05,7.80E-05,-8.26E-06,1.36E-05
1682,-8.60E-06,1.66E-05,3.95E-05,0.000126757,-7.49E-06,1.23E-05
1683,-1.76E-05,1.77E-05,3.91E-05,9.02E-05,-4.89E-06,7.05E-06
1684,-2.47E-05,1.70E-05,3.40E-05,1.87E-05,-2.09E-06,4.81E-06
1685,-1.84E-05,1.65E-05,2.08E-05,-1.57E-05,6.19E-07,1.06E-05
1686,-5.93E-06,1.72E-05,5.78E-06,5.69E-06,2.91E-06,1.78E-05
1687,1.70E-06,1.84E-05,2.86E-06,8.11E-05,4.97E-06,2.19E-05
1688,3.34E-07,1.95E-05,1.12E-05,0.000147134,6.12E-06,2.27E-05
1689,-7.51E-06,1.94E-05,2.24E-05,0.000124704,5.77E-06,2.01E-05
1690,-1.45E-05,1.84E-05,3.06E-05,4.19E-05,4.36E-06,1.80E-05
1691,-1.26E-05,1.72E-05,3.08E-05,-1.39E-05,2.41E-06,1.97E-05
1692,-3.91E-06,1.58E-05,2.72E-05,-1.02E-05,-8.13E-08,2.19E-05
1693,3.12E-06,1.44E-05,3.21E-05,5.31E-05,-1.98E-06,1.98E-05
1694,4.10E-06,1.42E-05,4.10E-05,0.000124282,-3.70E-06,1.41E-05
1695,-2.50E-06,1.48E-05,4.25E-05,0.000119301,-7.93E-06,8.82E-06
1696,-1.06E-05,1.44E-05,3.88E-05,4.28E-05,-1.33E-05,9.99E-06
1697,-9.61E-06,1.28E-05,3.23E-05,-1.15E-05,-1.64E-05,1.52E-05
1698,-5.50E-07,1.16E-05,2.46E-05,-1.66E-05,-1.39E-05,1.57E-05
1699,4.26E-06,1.18E-05,2.53E-05,2.95E-05,-8.68E-07,1.02E-05
1700,-7.83E-07,1.40E-05,3.31E-05,0.000106563,3.13E-05,7.10E-06
1701,-1.69E-05,1.59E-05,3.66E-05,0.000124882,7.59E-05,7.84E-06
1702,-3.16E-05,1.50E-05,3.95E-05,5.35E-05,0.00010749,8.83E-06
1703,-2.39E-05,1.31E-05,4.28E-05,-1.41E-05,0.000107779,1.02E-05
1704,-8.18E-06,1.26E-05,3.78E-05,-1.63E-05,7.84E-05,1.23E-05
1705,-5.11E-06,1.62E-05,2.55E-05,1.32E-05,3.11E-05,1.43E-05
1706,-6.11E-06,2.02E-05,2.14E-05,1.84E-05,-2.45E-05,1.49E-05
1707,-2.75E-06,1.83E-05,2.82E-05,2.90E-05,-7.38E-05,1.19E-05
1708,4.92E-06,1.46E-05,3.16E-05,8.60E-05,-9.86E-05,9.46E-06
1709,5.82E-06,1.28E-05,2.78E-05,0.000139745,-9.33E-05,8.83E-06
1710,-8.01E-06,1.10E-05,2.41E-05,0.000110231,-6.96E-05,7.53E-06
1711,-2.24E-05,8.39E-06,2.22E-05,4.51E-05,-4.62E-05,8.51E-06
1712,-1.88E-05,7.24E-06,1.11E-05,1.14E-05,-3.56E-05,1.29E-05
1713,-5.20E-06,6.94E-06,-2.90E-06,2.73E-05,-3.75E-05,1.69E-05
1714,1.91E-06,6.38E-06,-4.14E-06,9.57E-05,-4.45E-05,1.69E-05
1715,-2.14E-06,6.44E-06,3.82E-06,0.000160828,-5.23E-05,1.25E-05
1716,-1.26E-05,7.07E-06,1.37E-05,0.000144235,-5.96E-05,6.51E-06
1717,-1.71E-05,7.80E-06,1.99E-05,7.02E-05,-6.32E-05,5.72E-06
1718,-6.76E-06,8.76E-06,1.44E-05,2.44E-05,-6.26E-05,1.14E-05
1719,9.48E-06,1.10E-05,-1.95E-06,3.40E-05,-5.96E-05,1.63E-05
1720,1.88E-05,1.46E-05,-1.03E-05,9.08E-05,-5.14E-05,1.68E-05
1721,1.72E-05,1.72E-05,-5.28E-06,0.000150044,-3.60E-05,1.58E-05
1722,4.55E-06,1.57E-05,2.20E-06,0.00014129,-1.66E-05,1.42E-05
1723,-7.38E-06,1.25E-05,9.78E-06,6.64E-05,1.55E-06,1.23E-05
1724,-5.09E-06,1.03E-05,1.17E-05,1.08E-05,1.64E-05,1.25E-05
1725,6.23E-06,8.98E-06,3.68E-06,1.60E-06,2.72E-05,1.49E-05
1726,1.16E-05,9.05E-06,-2.85E-08,4.72E-05,3.28E-05,1.68E-05
1727,6.34E-06,1.07E-05,6.21E-06,0.000125909,3.34E-05,1.55E-05
1728,-8.50E-06,1.06E-05,1.34E-05,0.000146027,2.67E-05,8.69E-06
1729,-2.02E-05,8.13E-06,1.88E-05,7.37E-05,1.67E-05,2.93E-06
1730,-9.36E-06,8.97E-06,1.74E-05,5.41E-06,1.22E-05,5.21E-06
1731,7.65E-06,1.17E-05,7.05E-06,5.54E-06,9.90E-06,8.85E-06
1732,7.74E-06,1.13E-05,-2.88E-06,2.83E-05,4.17E-06,9.10E-06
1733,1.05E-06,1.03E-05,-1.06E-07,2.06E-05,-6.17E-07,1.04E-05
1734,-1.18E-06,1.19E-05,6.00E-06,2.49E-05,-3.86E-07,1.20E-05
1735,-1.59E-06,1.60E-05,1.23E-06,7.86E-05,2.79E-06,1.25E-05
1736,-9.34E-06,1.95E-05,-7.32E-06,0.000122364,6.45E-06,1.11E-05
1737,-2.44E-05,1.87E-05,-8.04E-06,8.00E-05,7.02E-06,9.03E-06
1738,-3.27E-05,1.59E-05,-2.77E-06,3.87E-06,4.79E-06,8.07E-06
1739,-2.45E-05,1.65E-05,-7.66E-06,-3.57E-05,6.35E-06,7.73E-06
1740,-1.33E-05,1.71E-05,-1.89E-05,-2.02E-05,1.05E-05,1.03E-05
1741,-1.11E-05,1.52E-05,-2.00E-05,5.09E-05,1.05E-05,1.54E-05
1742,-1.89E-05,1.47E-05,-1.34E-05,0.000121596,6.38E-06,1.67E-05
1743,-3.17E-05,1.69E-05,-4.86E-06,0.000111642,3.88E-06,1.25E-05
1744,-3.73E-05,1.82E-05,5.79E-06,3.84E-05,3.48E-06,1.01E-05
1745,-2.62E-05,1.64E-05,1.35E-05,-1.58E-05,6.31E-06,1.32E-05
1746,-8.30E-06,1.34E-05,1.37E-05,-1.18E-05,2.54E-05,1.63E-05
1747,-9.44E-07,1.21E-05,1.55E-05,5.57E-05,7.03E-05,1.45E-05
1748,-5.50E-06,1.31E-05,2.12E-05,0.000134974,0.000125345,1.07E-05
1749,-1.55E-05,1.46E-05,2.73E-05,0.000136495,0.000163422,7.51E-06
1750,-2.29E-05,1.48E-05,3.62E-05,5.81E-05,0.000171336,6.97E-06
1751,-1.84E-05,1.43E-05,4.03E-05,-6.89E-06,0.000150697,1.10E-05
1752,-3.85E-06,1.41E-05,3.06E-05,-2.04E-05,0.00010812,1.52E-05
1753,6.15E-06,1.35E-05,2.69E-05,2.97E-05,4.89E-05,1.43E-05
1754,4.98E-06,1.40E-05,4.06E-05,0.000108322,-2.32E-05,1.11E-05
1755,-1.09E-05,1.43E-05,5.37E-05,0.000115279,-9.76E-05,7.82E-06
1756,-2.79E-05,1.24E-05,6.34E-05,3.78E-05,-0.000156521,5.87E-06
1757,-2.17E-05,1.06E-05,6.93E-05,-1.87E-05,-0.000186855,9.65E-06
1758,-4.15E-06,1.03E-05,6.35E-05,-6.43E-06,-0.000188549,1.52E-05
1759,2.11E-06,1.09E-05,5.05E-05,2.14E-05,-0.000172568,1.92E-05
1760,6.49E-06,1.30E-05,4.97E-05,1.44E-05,-0.000146021,2.25E-05
1761,1.62E-05,1.38E-05,6.06E-05,1.47E-05,-0.000105759,2.34E-05
1762,2.35E-05,1.50E-05,6.13E-05,6.75E-05,-5.45E-05,2.29E-05
1763,1.99E-05,1.69E-05,5.15E-05,0.000121174,-1.15E-05,1.95E-05
1764,4.33E-06,1.62E-05,4.47E-05,9.15E-05,1.14E-08,1.25E-05
1765,-6.94E-06,1.34E-05,4.11E-05,2.44E-05,-1.67E-05,8.42E-06
1766,-2.68E-06,1.13E-05,2.64E-05,-1.11E-05,-3.87E-05,1.05E-05
1767,7.46E-06,1.12E-05,8.76E-06,3.75E-07,-5.24E-05,1.35E-05
1768,1.16E-05,1.32E-05,7.85E-06,6.05E-05,-5.91E-05,1.41E-05
1769,4.65E-06,1.50E-05,1.55E-05,0.000121996,-6.16E-05,1.40E-05
1770,-9.85E-06,1.33E-05,2.10E-05,0.000108662,-5.86E-05,1.45E-05
1771,-2.07E-05,1.03E-05,2.40E-05,3.70E-05,-4.76E-05,1.60E-05
1772,-1.90E-05,7.66E-06,2.12E-05,-1.57E-05,-2.90E-05,1.72E-05
1773,-9.86E-06,5.55E-06,1.48E-05,-1.60E-05,-6.74E-06,1.59E-05
1774,-3.81E-06,5.35E-06,1.60E-05,4.28E-05,1.38E-05,1.12E-05
1775,-4.51E-06,8.04E-06,2.08E-05,0.000115501,2.73E-05,5.62E-06
1776,-1.26E-05,1.06E-05,2.22E-05,0.000114416,2.88E-05,8.17E-07
1777,-2.21E-05,1.02E-05,2.45E-05,4.09E-05,1.70E-05,-1.90E-06
1778,-1.97E-05,7.39E-06,2.55E-05,-7.83E-06,-1.48E-06,1.51E-06
1779,-7.93E-06,5.71E-06,1.84E-05,-3.23E-06,-1.74E-05,9.86E-06
1780,-6.65E-07,7.28E-06,1.29E-05,4.95E-05,-2.27E-05,1.50E-05
1781,1.37E-09,1.12E-05,1.57E-05,0.00011657,-1.50E-05,1.35E-05
1782,-8.29E-06,1.26E-05,2.06E-05,0.000112041,-9.62E-07,9.20E-06
1783,-1.96E-05,1.05E-05,2.89E-05,2.76E-05,1.35E-05,7.94E-06
1784,-1.83E-05,9.58E-06,3.62E-05,-3.22E-05,2.93E-05,1.00E-05
1785,-9.97E-06,1.20E-05,3.38E-05,-2.10E-05,4.26E-05,1.26E-05
1786,-7.40E-06,1.44E-05,2.72E-05,1.34E-05,4.82E-05,1.67E-05
1787,-5.79E-06,1.24E-05,2.96E-05,1.82E-05,4.53E-05,1.87E-05
1788,-1.15E-06,9.54E-06,3.82E-05,2.76E-05,3.55E-05,1.67E-05
1789,3.66E-06,8.20E-06,4.09E-05,8.65E-05,2.00E-05,1.51E-05
1790,2.44E-06,7.14E-06,3.95E-05,0.000143068,4.18E-06,1.22E-05
1791,-7.99E-06,6.35E-06,4.32E-05,0.00011435,-3.11E-06,5.73E-06
1792,-1.72E-05,7.43E-06,4.83E-05,4.69E-05,-9.03E-07,2.65E-06
1793,-1.25E-05,1.05E-05,3.99E-05,8.88E-06,1.86E-06,5.88E-06
1794,1.29E-06,1.24E-05,2.74E-05,2.28E-05,-1.89E-06,9.00E-06
1795,1.20E-05,1.27E-05,2.78E-05,9.18E-05,-8.08E-06,8.94E-06
1796,1.06E-05,1.32E-05,3.54E-05,0.000159211,-1.15E-05,8.17E-06
1797,-8.77E-07,1.26E-05,4.20E-05,0.000143125,-1.11E-05,1.02E-05
1798,-7.44E-06,1.02E-05,4.45E-05,6.29E-05,-9.11E-06,1.52E-05
1799,2.36E-07,8.08E-06,3.82E-05,1.53E-06,-7.76E-06,2.15E-05
1800,1.29E-05,8.58E-06,2.60E-05,-6.65E-06,-1.05E-05,2.67E-05
1801,1.69E-05,1.14E-05,2.34E-05,4.42E-05,-1.76E-05,2.83E-05
1802,1.01E-05,1.34E-05,3.08E-05,0.000113627,-2.49E-05,2.63E-05
1803,-1.31E-06,1.26E-05,3.71E-05,0.000115986,-2.93E-05,2.17E-05
1804,-8.26E-06,1.11E-05,4.09E-05,4.03E-05,-3.10E-05,1.60E-05
1805,-5.74E-06,1.22E-05,3.90E-05,-2.07E-05,-2.96E-05,1.32E-05
1806,9.53E-07,1.45E-05,2.95E-05,-2.45E-05,-2.37E-05,1.53E-05
1807,1.87E-06,1.62E-05,2.83E-05,3.46E-05,-1.41E-05,1.77E-05
1808,-3.06E-06,1.83E-05,3.86E-05,0.000121692,-5.97E-07,1.73E-05
1809,-1.23E-05,2.04E-05,4.78E-05,0.00013808,1.41E-05,1.45E-05
1810,-1.77E-05,2.03E-05,5.46E-05,5.80E-05,2.46E-05,1.26E-05
1811,-6.62E-06,1.71E-05,5.70E-05,-1.12E-05,2.89E-05,1.48E-05
1812,6.51E-06,1.24E-05,5.09E-05,-5.68E-06,2.41E-05,1.53E-05
1813,6.95E-06,9.53E-06,4.18E-05,2.43E-05,1.02E-05,1.24E-05
1814,2.60E-06,9.28E-06,4.48E-05,1.87E-05,-2.89E-06,1.36E-05
1815,-7.33E-07,1.01E-05,5.89E-05,1.85E-05,-8.16E-06,1.76E-05
1816,-2.66E-07,1.11E-05,6.74E-05,7.24E-05,-1.09E-05,1.79E-05
1817,-1.57E-06,1.28E-05,6.96E-05,0.000126953,-1.53E-05,1.36E-05
1818,-1.23E-05,1.43E-05,7.39E-05,9.49E-05,-2.06E-05,9.98E-06
1819,-2.41E-05,1.64E-05,7.63E-05,2.32E-05,-2.68E-05,9.28E-06
1820,-2.35E-05,1.78E-05,6.41E-05,-1.26E-05,-3.17E-05,8.46E-06
1821,-1.51E-05,1.65E-05,4.79E-05,8.77E-06,-3.46E-05,5.86E-06
1822,-1.05E-05,1.46E-05,4.61E-05,8.14E-05,-3.54E-05,2.80E-06
1823,-1.47E-05,1.47E-05,5.11E-05,0.000144993,-2.91E-05,1.64E-07
1824,-2.49E-05,1.53E-05,5.31E-05,0.000125402,-1.37E-05,-1.74E-06
1825,-2.95E-05,1.48E-05,5.13E-05,4.73E-05,2.86E-06,-1.46E-06
1826,-2.13E-05,1.25E-05,4.38E-05,-8.64E-06,1.18E-05,2.25E-06
1827,-8.21E-06,9.94E-06,3.37E-05,-8.17E-06,1.36E-05,7.52E-06
1828,-2.40E-06,9.91E-06,3.24E-05,5.34E-05,1.31E-05,1.15E-05
1829,-6.80E-06,1.18E-05,3.74E-05,0.00012422,1.37E-05,1.25E-05
1830,-1.90E-05,1.13E-05,4.16E-05,0.000116908,1.81E-05,9.92E-06
1831,-2.86E-05,8.07E-06,4.51E-05,3.40E-05,2.73E-05,6.77E-06
1832,-2.38E-05,6.88E-06,4.18E-05,-2.40E-05,3.95E-05,7.57E-06
1833,-9.59E-06,8.95E-06,3.07E-05,-2.25E-05,4.69E-05,1.20E-05
1834,1.52E-06,1.16E-05,2.56E-05,3.33E-05,4.11E-05,1.55E-05
1835,4.38E-06,1.22E-05,2.79E-05,0.000110712,2.39E-05,1.67E-05
1836,-7.22E-06,1.03E-05,2.97E-05,0.000118714,2.73E-06,1.34E-05
1837,-2.05E-05,8.78E-06,3.59E-05,3.09E-05,-1.96E-05,9.68E-06
1838,-1.34E-05,8.98E-06,4.02E-05,-4.41E-05,-4.74E-05,1.38E-05
1839,1.16E-06,8.28E-06,3.59E-05,-3.92E-05,-7.48E-05,1.90E-05
1840,3.30E-06,9.87E-06,2.88E-05,-7.77E-06,-9.17E-05,1.98E-05
1841,2.79E-06,1.59E-05,2.75E-05,-8.04E-06,-9.58E-05,1.75E-05
1842,6.31E-06,2.05E-05,3.32E-05,-2.67E-07,-8.46E-05,1.22E-05
1843,8.02E-06,1.93E-05,3.98E-05,5.73E-05,-6.28E-05,1.00E-05
1844,4.05E-07,1.66E-05,4.57E-05,0.00011346,-4.24E-05,1.18E-05
1845,-1.55E-05,1.51E-05,4.99E-05,8.60E-05,-3.26E-05,1.35E-05
1846,-2.28E-05,1.36E-05,4.92E-05,2.35E-05,-3.34E-05,1.50E-05
1847,-1.12E-05,1.28E-05,3.88E-05,-4.59E-07,-3.94E-05,1.79E-05
1848,5.64E-06,1.16E-05,2.87E-05,2.79E-05,-4.37E-05,1.98E-05
1849,1.30E-05,1.09E-05,3.23E-05,0.000100121,-4.26E-05,1.84E-05
1850,9.54E-06,1.07E-05,4.38E-05,0.000161259,-3.68E-05,1.44E-05
1851,-1.09E-06,9.83E-06,5.33E-05,0.000139501,-2.89E-05,9.49E-06
1852,-1.05E-05,7.47E-06,5.80E-05,5.83E-05,-1.99E-05,7.48E-06
1853,-8.56E-06,4.78E-06,5.34E-05,3.49E-06,-8.54E-06,1.19E-05
1854,2.70E-06,3.47E-06,4.09E-05,7.07E-06,5.08E-06,1.93E-05
1855,1.03E-05,5.03E-06,3.54E-05,6.18E-05,1.86E-05,2.18E-05
1856,6.93E-06,1.04E-05,3.87E-05,0.000121708,2.89E-05,1.68E-05
1857,-4.00E-06,1.59E-05,4.19E-05,0.000114871,3.23E-05,9.04E-06
1858,-1.04E-05,1.62E-05,4.34E-05,3.97E-05,2.66E-05,4.67E-06
1859,-3.75E-06,1.28E-05,3.95E-05,-1.81E-05,1.58E-05,4.12E-06
1860,8.77E-06,1.12E-05,2.90E-05,-2.47E-05,8.31E-06,5.83E-06
1861,1.40E-05,1.38E-05,2.44E-05,1.99E-05,6.14E-06,9.87E-06
1862,1.03E-05,1.74E-05,2.80E-05,8.45E-05,6.39E-06,1.28E-05
1863,-2.25E-06,1.87E-05,3.26E-05,8.51E-05,7.29E-06,9.88E-06
1864,-1.49E-05,1.69E-05,3.93E-05,5.84E-06,6.29E-06,6.79E-06
1865,-1.42E-05,1.53E-05,3.89E-05,-5.09E-05,3.96E-06,1.08E-05
1866,-8.07E-06,1.67E-05,2.75E-05,-3.02E-05,1.89E-06,1.49E-05
1867,-4.03E-06,1.65E-05,1.62E-05,9.61E-06,1.70E-06,1.39E-05
1868,5.77E-07,1.48E-05,1.60E-05,-1.53E-06,1.98E-05,1.47E-05
1869,1.18E-06,1.33E-05,2.30E-05,-1.06E-05,6.09E-05,1.91E-05
1870,-1.16E-06,1.34E-05,2.62E-05,4.09E-05,9.68E-05,2.41E-05
1871,-5.01E-06,1.40E-05,2.64E-05,9.43E-05,0.000103432,2.35E-05
1872,-1.53E-05,1.39E-05,3.07E-05,6.76E-05,7.72E-05,1.72E-05
1873,-2.45E-05,1.38E-05,3.83E-05,4.60E-06,2.90E-05,1.23E-05
1874,-2.18E-05,1.36E-05,3.21E-05,-2.62E-05,-2.42E-05,1.28E-05
1875,-1.30E-05,1.36E-05,1.28E-05,-7.22E-06,-6.63E-05,1.67E-05
1876,-1.03E-05,1.47E-05,1.90E-06,6.25E-05,-8.62E-05,2.11E-05
1877,-1.75E-05,1.58E-05,4.41E-06,0.000130363,-8.16E-05,2.30E-05
1878,-2.94E-05,1.39E-05,1.03E-05,0.000115691,-5.93E-05,2.13E-05
1879,-3.52E-05,1.00E-05,1.61E-05,3.69E-05,-3.17E-05,1.94E-05
1880,-2.96E-05,7.46E-06,1.97E-05,-1.51E-05,-1.12E-05,2.02E-05
1881,-1.95E-05,8.21E-06,1.94E-05,-1.93E-06,-7.97E-06,2.29E-05
1882,-1.30E-05,1.12E-05,2.30E-05,6.75E-05,-2.17E-05,2.46E-05
1883,-1.34E-05,1.42E-05,3.02E-05,0.000137824,-3.89E-05,2.30E-05
1884,-2.12E-05,1.42E-05,3.49E-05,0.000132595,-4.66E-05,1.84E-05
1885,-2.72E-05,1.11E-05,3.83E-05,5.77E-05,-4.76E-05,1.56E-05
1886,-2.09E-05,7.95E-06,3.39E-05,4.69E-06,-5.21E-05,1.85E-05
1887,-8.04E-06,7.78E-06,1.74E-05,6.02E-06,-5.86E-05,2.16E-05
1888,-1.02E-06,1.07E-05,9.64E-06,5.76E-05,-5.57E-05,2.05E-05
1889,-2.58E-06,1.35E-05,1.78E-05,0.000129161,-4.25E-05,1.80E-05
1890,-1.23E-05,1.29E-05,2.23E-05,0.000137185,-2.76E-05,1.45E-05
1891,-2.37E-05,1.06E-05,2.04E-05,6.02E-05,-1.76E-05,1.06E-05
1892,-2.32E-05,9.54E-06,1.89E-05,-1.47E-06,-1.34E-05,1.11E-05
1893,-1.53E-05,9.36E-06,1.33E-05,1.76E-05,-1.22E-05,1.27E-05
1894,-1.04E-05,1.02E-05,7.53E-06,5.96E-05,-1.51E-05,1.26E-05
1895,-6.00E-06,9.50E-06,1.49E-05,4.57E-05,-2.25E-05,1.13E-05
1896,-2.40E-06,9.60E-06,2.75E-05,2.38E-05,-2.92E-05,7.08E-06
1897,-2.38E-06,1.21E-05,2.85E-05,6.34E-05,-3.01E-05,3.30E-06
1898,-7.72E-06,1.42E-05,2.26E-05,0.000114213,-2.34E-05,-3.12E-07
1899,-2.12E-05,1.48E-05,2.32E-05,8.29E-05,-1.04E-05,-4.03E-06
1900,-3.17E-05,1.56E-05,2.84E-05,1.28E-05,3.70E-06,-6.10E-06
1901,-2.42E-05,1.66E-05,2.35E-05,-2.50E-05,1.13E-05,-1.98E-06
1902,-7.41E-06,1.59E-05,1.11E-05,-1.17E-05,8.66E-06,4.80E-06
1903,2.01E-06,1.50E-05,6.83E-06,5.81E-05,1.71E-06,6.65E-06
1904,-2.02E-06,1.45E-05,1.18E-05,0.000132577,-4.13E-06,2.84E-06
1905,-1.45E-05,1.26E-05,1.85E-05,0.000128409,-9.18E-06,-1.58E-06
1906,-2.31E-05,1.06E-05,2.27E-05,5.83E-05,-1.56E-05,-9.10E-07
1907,-1.98E-05,1.01E-05,2.04E-05,2.71E-06,-2.13E-05,4.77E-06
1908,-1.12E-05,1.11E-05,1.15E-05,-2.25E-06,-2.04E-05,1.14E-05
1909,-7.39E-06,1.29E-05,7.65E-06,5.19E-05,-1.06E-05,1.60E-05
1910,-9.93E-06,1.51E-05,1.27E-05,0.000126429,5.59E-06,1.80E-05
1911,-1.66E-05,1.58E-05,1.90E-05,0.000135134,2.37E-05,1.72E-05
1912,-2.05E-05,1.54E-05,2.22E-05,6.32E-05,3.80E-05,1.72E-05
1913,-1.29E-05,1.58E-05,1.78E-05,3.33E-07,4.28E-05,1.87E-05
1914,-4.06E-07,1.59E-05,6.95E-06,-6.96E-06,3.77E-05,1.69E-05
1915,4.32E-06,1.58E-05,3.80E-06,5.13E-05,2.86E-05,1.02E-05
1916,3.49E-06,1.55E-05,8.86E-06,0.000134061,2.13E-05,4.75E-06
1917,-4.06E-06,1.48E-05,1.33E-05,0.000140768,1.57E-05,2.17E-06
1918,-1.38E-05,1.44E-05,2.19E-05,5.41E-05,1.14E-05,3.16E-06
1919,-7.41E-06,1.25E-05,2.94E-05,-1.25E-05,9.47E-06,9.81E-06
1920,7.55E-06,8.56E-06,2.53E-05,3.43E-06,8.87E-06,1.36E-05
1921,1.32E-05,6.57E-06,1.33E-05,4.20E-05,8.55E-06,9.18E-06
1922,1.46E-05,7.59E-06,1.17E-05,4.12E-05,6.87E-06,5.71E-06
1923,1.90E-05,1.05E-05,2.40E-05,3.99E-05,4.62E-06,5.57E-06
1924,2.52E-05,1.46E-05,3.40E-05,8.08E-05,3.50E-06,6.46E-06
1925,2.22E-05,1.70E-05,3.65E-05,0.000119289,1.55E-06,6.55E-06
1926,5.58E-06,1.46E-05,3.52E-05,8.42E-05,-1.77E-06,6.51E-06
1927,-7.64E-06,1.02E-05,3.13E-05,2.08E-05,-3.18E-06,9.96E-06
1928,-2.58E-06,8.32E-06,1.79E-05,-8.48E-06,-1.77E-06,1.64E-05
1929,1.18E-05,1.01E-05,1.97E-06,1.18E-05,-1.22E-06,2.03E-05
1930,2.04E-05,1.45E-05,-2.65E-06,8.21E-05,-1.99E-06,1.98E-05
1931,1.74E-05,1.80E-05,-2.04E-06,0.00014686,-1.84E-06,1.69E-05
1932,4.53E-06,1.78E-05,-2.62E-06,0.000129658,-3.45E-07,1.10E-05
1933,-5.15E-06,1.61E-05,-4.88E-06,5.17E-05,4.74E-07,6.50E-06
1934,-6.14E-07,1.51E-05,-1.31E-05,-5.27E-06,-7.23E-07,7.43E-06
1935,8.93E-06,1.46E-05,-2.33E-05,-7.41E-06,-3.64E-06,1.17E-05
