Time_Index,DELTOID_Affected,DELTOID_NonAffected,BICEPS_Affected,BICEPS_NonAffected,FOREARM_Affected,FOREARM_NonAffected
1,-1.44E-06,1.11E-05,1.31E-05,0.000148251,-3.03E-05,1.66E-05
2,-9.44E-06,8.34E-06,1.97E-05,0.000123784,-3.32E-05,1.15E-05
3,-2.37E-05,5.05E-06,2.11E-05,3.23E-05,-3.18E-05,7.23E-06
4,-2.90E-05,4.71E-06,1.73E-05,-2.92E-05,-2.47E-05,8.74E-06
5,-2.21E-05,6.81E-06,1.33E-05,-2.27E-05,-1.30E-05,1.25E-05
6,-1.64E-05,9.08E-06,1.67E-05,4.73E-05,-1.54E-06,1.31E-05
7,-1.95E-05,1.08E-05,2.18E-05,0.000120479,4.74E-06,9.63E-06
8,-2.97E-05,9.69E-06,2.33E-05,0.000111368,7.41E-06,3.71E-06
9,-3.84E-05,5.99E-06,2.87E-05,2.72E-05,9.62E-06,6.67E-07
10,-3.41E-05,5.50E-06,3.41E-05,-3.14E-05,9.27E-06,2.75E-06
11,-1.80E-05,9.02E-06,2.83E-05,-3.33E-05,4.85E-06,6.55E-06
12,-8.20E-06,1.12E-05,2.10E-05,2.80E-05,2.34E-08,1.07E-05
13,-1.06E-05,1.15E-05,2.29E-05,0.000115076,-3.63E-06,1.63E-05
14,-1.55E-05,1.27E-05,2.89E-05,0.000118166,-5.43E-06,1.85E-05
15,-1.35E-05,1.57E-05,3.96E-05,2.48E-05,-5.68E-06,1.73E-05
16,-5.52E-07,2.17E-05,4.82E-05,-4.19E-05,-7.57E-06,2.11E-05
17,1.04E-05,2.55E-05,4.47E-05,-3.20E-05,-1.22E-05,3.02E-05
18,5.68E-06,2.29E-05,3.62E-05,-9.50E-06,-1.39E-05,3.79E-05
19,-4.13E-07,1.85E-05,3.67E-05,-2.87E-05,-1.02E-05,3.95E-05
20,1.68E-06,1.44E-05,4.52E-05,-4.15E-05,-6.13E-06,3.21E-05
21,3.80E-06,1.16E-05,4.93E-05,7.34E-07,-4.48E-06,2.15E-05
22,1.12E-06,1.23E-05,4.40E-05,4.75E-05,-5.04E-06,1.37E-05
23,-9.52E-06,1.56E-05,3.88E-05,5.19E-06,-7.57E-06,8.29E-06
24,-2.37E-05,1.55E-05,3.98E-05,-7.48E-05,-1.08E-05,8.66E-06
25,-2.57E-05,1.17E-05,3.54E-05,-0.000111056,-1.19E-05,1.40E-05
26,-1.49E-05,8.85E-06,2.66E-05,-8.22E-05,-1.26E-05,1.81E-05
27,-3.63E-06,9.88E-06,2.64E-05,2.26E-06,-1.36E-05,1.87E-05
28,-2.22E-07,1.44E-05,3.24E-05,7.49E-05,-1.33E-05,1.69E-05
29,-8.09E-06,1.70E-05,3.81E-05,5.76E-05,-1.19E-05,1.43E-05
30,-2.31E-05,1.58E-05,4.03E-05,-2.18E-05,-1.05E-05,1.43E-05
31,-3.19E-05,1.29E-05,3.58E-05,-7.61E-05,-9.16E-06,1.79E-05
32,-2.82E-05,1.03E-05,2.50E-05,-6.88E-05,-9.29E-06,2.03E-05
33,-1.98E-05,7.97E-06,1.91E-05,8.60E-06,-1.14E-05,1.80E-05
34,-1.49E-05,5.79E-06,2.17E-05,0.000105241,-1.45E-05,1.26E-05
35,-1.65E-05,2.65E-06,2.60E-05,0.000123414,-1.74E-05,7.55E-06
36,-2.35E-05,4.20E-07,2.81E-05,5.79E-05,-1.74E-05,6.93E-06
37,-2.63E-05,9.19E-07,2.29E-05,1.12E-05,-1.44E-05,1.10E-05
38,-2.02E-05,2.75E-06,1.02E-05,1.45E-05,-1.16E-05,1.48E-05
39,-1.33E-05,5.33E-06,5.46E-06,6.83E-05,-1.09E-05,1.57E-05
40,-8.85E-06,9.10E-06,1.29E-05,0.000142858,-1.06E-05,1.65E-05
41,-1.14E-05,1.22E-05,2.02E-05,0.000149659,-1.02E-05,1.65E-05
42,-1.89E-05,1.22E-05,2.40E-05,7.13E-05,-1.10E-05,1.25E-05
43,-1.71E-05,1.13E-05,2.46E-05,7.98E-06,-9.00E-06,1.02E-05
44,-1.05E-05,1.25E-05,2.29E-05,7.36E-06,-7.96E-06,1.45E-05
45,-1.12E-05,1.56E-05,1.89E-05,2.38E-05,-1.27E-05,1.91E-05
46,-8.87E-06,1.76E-05,1.82E-05,1.54E-05,-1.62E-05,1.98E-05
47,-2.43E-06,1.81E-05,2.13E-05,2.43E-05,-1.57E-05,1.81E-05
48,2.01E-06,1.96E-05,2.24E-05,9.06E-05,-1.32E-05,1.37E-05
49,7.24E-07,2.17E-05,2.43E-05,0.000157914,-1.13E-05,8.30E-06
50,-1.15E-05,2.24E-05,2.78E-05,0.000130035,-1.20E-05,5.59E-06
51,-2.43E-05,2.19E-05,2.83E-05,5.00E-05,-1.43E-05,6.50E-06
52,-2.16E-05,2.21E-05,1.69E-05,-6.36E-06,-1.35E-05,1.00E-05
53,-7.83E-06,2.31E-05,2.88E-06,-1.86E-06,-9.87E-06,1.31E-05
54,1.94E-06,2.35E-05,2.82E-06,7.87E-05,-6.29E-06,1.34E-05
55,2.16E-06,2.23E-05,9.54E-06,0.000162041,-4.72E-06,1.05E-05
56,-7.46E-06,1.82E-05,1.39E-05,0.000145128,-6.81E-06,7.66E-06
57,-2.09E-05,1.45E-05,1.48E-05,5.57E-05,-1.24E-05,1.04E-05
58,-2.52E-05,1.46E-05,1.03E-05,-1.53E-06,-1.88E-05,1.68E-05
59,-1.81E-05,1.73E-05,2.74E-06,1.30E-05,-2.16E-05,1.93E-05
60,-1.16E-05,2.08E-05,3.63E-06,9.21E-05,-1.92E-05,1.66E-05
61,-1.23E-05,2.35E-05,1.22E-05,0.00017392,-1.24E-05,1.18E-05
62,-1.88E-05,2.08E-05,2.13E-05,0.000169263,-3.01E-06,5.89E-06
63,-2.58E-05,1.22E-05,2.93E-05,8.75E-05,6.85E-06,3.48E-06
64,-2.26E-05,5.12E-06,2.85E-05,3.17E-05,1.17E-05,6.91E-06
65,-1.03E-05,4.14E-06,1.54E-05,3.36E-05,8.25E-06,1.09E-05
66,-3.18E-06,5.65E-06,5.82E-06,9.41E-05,1.59E-06,1.28E-05
67,-3.54E-06,4.97E-06,1.08E-05,0.000181029,-3.14E-06,1.38E-05
68,-9.42E-06,3.99E-06,2.28E-05,0.000197021,-3.91E-06,1.39E-05
69,-2.00E-05,5.43E-06,3.63E-05,0.00011168,-1.30E-07,1.46E-05
70,-2.34E-05,8.10E-06,4.18E-05,3.10E-05,1.99E-06,1.72E-05
71,-1.49E-05,9.11E-06,3.23E-05,2.76E-05,-1.40E-06,1.90E-05
72,-6.60E-06,6.77E-06,2.12E-05,5.52E-05,-6.81E-06,1.95E-05
73,2.20E-07,4.83E-06,2.38E-05,5.22E-05,-1.12E-05,2.06E-05
74,5.16E-06,6.02E-06,3.42E-05,6.50E-05,-1.39E-05,1.92E-05
75,4.01E-06,8.25E-06,3.70E-05,0.000130751,-1.28E-05,1.57E-05
76,-1.57E-06,1.04E-05,3.12E-05,0.000184017,-8.68E-06,1.30E-05
77,-1.25E-05,1.08E-05,2.77E-05,0.000141494,-4.86E-06,9.14E-06
78,-2.23E-05,9.77E-06,2.80E-05,6.14E-05,-1.23E-06,4.43E-06
79,-1.58E-05,9.01E-06,2.20E-05,1.38E-05,1.53E-06,3.99E-06
80,3.41E-06,1.06E-05,1.32E-05,2.36E-05,-8.38E-07,7.95E-06
81,1.72E-05,1.45E-05,1.30E-05,9.87E-05,-6.31E-06,1.01E-05
82,1.70E-05,1.75E-05,1.93E-05,0.000169883,-9.11E-06,5.91E-06
83,6.14E-06,1.68E-05,2.69E-05,0.000144551,-8.50E-06,-3.05E-07
84,-4.43E-06,1.49E-05,3.22E-05,5.01E-05,-6.49E-06,5.95E-07
85,-2.33E-06,1.44E-05,2.87E-05,-1.69E-05,-5.90E-06,9.02E-06
86,1.22E-05,1.46E-05,1.64E-05,-1.68E-05,-7.59E-06,1.67E-05
87,2.48E-05,1.37E-05,1.10E-05,5.37E-05,-8.98E-06,1.79E-05
88,2.49E-05,1.24E-05,1.64E-05,0.000134759,-8.49E-06,1.38E-05
89,1.19E-05,1.23E-05,2.27E-05,0.000132561,-7.94E-06,8.31E-06
90,-5.12E-06,1.43E-05,2.52E-05,5.02E-05,-6.39E-06,5.82E-06
91,-8.01E-06,1.68E-05,2.22E-05,-9.72E-06,-4.68E-06,8.37E-06
92,5.86E-06,1.60E-05,1.54E-05,-1.26E-05,-7.41E-06,1.44E-05
93,1.77E-05,1.26E-05,1.54E-05,4.54E-05,-1.09E-05,2.05E-05
94,1.68E-05,1.06E-05,2.20E-05,0.000132288,-8.07E-06,2.22E-05
95,2.81E-06,9.93E-06,2.71E-05,0.000147761,-1.97E-06,1.85E-05
96,-1.30E-05,8.83E-06,3.44E-05,7.26E-05,3.25E-08,1.39E-05
97,-1.01E-05,1.12E-05,3.68E-05,1.86E-05,-5.39E-06,1.30E-05
98,4.38E-06,1.73E-05,2.81E-05,3.12E-05,-1.34E-05,1.37E-05
99,5.41E-06,1.83E-05,1.65E-05,5.06E-05,-1.99E-05,1.41E-05
100,-2.73E-06,1.37E-05,1.57E-05,3.09E-05,-2.47E-05,1.81E-05
101,-3.96E-06,9.15E-06,2.37E-05,3.04E-05,-2.57E-05,2.53E-05
102,-1.07E-06,7.34E-06,2.34E-05,9.53E-05,-2.35E-05,2.76E-05
103,-6.75E-06,9.52E-06,1.74E-05,0.000153985,-1.91E-05,2.01E-05
104,-2.40E-05,1.39E-05,1.52E-05,0.000111776,-1.28E-05,9.03E-06
105,-3.54E-05,1.85E-05,1.65E-05,2.96E-05,-4.35E-06,4.38E-06
106,-2.44E-05,2.06E-05,1.09E-05,-1.50E-05,7.71E-06,8.96E-06
107,-2.39E-06,1.88E-05,1.88E-06,4.37E-07,1.85E-05,1.44E-05
108,1.27E-05,1.42E-05,4.05E-06,7.95E-05,1.99E-05,1.29E-05
109,1.78E-05,1.09E-05,1.24E-05,0.000156534,1.17E-05,5.89E-06
110,1.52E-05,1.09E-05,2.09E-05,0.000141945,2.70E-06,-6.80E-07
111,1.06E-05,1.31E-05,2.72E-05,5.80E-05,5.38E-07,-2.67E-07
112,1.45E-05,1.49E-05,2.63E-05,-5.25E-06,1.50E-06,8.33E-06
113,2.73E-05,1.51E-05,2.02E-05,-6.29E-06,-2.25E-06,1.78E-05
114,3.63E-05,1.43E-05,2.27E-05,6.39E-05,-1.02E-05,2.16E-05
115,3.55E-05,1.48E-05,3.21E-05,0.00014843,-1.58E-05,2.00E-05
116,2.81E-05,1.45E-05,3.66E-05,0.00014507,-1.64E-05,1.86E-05
117,2.09E-05,1.07E-05,3.61E-05,5.16E-05,-1.32E-05,2.82E-05
118,2.01E-05,6.10E-06,3.21E-05,-1.76E-05,-9.62E-06,5.05E-05
119,2.45E-05,5.67E-06,2.46E-05,-2.06E-05,-9.43E-06,7.01E-05
120,2.47E-05,1.00E-05,2.27E-05,4.21E-05,-1.31E-05,7.13E-05
121,1.82E-05,1.43E-05,2.95E-05,0.000128294,-1.67E-05,5.28E-05
122,5.34E-06,1.55E-05,3.64E-05,0.000140301,-1.68E-05,2.30E-05
123,-1.13E-05,1.21E-05,4.41E-05,6.23E-05,-1.47E-05,-4.07E-06
124,-1.58E-05,7.82E-06,4.78E-05,-1.80E-06,-1.10E-05,-2.06E-05
125,-6.29E-06,1.03E-05,4.37E-05,2.47E-06,-7.07E-06,-2.88E-05
126,-1.32E-06,1.52E-05,3.82E-05,2.90E-05,-4.58E-06,-3.01E-05
127,-1.48E-06,1.43E-05,3.70E-05,2.45E-05,-4.42E-06,-2.97E-05
128,-1.95E-06,9.67E-06,4.08E-05,3.14E-05,-5.60E-06,-3.08E-05
129,-2.39E-06,8.25E-06,4.31E-05,8.82E-05,-5.79E-06,-2.98E-05
130,-3.08E-06,1.05E-05,3.97E-05,0.000132905,-7.19E-06,-2.48E-05
131,-1.40E-05,1.11E-05,3.45E-05,8.59E-05,-9.93E-06,-1.74E-05
132,-3.37E-05,9.95E-06,3.28E-05,7.62E-06,-1.02E-05,-6.27E-06
133,-4.34E-05,9.47E-06,2.85E-05,-3.43E-05,-8.15E-06,6.65E-06
134,-3.86E-05,1.02E-05,2.24E-05,-2.13E-05,-7.08E-06,1.34E-05
135,-3.34E-05,1.30E-05,2.37E-05,4.91E-05,-7.49E-06,1.35E-05
136,-3.52E-05,1.77E-05,2.89E-05,0.000115377,-8.67E-06,1.13E-05
137,-4.13E-05,2.13E-05,3.45E-05,9.40E-05,-8.90E-06,9.86E-06
138,-4.40E-05,2.16E-05,3.94E-05,1.15E-05,-6.46E-06,1.19E-05
139,-3.66E-05,1.97E-05,3.77E-05,-4.49E-05,-2.95E-06,1.73E-05
140,-2.27E-05,1.82E-05,2.91E-05,-4.52E-05,-1.73E-06,2.17E-05
141,-1.20E-05,2.03E-05,2.65E-05,1.41E-05,-3.84E-06,2.26E-05
142,-7.64E-06,2.54E-05,3.27E-05,9.14E-05,-8.20E-06,2.10E-05
143,-1.08E-05,2.76E-05,3.99E-05,9.84E-05,-1.30E-05,1.79E-05
144,-1.62E-05,2.27E-05,4.42E-05,2.79E-05,-1.68E-05,1.52E-05
145,-1.20E-05,1.47E-05,4.20E-05,-2.48E-05,-2.00E-05,1.81E-05
146,2.36E-06,1.08E-05,3.13E-05,-2.73E-05,-2.00E-05,2.55E-05
147,1.23E-05,1.30E-05,2.26E-05,2.72E-05,-1.52E-05,2.99E-05
148,1.23E-05,1.72E-05,2.18E-05,0.000103276,-9.17E-06,2.85E-05
149,6.86E-06,1.77E-05,2.87E-05,0.000101848,-6.38E-06,2.32E-05
150,-2.75E-06,1.28E-05,4.30E-05,1.29E-05,-8.30E-06,2.22E-05
151,-6.80E-06,1.09E-05,5.19E-05,-4.93E-05,-1.32E-05,2.83E-05
152,-5.81E-07,1.46E-05,4.74E-05,-3.72E-05,-1.60E-05,3.14E-05
153,5.36E-06,1.74E-05,3.94E-05,-3.05E-06,-1.49E-05,3.11E-05
154,6.23E-06,1.72E-05,3.86E-05,-1.66E-06,-1.16E-05,3.08E-05
155,4.65E-06,1.71E-05,4.11E-05,4.98E-06,-7.88E-06,2.47E-05
156,9.32E-07,1.88E-05,4.15E-05,5.82E-05,-5.68E-06,8.41E-06
157,-8.67E-06,1.93E-05,3.78E-05,0.000103317,-5.59E-06,-1.64E-05
158,-2.47E-05,1.77E-05,3.60E-05,6.08E-05,-7.05E-06,-3.32E-05
159,-3.35E-05,1.51E-05,3.81E-05,-1.19E-05,-7.93E-06,-2.72E-05
160,-2.30E-05,1.43E-05,3.33E-05,-5.15E-05,-8.02E-06,-7.89E-06
161,-7.64E-06,1.28E-05,2.48E-05,-3.66E-05,-8.35E-06,7.14E-06
162,-2.95E-06,1.06E-05,2.43E-05,4.35E-05,-8.00E-06,1.34E-05
163,-5.80E-06,9.17E-06,2.67E-05,0.000125583,-7.31E-06,1.36E-05
164,-1.18E-05,6.29E-06,2.69E-05,0.000115079,-6.48E-06,8.89E-06
165,-2.09E-05,3.05E-06,2.79E-05,3.33E-05,-5.88E-06,4.00E-06
166,-2.51E-05,2.49E-06,2.74E-05,-2.52E-05,-6.80E-06,5.41E-06
167,-1.98E-05,3.70E-06,2.38E-05,-2.12E-05,-9.61E-06,1.27E-05
168,-9.81E-06,3.83E-06,2.40E-05,4.94E-05,-1.14E-05,1.95E-05
169,-1.73E-06,4.23E-06,2.84E-05,0.000135246,-1.07E-05,2.14E-05
170,-2.06E-06,6.16E-06,3.36E-05,0.000145075,-1.06E-05,1.88E-05
171,-1.18E-05,7.95E-06,3.92E-05,7.39E-05,-1.31E-05,1.66E-05
172,-1.63E-05,7.91E-06,3.66E-05,1.89E-05,-1.57E-05,1.90E-05
173,-6.46E-06,8.20E-06,2.42E-05,1.67E-05,-1.71E-05,2.39E-05
174,4.41E-06,9.66E-06,1.77E-05,7.36E-05,-1.75E-05,2.66E-05
175,2.55E-06,1.16E-05,2.31E-05,0.000150448,-1.57E-05,2.65E-05
176,-1.14E-05,1.12E-05,3.08E-05,0.00015028,-1.44E-05,2.13E-05
177,-2.59E-05,8.07E-06,3.67E-05,6.34E-05,-1.61E-05,1.22E-05
178,-2.22E-05,7.47E-06,3.65E-05,7.13E-06,-1.66E-05,9.14E-06
179,-2.96E-06,6.96E-06,3.05E-05,2.77E-05,-1.26E-05,1.41E-05
180,1.03E-05,3.85E-06,2.23E-05,5.80E-05,-6.92E-06,2.04E-05
181,1.69E-05,2.07E-08,1.99E-05,4.00E-05,-3.67E-06,2.31E-05
182,2.33E-05,-3.69E-07,2.45E-05,3.11E-05,-4.69E-06,1.99E-05
183,2.92E-05,3.51E-06,3.10E-05,9.04E-05,-7.11E-06,1.50E-05
184,2.57E-05,8.31E-06,3.64E-05,0.000156987,-8.42E-06,9.48E-06
185,9.37E-06,1.08E-05,3.76E-05,0.00013056,-9.15E-06,3.50E-06
186,-8.49E-06,1.10E-05,3.75E-05,5.67E-05,-8.52E-06,3.23E-06
187,-1.35E-05,1.14E-05,2.92E-05,7.92E-06,-5.34E-06,1.16E-05
188,-6.26E-06,1.11E-05,1.82E-05,1.39E-05,-3.89E-06,2.03E-05
189,2.27E-06,1.16E-05,1.71E-05,8.41E-05,-5.71E-06,2.17E-05
190,2.97E-06,1.34E-05,2.35E-05,0.000155149,-7.11E-06,1.81E-05
191,-7.99E-06,1.42E-05,3.10E-05,0.000135191,-6.74E-06,1.45E-05
192,-2.46E-05,1.26E-05,3.70E-05,4.72E-05,-5.32E-06,1.46E-05
193,-3.01E-05,1.14E-05,3.71E-05,-1.37E-05,-4.80E-06,1.71E-05
194,-1.85E-05,1.19E-05,3.29E-05,-1.19E-05,-6.00E-06,1.84E-05
195,-4.53E-06,1.18E-05,3.48E-05,5.01E-05,-7.94E-06,1.67E-05
196,-4.02E-07,1.15E-05,4.05E-05,0.000121133,-1.21E-05,1.17E-05
197,-8.91E-06,1.24E-05,4.20E-05,0.000116224,-1.92E-05,3.61E-06
198,-2.46E-05,1.29E-05,4.13E-05,3.73E-05,-2.66E-05,-1.68E-06
199,-3.42E-05,1.21E-05,3.81E-05,-1.54E-05,-3.24E-05,1.37E-06
200,-2.83E-05,1.07E-05,3.03E-05,-1.26E-05,-3.43E-05,7.36E-06
201,-1.67E-05,9.75E-06,2.64E-05,4.88E-05,-3.01E-05,9.58E-06
202,-1.13E-05,1.14E-05,2.58E-05,0.000135804,-1.96E-05,9.96E-06
203,-1.54E-05,1.33E-05,2.58E-05,0.00014421,-4.87E-06,1.03E-05
204,-2.55E-05,1.24E-05,3.14E-05,5.84E-05,8.34E-06,1.24E-05
205,-2.59E-05,1.01E-05,3.77E-05,-2.16E-08,1.67E-05,1.84E-05
206,-1.34E-05,6.62E-06,3.44E-05,1.24E-05,1.97E-05,2.17E-05
207,-4.18E-06,5.36E-06,2.28E-05,3.24E-05,1.72E-05,2.02E-05
208,6.25E-07,8.89E-06,2.02E-05,1.77E-05,1.13E-05,2.01E-05
209,4.16E-06,1.46E-05,2.73E-05,1.97E-05,5.91E-06,2.05E-05
210,5.43E-06,1.96E-05,3.28E-05,8.00E-05,4.58E-06,1.89E-05
211,2.64E-06,2.11E-05,3.79E-05,0.000136087,3.38E-06,1.60E-05
212,-6.81E-06,1.86E-05,4.67E-05,9.47E-05,3.40E-08,1.11E-05
213,-1.78E-05,1.56E-05,5.36E-05,1.12E-05,-5.05E-06,6.60E-06
214,-1.50E-05,1.54E-05,4.59E-05,-3.43E-05,-1.01E-05,5.20E-06
215,2.77E-06,1.72E-05,3.04E-05,-1.74E-05,-1.33E-05,6.62E-06
216,1.86E-05,1.96E-05,2.62E-05,5.95E-05,-1.36E-05,8.78E-06
217,1.87E-05,2.09E-05,3.12E-05,0.000126363,-1.07E-05,1.05E-05
218,4.77E-06,2.06E-05,3.74E-05,9.67E-05,-7.20E-06,1.21E-05
219,-8.67E-06,1.89E-05,4.01E-05,2.11E-06,-6.12E-06,1.63E-05
220,-8.23E-06,1.63E-05,3.23E-05,-6.26E-05,-8.17E-06,2.32E-05
221,2.35E-06,1.46E-05,1.86E-05,-6.15E-05,-1.16E-05,2.77E-05
222,6.00E-06,1.60E-05,1.66E-05,9.84E-06,-1.63E-05,2.69E-05
223,-2.36E-06,2.03E-05,2.66E-05,9.82E-05,-2.11E-05,2.26E-05
224,-1.62E-05,2.35E-05,3.44E-05,0.000106106,-2.23E-05,1.63E-05
225,-2.69E-05,2.09E-05,3.39E-05,3.00E-05,-1.99E-05,1.21E-05
226,-2.61E-05,1.39E-05,2.48E-05,-2.72E-05,-1.89E-05,1.42E-05
227,-1.54E-05,9.89E-06,1.33E-05,-2.95E-05,-1.85E-05,1.86E-05
228,-6.81E-06,1.06E-05,1.25E-05,2.49E-05,-1.56E-05,1.90E-05
229,-5.35E-06,1.46E-05,2.05E-05,0.000106209,-1.35E-05,1.35E-05
230,-1.26E-05,1.76E-05,2.53E-05,0.000118677,-1.40E-05,4.56E-06
231,-2.65E-05,1.57E-05,3.07E-05,3.62E-05,-1.49E-05,-7.93E-07
232,-3.08E-05,1.33E-05,3.45E-05,-2.69E-05,-1.10E-05,3.48E-06
233,-1.93E-05,1.22E-05,2.73E-05,-1.06E-05,-4.94E-06,1.02E-05
234,-1.02E-05,1.10E-05,1.47E-05,2.76E-05,-6.14E-06,1.18E-05
235,-6.73E-06,1.04E-05,1.34E-05,2.69E-05,-1.28E-05,1.21E-05
236,-1.57E-06,9.72E-06,2.12E-05,2.91E-05,-1.80E-05,1.45E-05
237,1.98E-06,8.92E-06,2.49E-05,8.29E-05,-1.80E-05,2.00E-05
238,-2.25E-06,8.93E-06,2.16E-05,0.000137367,-1.40E-05,2.94E-05
239,-1.42E-05,8.27E-06,1.77E-05,0.000100791,-8.88E-06,4.23E-05
240,-2.56E-05,8.08E-06,1.89E-05,1.94E-05,-3.20E-06,5.64E-05
241,-2.26E-05,9.05E-06,1.51E-05,-3.03E-05,-4.83E-08,6.43E-05
242,-9.86E-06,8.18E-06,8.18E-06,-1.56E-05,-1.96E-06,5.82E-05
243,-4.58E-07,7.59E-06,8.16E-06,6.87E-05,-6.93E-06,3.90E-05
244,1.14E-06,9.80E-06,1.24E-05,0.000149518,-1.04E-05,1.27E-05
245,-6.15E-06,1.16E-05,1.82E-05,0.000128364,-1.13E-05,-1.45E-05
246,-1.58E-05,1.03E-05,2.40E-05,3.15E-05,-1.11E-05,-3.30E-05
247,-1.52E-05,7.30E-06,2.16E-05,-3.88E-05,-1.05E-05,-3.77E-05
248,1.23E-07,5.58E-06,1.14E-05,-3.97E-05,-8.45E-06,-3.64E-05
249,1.75E-05,6.25E-06,7.63E-06,3.17E-05,-4.76E-06,-3.58E-05
250,2.36E-05,7.69E-06,1.39E-05,0.000118369,-1.18E-06,-3.18E-05
251,1.26E-05,6.60E-06,2.29E-05,0.000121488,-1.18E-06,-2.13E-05
252,-6.05E-06,3.16E-06,3.04E-05,3.94E-05,-4.86E-06,-6.54E-06
253,-1.23E-05,1.62E-06,3.23E-05,-2.35E-05,-8.35E-06,8.03E-06
254,-6.75E-07,2.26E-06,2.89E-05,-3.18E-05,-9.90E-06,1.79E-05
255,1.14E-05,3.91E-06,2.80E-05,1.85E-05,-1.07E-05,1.98E-05
256,1.30E-05,7.03E-06,2.91E-05,9.19E-05,-1.03E-05,1.58E-05
257,4.11E-06,8.56E-06,2.71E-05,9.45E-05,-1.09E-05,8.12E-06
258,-5.76E-06,6.28E-06,2.71E-05,1.26E-05,-1.26E-05,3.08E-06
259,-2.10E-06,6.18E-06,2.78E-05,-4.61E-05,-1.04E-05,6.32E-06
260,1.06E-05,9.76E-06,2.21E-05,-4.05E-05,-6.00E-06,1.31E-05
261,1.19E-05,1.46E-05,1.32E-05,-2.19E-05,-3.44E-06,1.86E-05
262,6.90E-06,1.86E-05,1.39E-05,-2.48E-05,-3.23E-06,2.19E-05
263,9.82E-06,1.76E-05,2.55E-05,-3.41E-06,-4.41E-06,2.40E-05
264,1.58E-05,1.42E-05,3.58E-05,6.81E-05,-5.62E-06,2.65E-05
265,1.37E-05,1.28E-05,3.89E-05,0.000123516,-7.29E-06,2.50E-05
266,1.55E-06,1.28E-05,3.68E-05,8.31E-05,-7.20E-06,1.66E-05
267,-8.04E-06,1.20E-05,3.12E-05,7.37E-06,-4.90E-06,9.79E-06
268,-2.26E-06,9.87E-06,1.87E-05,-3.02E-05,-3.33E-06,1.09E-05
269,1.04E-05,6.28E-06,9.72E-06,-1.34E-05,-2.38E-06,1.36E-05
270,1.44E-05,4.31E-06,1.59E-05,6.24E-05,-4.57E-07,1.38E-05
271,1.01E-05,5.81E-06,2.65E-05,0.0001384,-8.90E-08,1.15E-05
272,2.15E-06,8.00E-06,3.18E-05,0.000125514,-3.24E-06,7.36E-06
273,-5.74E-06,9.49E-06,3.43E-05,4.42E-05,-5.47E-06,5.19E-06
274,-8.78E-06,1.07E-05,3.39E-05,-1.38E-05,-4.15E-06,8.74E-06
275,-5.91E-06,1.20E-05,2.85E-05,-7.09E-06,-2.51E-06,1.43E-05
276,-2.15E-06,1.36E-05,2.61E-05,6.72E-05,-3.04E-06,1.65E-05
277,7.79E-07,1.62E-05,2.94E-05,0.000148532,-5.42E-06,1.50E-05
278,-5.86E-07,1.84E-05,3.51E-05,0.000142115,-1.05E-05,1.16E-05
279,-7.80E-06,1.84E-05,3.97E-05,5.69E-05,-1.47E-05,1.04E-05
280,-9.71E-06,1.69E-05,3.56E-05,-8.35E-07,-1.26E-05,1.34E-05
281,-7.67E-07,1.48E-05,2.44E-05,-1.35E-06,-7.73E-06,1.91E-05
282,6.72E-06,1.29E-05,2.29E-05,5.39E-05,-6.65E-06,2.46E-05
283,4.80E-06,1.48E-05,2.84E-05,0.000130797,-9.63E-06,2.45E-05
284,-5.31E-06,1.95E-05,2.88E-05,0.000132374,-1.17E-05,1.73E-05
285,-1.47E-05,2.16E-05,3.17E-05,4.35E-05,-1.21E-05,9.76E-06
286,-1.14E-05,1.94E-05,3.58E-05,-1.93E-05,-1.41E-05,1.14E-05
287,-2.38E-06,1.68E-05,3.20E-05,-7.98E-06,-1.59E-05,1.68E-05
288,-1.53E-06,1.58E-05,2.48E-05,1.77E-05,-1.42E-05,1.57E-05
289,-6.31E-06,1.45E-05,2.68E-05,8.29E-06,-9.11E-06,1.14E-05
290,-1.07E-05,1.45E-05,3.57E-05,1.28E-05,-4.79E-06,1.21E-05
291,-1.03E-05,1.69E-05,4.10E-05,7.73E-05,-1.00E-06,1.67E-05
292,-4.08E-06,1.99E-05,4.26E-05,0.000140537,1.00E-06,1.72E-05
293,-5.04E-06,1.97E-05,4.38E-05,0.000109599,4.93E-07,1.27E-05
294,-1.55E-05,1.71E-05,4.43E-05,3.54E-05,1.72E-06,9.67E-06
295,-1.89E-05,1.55E-05,3.55E-05,-8.99E-06,3.33E-06,1.23E-05
296,-1.27E-05,1.57E-05,2.32E-05,5.91E-07,2.15E-06,1.46E-05
297,-7.91E-06,1.48E-05,2.00E-05,7.19E-05,-1.66E-06,1.24E-05
298,-1.19E-05,1.28E-05,2.45E-05,0.000143902,-4.56E-06,7.41E-06
299,-2.34E-05,1.10E-05,3.16E-05,0.000128769,-3.82E-06,2.68E-06
300,-3.52E-05,1.01E-05,3.78E-05,5.03E-05,-3.24E-06,6.34E-07
301,-3.89E-05,1.12E-05,3.59E-05,-1.03E-06,-8.10E-06,2.86E-06
302,-3.60E-05,1.27E-05,2.55E-05,7.11E-06,-1.46E-05,7.21E-06
303,-3.34E-05,1.17E-05,1.99E-05,7.45E-05,-1.49E-05,1.07E-05
304,-3.17E-05,8.74E-06,2.33E-05,0.000150284,-1.02E-05,1.36E-05
305,-3.19E-05,8.02E-06,2.96E-05,0.000145033,-9.37E-06,1.49E-05
306,-3.30E-05,9.91E-06,3.38E-05,6.11E-05,-1.49E-05,1.63E-05
307,-2.51E-05,1.39E-05,3.04E-05,3.88E-06,-2.01E-05,1.99E-05
308,-8.76E-06,1.61E-05,2.09E-05,7.71E-06,-2.24E-05,2.23E-05
309,-6.67E-07,1.57E-05,1.63E-05,6.68E-05,-2.44E-05,2.01E-05
310,-3.70E-06,1.48E-05,1.89E-05,0.000142797,-2.69E-05,1.54E-05
311,-1.12E-05,1.09E-05,2.25E-05,0.00013998,-2.76E-05,1.02E-05
312,-1.82E-05,5.01E-06,2.77E-05,4.40E-05,-2.58E-05,7.86E-06
313,-1.41E-05,2.55E-06,2.86E-05,-2.40E-05,-2.46E-05,1.27E-05
314,-2.13E-06,3.54E-06,1.94E-05,-8.78E-06,-2.65E-05,1.88E-05
315,4.10E-06,5.35E-06,1.15E-05,2.45E-05,-2.57E-05,1.85E-05
316,1.13E-05,8.17E-06,1.68E-05,1.91E-05,-1.50E-05,1.43E-05
317,2.20E-05,1.25E-05,2.95E-05,2.24E-05,1.36E-06,1.39E-05
318,2.67E-05,1.51E-05,3.43E-05,8.33E-05,1.17E-05,1.94E-05
319,2.05E-05,1.38E-05,2.98E-05,0.000145755,7.76E-06,2.13E-05
320,4.61E-06,8.66E-06,2.39E-05,0.000111926,-3.01E-06,1.64E-05
321,-9.40E-06,4.38E-06,2.01E-05,3.22E-05,-9.51E-06,1.42E-05
322,-6.57E-06,4.01E-06,1.25E-05,-1.53E-05,-1.13E-05,2.20E-05
323,6.46E-06,4.54E-06,5.72E-06,-5.04E-06,-1.02E-05,3.24E-05
324,1.36E-05,4.94E-06,8.22E-06,7.14E-05,-7.20E-06,3.65E-05
325,1.02E-05,6.65E-06,1.57E-05,0.000149392,-4.06E-06,3.31E-05
326,-1.72E-06,1.08E-05,2.47E-05,0.000134719,-3.25E-06,2.54E-05
327,-1.48E-05,1.60E-05,3.06E-05,4.91E-05,-5.29E-06,1.48E-05
328,-1.78E-05,1.86E-05,2.51E-05,-1.10E-05,-8.58E-06,-2.89E-08
329,-9.66E-06,1.79E-05,1.26E-05,-1.43E-06,-1.03E-05,-1.50E-05
330,-8.86E-07,1.73E-05,1.11E-05,7.79E-05,-9.66E-06,-1.93E-05
331,-9.27E-07,1.89E-05,1.93E-05,0.000164146,-7.95E-06,-1.07E-05
332,-1.23E-05,2.05E-05,2.48E-05,0.000160984,-6.05E-06,6.14E-07
333,-2.74E-05,1.95E-05,2.66E-05,7.34E-05,-4.78E-06,8.86E-06
334,-3.12E-05,1.67E-05,2.41E-05,1.16E-05,-4.81E-06,1.44E-05
335,-2.25E-05,1.53E-05,1.76E-05,9.54E-06,-4.74E-06,1.72E-05
336,-1.73E-05,1.79E-05,1.93E-05,6.56E-05,-4.55E-06,1.67E-05
337,-2.09E-05,2.06E-05,2.93E-05,0.00014426,-6.63E-06,1.36E-05
338,-3.10E-05,1.94E-05,3.61E-05,0.000146683,-8.98E-06,9.43E-06
339,-3.99E-05,1.71E-05,4.00E-05,5.43E-05,-7.14E-06,5.38E-06
340,-3.24E-05,1.52E-05,3.89E-05,-1.97E-05,-2.94E-06,1.29E-06
341,-1.63E-05,1.20E-05,3.27E-05,-1.67E-05,-4.58E-06,9.50E-07
342,-1.00E-05,9.06E-06,2.57E-05,8.37E-06,-1.05E-05,6.26E-06
343,-7.06E-06,9.18E-06,2.43E-05,-1.18E-07,-1.10E-05,1.44E-05
344,-5.26E-06,1.02E-05,2.91E-05,1.05E-05,-6.31E-06,2.05E-05
345,-6.78E-06,1.20E-05,3.07E-05,8.45E-05,-7.56E-07,2.26E-05
346,-8.20E-06,1.49E-05,2.97E-05,0.000149313,1.25E-06,2.12E-05
347,-1.20E-05,1.56E-05,3.23E-05,0.000108089,-2.28E-06,1.77E-05
348,-1.79E-05,1.61E-05,3.64E-05,2.47E-05,-7.95E-06,1.69E-05
349,-1.63E-05,1.91E-05,2.79E-05,-2.15E-05,-1.10E-05,1.90E-05
350,-4.50E-06,2.28E-05,1.37E-05,-1.48E-05,-1.22E-05,1.72E-05
351,8.40E-06,2.47E-05,1.36E-05,5.01E-05,-1.25E-05,1.17E-05
352,9.91E-06,2.34E-05,2.42E-05,0.000117205,-9.54E-06,9.19E-06
353,-5.33E-06,1.91E-05,3.45E-05,0.000101471,-4.22E-06,9.80E-06
354,-2.53E-05,1.46E-05,3.98E-05,2.30E-05,-2.86E-07,1.13E-05
355,-2.91E-05,1.21E-05,3.56E-05,-2.87E-05,-9.37E-07,1.38E-05
356,-1.36E-05,1.17E-05,2.24E-05,-1.77E-05,-6.07E-06,1.56E-05
357,4.88E-06,1.37E-05,1.62E-05,5.49E-05,-1.18E-05,1.52E-05
358,1.29E-05,1.70E-05,2.22E-05,0.000135092,-1.50E-05,1.28E-05
359,7.40E-06,1.91E-05,3.22E-05,0.000129884,-1.68E-05,1.05E-05
360,-5.32E-06,1.91E-05,3.92E-05,4.00E-05,-1.77E-05,1.14E-05
361,-9.08E-06,1.67E-05,3.67E-05,-2.53E-05,-1.74E-05,1.49E-05
362,1.11E-06,1.08E-05,2.62E-05,-2.66E-05,-1.29E-05,1.65E-05
363,8.06E-06,5.65E-06,2.05E-05,3.71E-05,-4.91E-06,1.45E-05
364,3.29E-06,5.39E-06,2.29E-05,0.000127116,4.19E-07,1.11E-05
365,-7.87E-06,6.63E-06,2.75E-05,0.000142464,2.98E-06,6.13E-06
366,-1.82E-05,7.51E-06,3.46E-05,6.07E-05,5.27E-06,3.59E-07
367,-2.21E-05,1.14E-05,3.90E-05,-4.09E-06,1.81E-06,-7.63E-07
368,-1.87E-05,1.59E-05,3.10E-05,6.43E-06,-8.74E-06,3.08E-06
369,-1.32E-05,1.69E-05,1.91E-05,2.68E-05,-1.87E-05,6.54E-06
370,-5.17E-06,1.32E-05,2.34E-05,7.33E-06,-2.20E-05,6.61E-06
371,3.44E-06,1.07E-05,3.84E-05,9.87E-06,-1.64E-05,3.10E-06
372,1.00E-05,1.55E-05,4.50E-05,7.65E-05,-5.14E-06,-1.33E-07
373,1.14E-05,2.17E-05,3.93E-05,0.00013694,3.53E-06,-1.99E-06
374,1.62E-06,2.10E-05,3.20E-05,9.60E-05,3.62E-06,-2.79E-06
375,-1.07E-05,1.43E-05,2.97E-05,1.17E-05,-2.86E-06,3.23E-07
376,-9.82E-06,8.37E-06,2.38E-05,-3.22E-05,-9.73E-06,5.73E-06
377,3.97E-07,7.32E-06,1.59E-05,-1.35E-05,-1.30E-05,9.21E-06
378,6.44E-06,1.20E-05,1.77E-05,6.21E-05,-1.26E-05,1.22E-05
379,3.83E-06,1.84E-05,2.64E-05,0.000131691,-1.08E-05,1.67E-05
380,-6.63E-06,2.05E-05,3.40E-05,0.000118323,-1.05E-05,2.07E-05
381,-1.73E-05,1.93E-05,3.52E-05,4.53E-05,-1.14E-05,2.40E-05
382,-1.74E-05,1.84E-05,2.81E-05,-7.76E-06,-1.28E-05,2.70E-05
383,-7.96E-06,1.80E-05,1.77E-05,-7.17E-06,-1.62E-05,2.81E-05
384,1.06E-06,1.79E-05,1.60E-05,5.48E-05,-1.92E-05,2.79E-05
385,5.48E-06,1.87E-05,2.13E-05,0.000125417,-1.81E-05,2.64E-05
386,2.71E-06,1.89E-05,2.57E-05,0.000110759,-1.61E-05,2.10E-05
387,-6.76E-06,1.56E-05,2.56E-05,1.69E-05,-1.85E-05,1.55E-05
388,-1.24E-05,9.47E-06,1.62E-05,-4.70E-05,-2.37E-05,1.68E-05
389,-6.35E-06,5.63E-06,2.53E-06,-5.02E-05,-2.33E-05,2.27E-05
390,1.60E-06,6.97E-06,-3.92E-07,2.98E-06,-1.18E-05,2.56E-05
391,2.93E-06,1.00E-05,5.84E-06,8.09E-05,4.37E-06,2.21E-05
392,-2.34E-06,1.08E-05,1.42E-05,9.28E-05,1.69E-05,1.49E-05
393,-1.12E-05,9.00E-06,2.40E-05,2.04E-05,2.24E-05,1.37E-05
394,-1.28E-05,8.60E-06,2.74E-05,-3.14E-05,2.01E-05,2.97E-05
395,-8.19E-06,9.94E-06,2.19E-05,-1.04E-05,1.27E-05,5.65E-05
396,-1.08E-05,1.04E-05,1.32E-05,2.71E-05,5.60E-06,7.54E-05
397,-1.59E-05,8.63E-06,1.41E-05,1.72E-05,3.31E-06,7.74E-05
398,-1.69E-05,4.13E-06,2.22E-05,1.14E-05,3.22E-06,6.31E-05
399,-1.75E-05,4.15E-07,2.68E-05,6.96E-05,1.50E-06,4.04E-05
400,-1.93E-05,-1.01E-06,2.30E-05,0.000129273,-2.99E-06,1.40E-05
401,-2.39E-05,-2.82E-06,1.88E-05,9.68E-05,-9.61E-06,-1.19E-05
402,-2.88E-05,-3.74E-06,2.14E-05,2.85E-05,-1.50E-05,-2.81E-05
403,-2.74E-05,-1.66E-07,2.11E-05,-3.88E-07,-1.61E-05,-3.20E-05
404,-2.11E-05,5.59E-06,1.78E-05,2.38E-05,-1.38E-05,-2.94E-05
405,-1.22E-05,1.06E-05,2.20E-05,9.73E-05,-1.33E-05,-2.68E-05
406,-4.32E-06,1.45E-05,3.02E-05,0.000163631,-1.55E-05,-2.48E-05
407,-5.55E-06,1.67E-05,3.63E-05,0.00014788,-1.75E-05,-1.86E-05
408,-1.18E-05,1.79E-05,4.02E-05,7.23E-05,-1.78E-05,-3.67E-06
409,-7.43E-06,1.90E-05,3.78E-05,1.55E-05,-1.61E-05,1.44E-05
410,7.08E-06,2.02E-05,3.01E-05,1.14E-05,-1.32E-05,2.27E-05
411,1.65E-05,2.26E-05,2.76E-05,7.05E-05,-1.21E-05,1.88E-05
412,1.54E-05,2.54E-05,3.16E-05,0.00014493,-1.41E-05,1.06E-05
413,9.13E-06,2.44E-05,3.55E-05,0.000140603,-1.66E-05,2.73E-06
414,3.38E-06,2.18E-05,3.91E-05,5.42E-05,-1.58E-05,-5.86E-07
415,3.43E-06,2.34E-05,3.75E-05,-1.18E-05,-1.20E-05,5.44E-06
416,8.76E-06,2.86E-05,2.60E-05,-1.59E-05,-8.75E-06,1.40E-05
417,1.50E-05,3.22E-05,2.31E-05,4.57E-05,-8.47E-06,1.48E-05
418,1.93E-05,3.29E-05,3.58E-05,0.000127656,-1.12E-05,9.74E-06
419,1.26E-05,3.07E-05,4.58E-05,0.000132124,-1.49E-05,4.98E-06
420,1.92E-07,2.42E-05,5.20E-05,5.75E-05,-1.85E-05,4.34E-06
421,-7.32E-07,1.67E-05,5.38E-05,1.08E-05,-2.07E-05,9.41E-06
422,9.26E-06,1.26E-05,4.51E-05,2.30E-05,-2.04E-05,1.58E-05
423,1.26E-05,1.07E-05,3.19E-05,4.01E-05,-1.72E-05,2.06E-05
424,9.48E-06,8.64E-06,3.21E-05,2.31E-05,-1.46E-05,2.30E-05
425,8.58E-06,5.73E-06,4.56E-05,2.51E-05,-1.33E-05,2.15E-05
426,9.67E-06,3.79E-06,5.36E-05,9.10E-05,-1.06E-05,1.88E-05
427,8.30E-06,5.67E-06,5.11E-05,0.000150394,-8.96E-06,1.79E-05
428,-2.27E-06,8.03E-06,4.86E-05,0.0001152,-1.10E-05,1.58E-05
429,-1.64E-05,8.24E-06,4.95E-05,4.20E-05,-1.34E-05,1.20E-05
430,-1.90E-05,7.13E-06,4.38E-05,-3.94E-06,-1.13E-05,1.01E-05
431,-1.22E-05,7.52E-06,3.22E-05,-7.24E-06,-6.49E-06,1.05E-05
432,-9.94E-06,9.58E-06,2.69E-05,4.73E-05,-3.31E-06,1.31E-05
433,-1.42E-05,1.10E-05,3.01E-05,0.000112881,-3.26E-06,1.53E-05
434,-2.16E-05,1.01E-05,3.50E-05,0.000103648,-4.52E-06,1.40E-05
435,-2.69E-05,7.31E-06,3.60E-05,3.48E-05,-5.28E-06,1.18E-05
436,-2.36E-05,4.72E-06,2.97E-05,-1.30E-05,-5.44E-06,1.36E-05
437,-1.63E-05,3.78E-06,2.31E-05,-7.83E-06,-6.48E-06,1.76E-05
438,-1.29E-05,5.05E-06,2.74E-05,5.20E-05,-9.29E-06,2.04E-05
439,-1.16E-05,8.25E-06,3.61E-05,0.000119404,-1.26E-05,2.18E-05
440,-1.35E-05,1.06E-05,3.71E-05,0.000114048,-1.41E-05,2.04E-05
441,-2.00E-05,8.32E-06,3.35E-05,3.98E-05,-1.47E-05,1.65E-05
442,-1.91E-05,4.63E-06,2.83E-05,-1.05E-05,-1.64E-05,1.42E-05
443,-5.25E-06,4.09E-06,2.22E-05,-4.05E-06,-1.71E-05,1.51E-05
444,7.36E-06,4.63E-06,2.46E-05,6.09E-05,-1.64E-05,1.72E-05
445,9.79E-06,4.77E-06,3.47E-05,0.000147138,-1.41E-05,1.97E-05
446,6.44E-06,5.58E-06,3.91E-05,0.000156543,-1.03E-05,1.84E-05
447,5.44E-06,5.86E-06,4.01E-05,7.56E-05,-6.43E-06,1.39E-05
448,1.82E-05,5.67E-06,3.99E-05,1.36E-05,-4.55E-06,1.32E-05
449,4.09E-05,5.35E-06,3.18E-05,1.79E-05,-5.37E-06,1.66E-05
450,4.79E-05,3.31E-06,2.26E-05,3.93E-05,-6.62E-06,1.96E-05
451,3.70E-05,1.67E-06,2.63E-05,2.90E-05,-7.21E-06,1.92E-05
452,2.75E-05,1.92E-06,3.71E-05,2.73E-05,-6.52E-06,1.52E-05
453,2.71E-05,2.63E-06,4.31E-05,7.75E-05,-5.08E-06,1.25E-05
454,2.71E-05,2.99E-06,4.17E-05,0.000123605,-5.72E-06,1.12E-05
455,1.55E-05,2.71E-06,3.89E-05,7.96E-05,-8.68E-06,9.14E-06
456,-1.83E-06,2.98E-06,4.04E-05,3.73E-06,-9.90E-06,9.33E-06
457,-5.39E-06,3.84E-06,3.49E-05,-3.22E-05,-7.87E-06,1.39E-05
458,2.83E-06,3.51E-06,2.35E-05,-1.43E-05,-6.87E-06,1.88E-05
459,5.99E-06,3.68E-06,2.16E-05,6.12E-05,-9.26E-06,1.98E-05
460,-2.01E-06,7.09E-06,2.88E-05,0.000133588,-1.21E-05,1.50E-05
461,-1.50E-05,1.20E-05,3.57E-05,0.000111064,-1.10E-05,6.98E-06
462,-2.44E-05,1.47E-05,3.72E-05,1.78E-05,-6.48E-06,4.52E-06
463,-2.40E-05,1.42E-05,3.12E-05,-4.75E-05,-1.42E-06,1.21E-05
464,-1.55E-05,1.36E-05,2.02E-05,-4.58E-05,1.51E-06,2.15E-05
465,-8.27E-06,1.57E-05,1.68E-05,1.99E-05,-6.56E-07,2.42E-05
466,-7.78E-06,1.77E-05,2.21E-05,9.33E-05,-7.73E-06,2.21E-05
467,-1.52E-05,1.50E-05,2.75E-05,8.53E-05,-1.62E-05,2.01E-05
468,-2.43E-05,9.69E-06,3.14E-05,3.76E-06,-2.21E-05,2.28E-05
469,-2.26E-05,6.69E-06,2.93E-05,-4.79E-05,-2.22E-05,2.88E-05
470,-1.09E-05,7.76E-06,1.79E-05,-4.16E-05,-1.60E-05,3.15E-05
471,-3.37E-06,1.22E-05,7.73E-06,1.93E-05,-8.23E-06,2.62E-05
472,-4.70E-06,1.59E-05,7.56E-06,0.000101858,-5.15E-06,9.86E-06
473,-1.28E-05,1.66E-05,1.30E-05,0.000114239,-6.97E-06,-1.52E-05
474,-2.08E-05,1.67E-05,2.00E-05,3.82E-05,-8.54E-06,-3.27E-05
475,-1.70E-05,1.82E-05,2.18E-05,-2.10E-05,-8.10E-06,-2.81E-05
476,-1.37E-06,1.88E-05,1.77E-05,-9.38E-06,-7.89E-06,-1.07E-05
477,3.09E-06,1.61E-05,1.37E-05,2.27E-05,-9.02E-06,3.71E-06
478,-3.88E-06,1.32E-05,1.53E-05,2.19E-05,-9.01E-06,1.04E-05
479,-7.69E-06,1.25E-05,2.10E-05,3.08E-05,-7.01E-06,1.17E-05
480,-9.39E-06,1.29E-05,2.50E-05,9.12E-05,-5.33E-06,1.30E-05
481,-1.18E-05,1.31E-05,2.83E-05,0.000144482,-4.13E-06,1.54E-05
482,-2.04E-05,1.34E-05,3.18E-05,0.000103375,-3.29E-06,1.70E-05
483,-3.11E-05,1.44E-05,3.39E-05,1.94E-05,-3.21E-06,1.80E-05
484,-3.09E-05,1.60E-05,2.91E-05,-3.22E-05,-2.91E-06,2.11E-05
485,-2.09E-05,1.82E-05,2.36E-05,-2.42E-05,-8.20E-07,2.28E-05
486,-9.29E-06,2.16E-05,2.86E-05,5.16E-05,1.60E-06,2.21E-05
487,-4.84E-07,2.33E-05,3.64E-05,0.000132973,1.27E-06,1.99E-05
488,-1.46E-06,2.06E-05,3.87E-05,0.000126758,-1.23E-06,1.70E-05
489,-1.24E-05,1.65E-05,3.76E-05,5.22E-05,-4.34E-06,1.37E-05
490,-1.91E-05,1.53E-05,3.46E-05,1.04E-07,-6.93E-06,1.19E-05
491,-1.30E-05,1.62E-05,2.97E-05,6.28E-06,-7.99E-06,1.36E-05
492,-4.36E-06,1.65E-05,3.09E-05,6.95E-05,-6.83E-06,1.67E-05
493,-3.33E-06,1.68E-05,3.80E-05,0.000134102,-5.18E-06,1.49E-05
494,-1.11E-05,1.76E-05,4.39E-05,0.000114816,-5.99E-06,7.31E-06
495,-2.28E-05,1.77E-05,4.64E-05,2.26E-05,-9.81E-06,2.45E-06
496,-2.83E-05,1.72E-05,4.09E-05,-3.92E-05,-1.39E-05,5.58E-06
497,-2.52E-05,1.87E-05,2.79E-05,-3.93E-05,-1.49E-05,1.25E-05
498,-2.47E-05,2.16E-05,2.25E-05,2.56E-05,-1.06E-05,1.59E-05
499,-2.88E-05,2.35E-05,2.80E-05,0.000121873,-1.68E-06,1.39E-05
500,-3.52E-05,2.29E-05,3.38E-05,0.000143743,4.69E-06,6.75E-06
501,-3.81E-05,1.94E-05,3.92E-05,6.88E-05,2.75E-06,2.24E-06
502,-2.63E-05,1.63E-05,3.86E-05,1.25E-05,-2.94E-06,5.17E-06
503,-1.14E-05,1.41E-05,2.86E-05,2.79E-05,-4.73E-06,7.76E-06
504,-1.03E-05,1.06E-05,2.08E-05,5.05E-05,-2.98E-06,6.65E-06
505,-1.31E-05,6.08E-06,2.68E-05,3.16E-05,-1.53E-06,5.78E-06
506,-7.84E-06,3.29E-06,3.82E-05,3.26E-05,-6.83E-07,5.33E-06
507,3.54E-06,5.07E-06,4.13E-05,9.66E-05,-1.68E-06,4.93E-06
508,1.03E-05,9.04E-06,3.57E-05,0.000155664,-3.86E-06,3.90E-06
509,1.17E-06,1.07E-05,2.98E-05,0.000121602,-5.16E-06,4.50E-06
510,-1.51E-05,8.77E-06,2.93E-05,5.12E-05,-6.66E-06,1.03E-05
511,-1.68E-05,5.83E-06,2.22E-05,1.11E-05,-9.16E-06,1.97E-05
512,-6.00E-06,4.94E-06,8.13E-06,2.07E-05,-1.19E-05,2.52E-05
513,4.94E-06,7.40E-06,3.48E-06,8.90E-05,-1.37E-05,2.54E-05
514,8.91E-06,1.16E-05,1.13E-05,0.000156382,-1.48E-05,2.20E-05
515,2.83E-06,1.35E-05,2.33E-05,0.000133589,-1.50E-05,1.61E-05
516,-6.78E-06,1.14E-05,3.09E-05,4.65E-05,-1.32E-05,1.04E-05
517,-6.58E-06,8.94E-06,2.82E-05,-1.29E-05,-9.13E-06,7.82E-06
518,5.06E-06,1.07E-05,1.89E-05,-1.12E-05,-4.00E-06,7.39E-06
519,1.70E-05,1.52E-05,1.90E-05,5.54E-05,-1.41E-06,8.05E-06
520,2.14E-05,1.78E-05,2.93E-05,0.000134435,-4.53E-06,9.63E-06
521,1.44E-05,1.65E-05,3.72E-05,0.000127261,-1.19E-05,1.05E-05
522,-8.31E-07,1.34E-05,3.96E-05,2.97E-05,-1.90E-05,1.23E-05
523,-9.97E-06,1.14E-05,3.65E-05,-4.77E-05,-2.29E-05,1.67E-05
524,-7.21E-06,1.06E-05,3.02E-05,-5.53E-05,-2.33E-05,2.10E-05
525,-3.25E-06,1.05E-05,3.17E-05,1.43E-05,-2.28E-05,2.08E-05
526,-1.50E-06,1.07E-05,3.74E-05,0.000110658,-2.22E-05,1.58E-05
527,-4.50E-06,9.29E-06,3.68E-05,0.000118718,-2.19E-05,7.24E-06
528,-1.39E-05,4.61E-06,3.53E-05,2.75E-05,-2.35E-05,2.41E-06
529,-1.86E-05,-8.13E-07,3.45E-05,-3.45E-05,-2.22E-05,6.55E-06
530,-1.61E-05,-2.38E-06,3.09E-05,-1.64E-05,-1.21E-05,9.22E-06
531,-1.92E-05,1.22E-06,2.38E-05,2.18E-05,1.03E-06,7.05E-06
532,-2.61E-05,5.09E-06,2.05E-05,2.00E-05,8.50E-06,6.19E-06
533,-2.71E-05,5.57E-06,2.34E-05,2.14E-05,7.68E-06,6.32E-06
534,-2.10E-05,5.90E-06,2.62E-05,7.94E-05,1.76E-06,7.56E-06
535,-1.63E-05,8.22E-06,2.72E-05,0.000136991,-5.52E-06,8.12E-06
536,-2.21E-05,9.98E-06,2.50E-05,0.000101617,-1.03E-05,6.00E-06
537,-3.35E-05,1.08E-05,2.12E-05,2.51E-05,-1.01E-05,5.69E-06
538,-3.51E-05,1.09E-05,1.08E-05,-1.92E-05,-9.26E-06,1.25E-05
539,-2.77E-05,9.36E-06,6.89E-07,-7.25E-06,-1.04E-05,2.09E-05
540,-2.09E-05,8.85E-06,2.98E-06,6.79E-05,-1.10E-05,2.37E-05
541,-1.62E-05,1.24E-05,1.22E-05,0.00014411,-9.94E-06,1.89E-05
542,-1.68E-05,1.73E-05,2.18E-05,0.000131375,-8.49E-06,1.09E-05
543,-2.38E-05,1.82E-05,2.88E-05,4.89E-05,-7.84E-06,8.10E-06
544,-2.68E-05,1.56E-05,2.67E-05,-1.40E-05,-7.36E-06,1.39E-05
545,-1.88E-05,1.40E-05,1.85E-05,-1.76E-05,-5.93E-06,1.92E-05
546,-8.09E-06,1.55E-05,1.95E-05,4.44E-05,-5.20E-06,1.56E-05
547,-2.60E-06,1.75E-05,2.81E-05,0.000120895,-8.50E-06,8.19E-06
548,-3.15E-06,1.60E-05,3.30E-05,0.000120231,-1.23E-05,4.99E-06
549,-6.72E-06,1.28E-05,3.39E-05,4.14E-05,-1.12E-05,7.92E-06
550,-4.79E-06,1.19E-05,2.91E-05,-1.74E-05,-7.86E-06,1.40E-05
551,4.38E-06,1.17E-05,2.02E-05,-2.73E-05,-6.52E-06,1.82E-05
552,1.11E-05,1.09E-05,1.97E-05,1.82E-05,-6.97E-06,1.76E-05
553,1.33E-05,1.28E-05,2.49E-05,9.25E-05,-8.01E-06,1.47E-05
554,9.11E-06,1.75E-05,2.57E-05,9.45E-05,-9.17E-06,8.60E-06
555,1.36E-06,2.05E-05,2.99E-05,5.12E-06,-1.07E-05,9.00E-06
556,-2.43E-08,2.26E-05,3.48E-05,-5.73E-05,-1.49E-05,3.26E-05
557,6.60E-06,2.49E-05,3.01E-05,-3.60E-05,-2.00E-05,6.23E-05
558,1.45E-05,2.58E-05,1.99E-05,6.77E-06,-2.03E-05,7.51E-05
559,2.47E-05,2.33E-05,1.54E-05,1.08E-05,-1.55E-05,7.21E-05
560,3.10E-05,1.95E-05,1.85E-05,2.25E-05,-9.33E-06,5.69E-05
561,2.77E-05,1.88E-05,2.22E-05,8.81E-05,-4.34E-06,3.26E-05
562,1.86E-05,2.05E-05,2.37E-05,0.000148405,-4.27E-06,3.77E-06
563,1.34E-06,2.14E-05,2.50E-05,0.000114623,-1.04E-05,-2.05E-05
564,-1.53E-05,2.19E-05,2.70E-05,3.85E-05,-1.83E-05,-3.25E-05
565,-1.55E-05,2.26E-05,2.13E-05,-5.49E-06,-2.35E-05,-3.29E-05
566,-3.85E-06,2.09E-05,9.44E-06,7.69E-06,-2.31E-05,-3.05E-05
567,3.34E-06,1.88E-05,5.34E-06,8.07E-05,-1.67E-05,-2.71E-05
568,2.56E-06,2.00E-05,1.11E-05,0.000151102,-9.63E-06,-2.16E-05
569,-3.84E-06,2.26E-05,1.92E-05,0.000138662,-7.95E-06,-1.29E-05
570,-1.19E-05,2.27E-05,2.23E-05,6.99E-05,-1.07E-05,-1.61E-06
571,-1.23E-05,1.95E-05,1.77E-05,2.33E-05,-1.24E-05,9.20E-06
572,-3.32E-06,1.52E-05,1.13E-05,2.27E-05,-1.33E-05,1.55E-05
573,5.04E-06,1.19E-05,1.32E-05,7.53E-05,-1.71E-05,1.58E-05
574,7.47E-06,1.11E-05,2.00E-05,0.000143608,-1.97E-05,1.27E-05
575,6.13E-06,1.12E-05,2.43E-05,0.000141619,-1.39E-05,8.51E-06
576,2.82E-06,1.14E-05,2.73E-05,6.00E-05,-1.62E-06,8.38E-06
577,1.77E-06,1.06E-05,2.70E-05,-4.98E-06,1.03E-05,1.36E-05
578,3.70E-06,9.54E-06,2.22E-05,-1.23E-05,1.83E-05,1.79E-05
579,7.95E-06,1.14E-05,2.57E-05,4.20E-05,2.06E-05,1.88E-05
580,1.48E-05,1.64E-05,3.72E-05,0.000122289,1.77E-05,1.71E-05
581,1.31E-05,1.93E-05,4.51E-05,0.000132169,1.36E-05,9.64E-06
582,-5.01E-07,1.72E-05,4.70E-05,5.26E-05,1.05E-05,2.60E-06
583,-4.65E-06,1.29E-05,4.17E-05,-9.25E-06,7.13E-06,4.42E-06
584,6.44E-06,1.19E-05,3.43E-05,-9.28E-06,3.50E-06,1.10E-05
585,1.29E-05,1.55E-05,3.03E-05,-1.07E-06,-4.02E-07,1.56E-05
586,1.40E-05,1.58E-05,3.10E-05,-2.20E-05,-4.46E-06,1.73E-05
587,1.36E-05,1.24E-05,3.43E-05,-1.67E-05,-8.64E-06,1.70E-05
588,1.21E-05,1.06E-05,3.88E-05,4.71E-05,-1.39E-05,1.82E-05
589,8.63E-06,1.16E-05,4.34E-05,0.00010385,-1.94E-05,1.93E-05
590,-5.75E-06,1.22E-05,4.56E-05,7.09E-05,-2.38E-05,1.92E-05
591,-2.29E-05,1.05E-05,4.47E-05,-4.87E-06,-2.66E-05,1.93E-05
592,-2.35E-05,1.03E-05,3.45E-05,-5.35E-05,-2.59E-05,1.99E-05
593,-9.78E-06,1.11E-05,2.40E-05,-4.40E-05,-1.84E-05,1.96E-05
594,2.73E-06,1.11E-05,2.46E-05,3.87E-05,-6.52E-06,1.85E-05
595,5.38E-06,1.04E-05,3.00E-05,0.000126169,3.03E-06,1.55E-05
596,-3.81E-06,9.51E-06,3.44E-05,0.000117108,3.37E-06,1.03E-05
597,-1.64E-05,8.69E-06,3.69E-05,3.38E-05,-5.60E-06,6.85E-06
598,-2.03E-05,9.67E-06,3.26E-05,-2.36E-05,-1.46E-05,9.46E-06
599,-1.57E-05,1.11E-05,2.15E-05,-1.79E-05,-1.55E-05,1.63E-05
600,-1.07E-05,1.05E-05,1.49E-05,4.75E-05,-1.02E-05,1.96E-05
601,-8.72E-06,8.89E-06,1.64E-05,0.00012285,-4.46E-06,1.63E-05
602,-1.19E-05,7.14E-06,2.12E-05,0.000123221,-4.19E-07,1.02E-05
603,-1.81E-05,5.84E-06,2.56E-05,4.78E-05,1.96E-06,7.84E-06
604,-1.85E-05,5.73E-06,2.33E-05,-8.59E-06,2.20E-06,1.10E-05
605,-1.10E-05,8.09E-06,1.39E-05,-1.04E-05,-6.63E-07,1.69E-05
606,-4.45E-06,1.20E-05,1.22E-05,5.18E-05,-4.95E-06,2.00E-05
607,-5.61E-06,1.31E-05,1.80E-05,0.000144262,-8.93E-06,1.81E-05
608,-1.49E-05,1.12E-05,2.18E-05,0.000158132,-1.16E-05,1.22E-05
609,-2.61E-05,8.68E-06,2.68E-05,7.52E-05,-1.24E-05,9.00E-06
610,-2.80E-05,6.86E-06,2.86E-05,2.00E-05,-1.10E-05,1.28E-05
611,-2.20E-05,6.38E-06,2.10E-05,4.43E-05,-1.00E-05,1.89E-05
612,-1.68E-05,8.22E-06,1.06E-05,7.08E-05,-1.31E-05,2.26E-05
613,-9.07E-06,1.10E-05,9.56E-06,4.44E-05,-1.69E-05,2.24E-05
614,1.62E-07,1.28E-05,1.84E-05,3.57E-05,-1.80E-05,2.18E-05
615,5.94E-06,1.44E-05,2.88E-05,9.87E-05,-1.86E-05,2.50E-05
616,5.67E-06,1.47E-05,3.62E-05,0.000160293,-1.97E-05,2.46E-05
617,-5.82E-06,1.21E-05,4.04E-05,0.000126105,-2.13E-05,1.62E-05
618,-2.12E-05,7.78E-06,4.16E-05,5.34E-05,-2.12E-05,7.42E-06
619,-2.12E-05,6.94E-06,3.30E-05,1.08E-05,-1.74E-05,6.96E-06
620,-8.10E-06,8.82E-06,1.96E-05,1.46E-05,-1.31E-05,1.22E-05
621,2.07E-06,9.76E-06,1.58E-05,7.55E-05,-1.22E-05,1.48E-05
622,2.43E-06,9.13E-06,2.24E-05,0.000140714,-1.29E-05,1.25E-05
623,-6.18E-06,7.20E-06,3.06E-05,0.000123242,-1.23E-05,9.18E-06
624,-1.66E-05,5.71E-06,3.46E-05,4.16E-05,-1.17E-05,9.66E-06
625,-1.77E-05,5.83E-06,3.02E-05,-1.78E-05,-1.33E-05,1.42E-05
626,-8.76E-06,6.12E-06,2.02E-05,-2.06E-05,-1.68E-05,2.00E-05
627,1.56E-07,4.74E-06,1.78E-05,3.64E-05,-1.75E-05,2.44E-05
628,3.34E-06,1.41E-06,2.54E-05,0.00010635,-1.20E-05,2.41E-05
629,-3.74E-06,-4.01E-06,3.38E-05,0.000104918,-3.65E-06,1.65E-05
630,-1.99E-05,-8.61E-06,3.91E-05,3.01E-05,5.15E-07,9.62E-06
631,-2.90E-05,-7.69E-06,3.74E-05,-2.53E-05,-2.26E-06,1.19E-05
632,-2.21E-05,-5.35E-09,2.81E-05,-3.19E-05,-7.39E-06,1.86E-05
633,-1.27E-05,1.06E-05,2.59E-05,1.70E-05,-9.72E-06,2.20E-05
634,-1.11E-05,1.81E-05,3.20E-05,9.84E-05,-1.07E-05,2.18E-05
635,-1.72E-05,1.98E-05,3.34E-05,0.000120118,-1.02E-05,1.77E-05
636,-2.50E-05,1.72E-05,3.42E-05,5.36E-05,-6.26E-06,1.31E-05
637,-1.96E-05,1.43E-05,3.80E-05,-6.57E-06,-3.07E-06,1.15E-05
638,-6.95E-06,1.30E-05,3.64E-05,-2.17E-06,-4.27E-06,1.01E-05
639,-9.03E-06,1.13E-05,2.93E-05,2.34E-05,-7.63E-06,8.82E-06
640,-1.60E-05,9.71E-06,2.79E-05,1.67E-05,-8.81E-06,1.18E-05
641,-1.41E-05,1.17E-05,3.14E-05,2.18E-05,-5.83E-06,1.60E-05
642,-4.83E-06,1.64E-05,3.20E-05,7.98E-05,-1.73E-06,1.57E-05
643,2.13E-06,2.04E-05,3.00E-05,0.000132178,-2.87E-06,1.12E-05
644,-4.66E-06,2.09E-05,3.15E-05,9.76E-05,-6.82E-06,5.05E-06
645,-1.64E-05,1.80E-05,3.73E-05,2.85E-05,-8.59E-06,2.51E-06
646,-1.41E-05,1.32E-05,3.30E-05,-8.76E-06,-6.53E-06,6.66E-06
647,-3.07E-07,9.25E-06,2.17E-05,5.15E-06,-1.12E-06,1.41E-05
648,1.26E-05,9.57E-06,1.80E-05,8.09E-05,1.61E-06,1.98E-05
649,1.86E-05,1.21E-05,1.99E-05,0.000159254,-2.27E-06,2.06E-05
650,1.60E-05,1.27E-05,2.35E-05,0.000145624,-9.43E-06,1.84E-05
651,8.98E-06,1.15E-05,3.02E-05,5.87E-05,-1.48E-05,1.71E-05
652,5.45E-06,9.41E-06,3.38E-05,-6.24E-06,-1.76E-05,1.92E-05
653,9.10E-06,6.79E-06,3.10E-05,-5.65E-06,-1.87E-05,2.19E-05
654,1.43E-05,4.73E-06,3.09E-05,6.39E-05,-1.94E-05,1.99E-05
655,1.44E-05,4.82E-06,3.64E-05,0.000148893,-1.99E-05,9.53E-06
656,4.66E-06,5.86E-06,4.28E-05,0.000153095,-1.89E-05,-9.70E-06
657,-1.22E-05,7.37E-06,4.93E-05,6.90E-05,-1.59E-05,-2.80E-05
658,-2.08E-05,1.01E-05,5.10E-05,2.59E-09,-1.31E-05,-3.08E-05
659,-1.33E-05,1.37E-05,4.43E-05,-6.36E-06,-1.21E-05,-1.56E-05
660,-5.59E-06,1.73E-05,4.01E-05,5.38E-05,-1.11E-05,4.08E-06
661,-8.12E-06,1.86E-05,4.28E-05,0.000137251,-7.63E-06,1.46E-05
662,-1.70E-05,1.57E-05,4.32E-05,0.000139751,-5.43E-06,1.28E-05
663,-2.58E-05,1.08E-05,4.24E-05,4.46E-05,-6.98E-06,5.03E-06
664,-2.17E-05,9.40E-06,4.09E-05,-2.30E-05,-7.52E-06,3.28E-06
665,-1.16E-05,1.33E-05,3.56E-05,-7.80E-06,-3.90E-06,7.47E-06
666,-1.29E-05,1.93E-05,2.81E-05,2.40E-05,-5.22E-07,8.93E-06
667,-1.34E-05,2.26E-05,2.74E-05,1.50E-05,-1.87E-06,8.95E-06
668,-7.52E-06,2.14E-05,3.72E-05,9.81E-06,-6.83E-06,9.87E-06
669,-3.07E-06,2.03E-05,4.58E-05,6.29E-05,-1.10E-05,1.25E-05
670,-7.07E-06,2.33E-05,4.63E-05,0.000121324,-1.16E-05,1.22E-05
671,-2.04E-05,2.67E-05,4.43E-05,8.76E-05,-1.19E-05,8.71E-06
672,-2.98E-05,2.64E-05,4.28E-05,8.47E-06,-1.28E-05,9.10E-06
673,-2.32E-05,2.45E-05,3.38E-05,-3.74E-05,-1.28E-05,1.47E-05
674,-7.09E-06,2.36E-05,2.28E-05,-2.11E-05,-1.08E-05,1.89E-05
675,5.57E-06,2.47E-05,2.37E-05,6.00E-05,-5.60E-06,1.84E-05
676,9.26E-06,2.59E-05,3.10E-05,0.000134703,8.52E-07,1.37E-05
677,9.73E-07,2.49E-05,3.34E-05,0.000115853,3.53E-06,7.65E-06
678,-1.28E-05,2.23E-05,3.04E-05,3.42E-05,-8.80E-07,6.06E-06
679,-1.61E-05,1.96E-05,2.47E-05,-2.29E-05,-7.84E-06,1.17E-05
680,-5.73E-06,1.73E-05,1.95E-05,-2.37E-05,-1.04E-05,2.02E-05
681,4.16E-06,1.68E-05,2.18E-05,3.82E-05,-7.38E-06,2.51E-05
682,7.34E-06,1.86E-05,2.84E-05,0.000118376,-4.47E-06,2.52E-05
683,5.64E-06,1.91E-05,3.09E-05,0.000125987,-5.19E-06,2.28E-05
684,1.02E-06,1.53E-05,3.09E-05,4.93E-05,-6.37E-06,2.11E-05
685,6.36E-07,1.05E-05,2.74E-05,-1.83E-05,-6.36E-06,2.23E-05
686,7.20E-06,9.25E-06,1.81E-05,-3.42E-05,-6.77E-06,2.39E-05
687,9.96E-06,1.08E-05,1.64E-05,1.66E-05,-7.45E-06,2.11E-05
688,6.43E-06,1.40E-05,2.38E-05,0.000102756,-8.76E-06,1.54E-05
689,-3.09E-06,1.57E-05,2.80E-05,0.000116083,-1.20E-05,8.57E-06
690,-1.49E-05,1.44E-05,3.15E-05,3.45E-05,-1.48E-05,4.22E-06
691,-1.41E-05,1.38E-05,3.18E-05,-2.23E-05,-1.35E-05,7.35E-06
692,-3.07E-06,1.24E-05,2.61E-05,-4.64E-06,-9.85E-06,1.36E-05
693,2.31E-06,8.41E-06,1.95E-05,2.30E-05,-8.79E-06,1.64E-05
694,4.21E-06,4.33E-06,2.00E-05,1.09E-05,-1.23E-05,1.78E-05
695,6.21E-06,3.81E-06,2.73E-05,1.16E-05,-1.60E-05,1.91E-05
696,5.79E-06,8.38E-06,2.90E-05,7.50E-05,-1.52E-05,1.85E-05
697,3.76E-06,1.42E-05,2.40E-05,0.000136042,-1.24E-05,1.41E-05
698,-5.28E-06,1.59E-05,1.99E-05,9.93E-05,-9.91E-06,7.64E-06
699,-1.92E-05,1.47E-05,1.92E-05,2.23E-05,-5.80E-06,5.61E-06
700,-2.36E-05,1.47E-05,1.25E-05,-1.33E-05,-1.01E-06,1.10E-05
701,-1.73E-05,1.45E-05,2.49E-06,9.62E-06,-2.43E-07,1.70E-05
702,-9.86E-06,1.24E-05,1.77E-06,8.60E-05,-4.18E-06,1.92E-05
703,-8.67E-06,1.03E-05,8.12E-06,0.000153312,-9.18E-06,1.77E-05
704,-1.67E-05,9.61E-06,1.44E-05,0.000133048,-1.21E-05,1.36E-05
705,-2.67E-05,9.68E-06,1.67E-05,4.98E-05,-1.32E-05,1.05E-05
706,-2.61E-05,1.03E-05,1.13E-05,-9.75E-06,-1.39E-05,1.28E-05
707,-1.46E-05,1.13E-05,2.90E-06,-3.95E-06,-1.58E-05,2.39E-05
708,-3.19E-06,1.20E-05,6.28E-06,7.09E-05,-1.92E-05,4.18E-05
709,2.31E-07,1.20E-05,1.85E-05,0.000153932,-1.88E-05,5.84E-05
710,-7.69E-06,1.05E-05,2.54E-05,0.000148774,-1.01E-05,6.25E-05
711,-2.06E-05,7.60E-06,2.54E-05,5.98E-05,3.41E-06,5.29E-05
712,-2.24E-05,5.88E-06,1.94E-05,-7.15E-06,1.07E-05,3.73E-05
713,-1.10E-05,7.12E-06,9.86E-06,-1.16E-05,6.16E-06,1.86E-05
714,-7.55E-07,1.22E-05,1.24E-05,4.87E-05,-2.64E-06,-3.92E-06
715,5.04E-06,1.78E-05,2.57E-05,0.000136267,-5.70E-06,-2.51E-05
716,7.54E-06,1.95E-05,3.27E-05,0.000148401,-4.76E-06,-3.94E-05
717,6.35E-06,1.75E-05,3.25E-05,6.31E-05,-4.17E-06,-4.60E-05
718,4.88E-06,1.60E-05,3.01E-05,-8.59E-06,-4.01E-06,-4.74E-05
719,5.16E-06,1.54E-05,2.80E-05,-6.24E-06,-4.42E-06,-4.52E-05
720,1.27E-06,1.43E-05,2.46E-05,1.98E-05,-5.62E-06,-3.42E-05
721,1.12E-07,1.43E-05,2.57E-05,1.13E-05,-8.84E-06,-1.30E-05
722,6.16E-06,1.60E-05,3.43E-05,1.33E-05,-1.18E-05,7.27E-06
723,1.03E-05,1.90E-05,4.18E-05,7.48E-05,-1.28E-05,1.70E-05
724,7.64E-06,2.19E-05,4.27E-05,0.000138965,-1.30E-05,1.52E-05
725,-4.95E-06,2.14E-05,4.13E-05,0.000111563,-1.49E-05,9.55E-06
726,-2.03E-05,1.67E-05,4.35E-05,3.85E-05,-1.95E-05,9.63E-06
727,-2.18E-05,1.22E-05,3.91E-05,-5.41E-06,-2.29E-05,1.56E-05
728,-1.05E-05,1.21E-05,3.17E-05,1.97E-06,-2.58E-05,2.13E-05
729,-1.56E-06,1.55E-05,3.35E-05,7.26E-05,-2.94E-05,2.45E-05
730,-7.66E-07,1.72E-05,3.88E-05,0.000149779,-3.13E-05,2.48E-05
731,-6.84E-06,1.43E-05,3.96E-05,0.000139742,-2.72E-05,2.14E-05
732,-1.47E-05,9.98E-06,3.51E-05,5.78E-05,-1.61E-05,1.74E-05
733,-1.54E-05,7.74E-06,2.69E-05,-4.16E-06,-2.38E-06,1.55E-05
734,-7.49E-06,7.89E-06,2.01E-05,-2.45E-06,9.87E-06,1.33E-05
735,-1.85E-06,9.22E-06,2.46E-05,6.60E-05,1.80E-05,9.15E-06
736,-3.64E-06,9.72E-06,3.38E-05,0.000144471,1.89E-05,6.65E-06
737,-1.09E-05,6.89E-06,3.76E-05,0.000141831,1.22E-05,8.06E-06
738,-1.96E-05,2.70E-06,3.92E-05,6.21E-05,3.47E-06,1.34E-05
739,-1.89E-05,2.99E-06,3.79E-05,8.21E-06,-1.95E-06,2.03E-05
740,-5.75E-06,8.61E-06,2.85E-05,1.77E-05,-4.28E-06,2.39E-05
741,3.58E-06,1.47E-05,2.22E-05,9.02E-05,-9.33E-06,2.40E-05
742,1.39E-06,1.65E-05,2.56E-05,0.000180297,-1.63E-05,2.36E-05
743,-6.80E-06,1.25E-05,3.04E-05,0.00018278,-2.02E-05,2.16E-05
744,-1.62E-05,4.97E-06,3.54E-05,8.82E-05,-2.07E-05,1.93E-05
745,-1.88E-05,-2.74E-07,3.79E-05,1.49E-05,-1.89E-05,2.26E-05
746,-1.22E-05,-1.73E-06,3.62E-05,1.27E-05,-1.92E-05,2.60E-05
747,-5.44E-06,3.72E-07,3.36E-05,2.58E-05,-2.35E-05,2.18E-05
748,-6.61E-07,2.18E-06,3.74E-05,5.82E-06,-2.40E-05,1.71E-05
749,4.12E-06,-8.82E-08,4.34E-05,-7.11E-06,-1.81E-05,1.52E-05
750,7.93E-06,-3.45E-06,4.32E-05,3.45E-05,-9.77E-06,1.48E-05
751,8.95E-06,-4.56E-06,4.16E-05,8.26E-05,-1.51E-06,1.45E-05
752,1.42E-06,-4.40E-06,4.54E-05,4.91E-05,4.82E-06,1.09E-05
753,-8.09E-06,-4.11E-06,5.11E-05,-2.15E-05,5.13E-06,7.09E-06
754,-5.13E-06,-2.42E-06,4.44E-05,-6.28E-05,-2.17E-06,7.98E-06
755,1.76E-06,7.60E-07,3.09E-05,-5.29E-05,-1.16E-05,1.32E-05
756,-1.58E-06,4.57E-06,2.80E-05,2.16E-05,-1.72E-05,1.92E-05
757,-1.14E-05,5.58E-06,3.50E-05,0.000105144,-1.73E-05,2.07E-05
758,-2.19E-05,2.55E-06,4.16E-05,0.000103411,-1.56E-05,1.57E-05
759,-2.94E-05,4.69E-07,4.16E-05,2.96E-05,-1.42E-05,9.93E-06
760,-2.47E-05,2.64E-06,3.31E-05,-2.76E-05,-1.22E-05,7.42E-06
761,-1.07E-05,7.00E-06,2.17E-05,-3.07E-05,-1.10E-05,7.94E-06
762,-5.06E-06,1.08E-05,2.05E-05,2.47E-05,-1.26E-05,1.06E-05
763,-1.27E-05,1.35E-05,2.90E-05,9.60E-05,-1.49E-05,1.21E-05
764,-2.49E-05,1.41E-05,3.71E-05,9.75E-05,-1.49E-05,9.83E-06
765,-3.44E-05,1.34E-05,4.05E-05,2.39E-05,-1.20E-05,7.97E-06
766,-3.34E-05,1.27E-05,3.62E-05,-2.85E-05,-8.76E-06,1.14E-05
767,-2.20E-05,1.29E-05,2.72E-05,-2.08E-05,-9.01E-06,1.65E-05
768,-1.49E-05,1.63E-05,2.69E-05,4.63E-05,-1.07E-05,1.96E-05
769,-1.85E-05,2.26E-05,3.25E-05,0.00012959,-9.49E-06,1.95E-05
770,-2.98E-05,2.60E-05,3.31E-05,0.000135529,-9.60E-06,1.43E-05
771,-4.33E-05,2.31E-05,3.30E-05,5.35E-05,-1.29E-05,9.94E-06
772,-4.54E-05,1.75E-05,3.01E-05,-1.37E-05,-1.23E-05,1.43E-05
773,-3.34E-05,1.40E-05,2.19E-05,-1.20E-05,-9.06E-06,1.90E-05
774,-2.17E-05,1.19E-05,1.37E-05,7.15E-06,-7.38E-06,1.80E-05
775,-1.20E-05,9.47E-06,1.65E-05,-8.24E-06,-7.06E-06,1.70E-05
776,-6.29E-06,1.04E-05,2.82E-05,-7.20E-06,-6.39E-06,1.90E-05
777,-4.43E-06,1.39E-05,3.13E-05,5.40E-05,-5.57E-06,2.05E-05
778,-2.59E-06,1.74E-05,2.52E-05,0.00011196,-6.04E-06,1.58E-05
779,-6.27E-06,1.83E-05,2.24E-05,7.71E-05,-6.60E-06,8.59E-06
780,-1.37E-05,1.65E-05,2.53E-05,4.95E-06,-5.74E-06,7.63E-06
781,-1.25E-05,1.45E-05,2.12E-05,-3.34E-05,-4.85E-06,1.09E-05
782,-1.06E-06,1.46E-05,1.32E-05,-1.98E-05,-5.36E-06,1.24E-05
783,8.65E-06,1.72E-05,1.41E-05,5.48E-05,-6.12E-06,1.12E-05
784,1.14E-05,1.96E-05,2.05E-05,0.000133349,-7.29E-06,7.75E-06
785,8.45E-06,1.93E-05,2.53E-05,0.000120021,-9.10E-06,2.93E-06
786,4.18E-06,1.77E-05,2.93E-05,3.24E-05,-1.20E-05,1.46E-06
787,4.98E-06,1.60E-05,2.91E-05,-2.95E-05,-1.59E-05,7.59E-06
788,1.16E-05,1.51E-05,2.33E-05,-2.28E-05,-1.91E-05,1.55E-05
789,1.81E-05,1.64E-05,2.17E-05,4.80E-05,-1.91E-05,1.75E-05
790,2.24E-05,1.85E-05,2.40E-05,0.000127196,-1.57E-05,1.39E-05
791,2.07E-05,1.83E-05,2.44E-05,0.000127246,-1.08E-05,7.91E-06
792,9.54E-06,1.60E-05,2.49E-05,4.78E-05,-7.69E-06,3.53E-06
793,3.56E-07,1.43E-05,2.16E-05,-1.22E-05,-6.72E-06,6.63E-06
794,4.36E-06,1.36E-05,1.10E-05,-1.67E-05,-6.21E-06,1.51E-05
795,1.41E-05,1.29E-05,7.33E-06,4.09E-05,-6.01E-06,2.13E-05
796,1.95E-05,1.25E-05,1.19E-05,0.000130728,-7.48E-06,2.24E-05
797,1.32E-05,1.22E-05,1.36E-05,0.000150778,-1.06E-05,1.95E-05
798,-4.00E-06,9.93E-06,1.81E-05,7.38E-05,-1.33E-05,1.53E-05
799,-1.61E-05,7.10E-06,2.14E-05,7.77E-06,-1.33E-05,1.43E-05
800,-1.54E-05,5.99E-06,1.45E-05,1.60E-05,-1.10E-05,1.47E-05
801,-9.19E-06,8.46E-06,5.29E-06,4.88E-05,-9.92E-06,1.45E-05
802,2.73E-09,1.11E-05,7.07E-06,4.19E-05,-1.06E-05,1.64E-05
803,7.83E-06,1.06E-05,1.71E-05,4.20E-05,-1.32E-05,1.92E-05
804,1.01E-05,1.06E-05,2.25E-05,0.000101207,-1.90E-05,2.02E-05
805,7.72E-06,1.38E-05,2.24E-05,0.000157645,-2.52E-05,1.74E-05
806,-5.68E-06,1.61E-05,2.26E-05,0.000117646,-2.51E-05,1.19E-05
807,-2.18E-05,1.44E-05,2.54E-05,3.40E-05,-1.51E-05,7.47E-06
808,-2.29E-05,1.38E-05,2.08E-05,-1.10E-05,-3.66E-06,6.47E-06
809,-1.12E-05,1.68E-05,1.18E-05,5.57E-06,2.28E-07,7.63E-06
810,-1.79E-06,2.07E-05,1.20E-05,7.78E-05,-1.14E-06,9.03E-06
811,-1.53E-06,2.26E-05,2.08E-05,0.000141826,-1.12E-06,7.89E-06
812,-1.02E-05,2.19E-05,2.92E-05,0.000123365,2.63E-06,3.80E-06
813,-2.16E-05,2.06E-05,3.13E-05,4.98E-05,7.71E-06,2.42E-06
814,-2.20E-05,2.03E-05,2.53E-05,-1.43E-06,9.93E-06,7.14E-06
815,-9.99E-06,2.08E-05,1.69E-05,-4.55E-06,7.21E-06,1.41E-05
816,1.58E-06,2.06E-05,1.87E-05,4.86E-05,3.51E-06,1.85E-05
817,3.69E-06,1.93E-05,2.77E-05,0.000118547,4.05E-06,1.83E-05
818,-2.17E-06,1.69E-05,3.42E-05,0.000116248,8.36E-06,1.69E-05
819,-1.00E-05,1.42E-05,3.47E-05,3.47E-05,1.10E-05,1.94E-05
820,-8.69E-06,1.31E-05,2.60E-05,-2.67E-05,1.02E-05,2.33E-05
821,1.00E-06,1.52E-05,1.38E-05,-2.67E-05,6.52E-06,2.39E-05
822,6.45E-06,1.91E-05,1.43E-05,3.93E-05,-1.18E-07,2.05E-05
823,5.20E-06,2.24E-05,2.47E-05,0.000126339,-7.37E-06,1.50E-05
824,-3.17E-06,2.20E-05,3.17E-05,0.000130304,-1.16E-05,7.01E-06
825,-1.34E-05,1.81E-05,3.67E-05,3.42E-05,-1.32E-05,1.41E-07
826,-1.49E-05,1.40E-05,3.89E-05,-4.80E-05,-1.50E-05,1.08E-06
827,-8.50E-06,1.38E-05,3.26E-05,-5.00E-05,-1.47E-05,5.66E-06
828,-4.28E-06,1.67E-05,2.34E-05,-2.02E-05,-1.02E-05,9.33E-06
829,-1.36E-06,1.73E-05,2.05E-05,-1.95E-05,-3.95E-06,1.49E-05
830,5.70E-06,1.58E-05,2.39E-05,-8.97E-06,-3.47E-07,2.33E-05
831,9.81E-06,1.26E-05,2.71E-05,5.88E-05,-1.70E-06,3.04E-05
832,2.22E-06,1.11E-05,2.95E-05,0.000126641,-4.99E-06,2.95E-05
833,-1.99E-05,1.24E-05,3.21E-05,9.82E-05,-7.82E-06,2.05E-05
834,-4.09E-05,1.26E-05,3.37E-05,1.83E-05,-9.88E-06,1.41E-05
835,-4.19E-05,9.95E-06,2.77E-05,-3.08E-05,-1.09E-05,1.74E-05
836,-2.79E-05,8.04E-06,1.75E-05,-1.35E-05,-1.05E-05,2.46E-05
837,-1.53E-05,9.54E-06,1.49E-05,7.10E-05,-8.92E-06,3.01E-05
838,-1.13E-05,1.05E-05,1.62E-05,0.000152397,-7.14E-06,3.02E-05
839,-1.42E-05,8.27E-06,1.88E-05,0.000137945,-6.39E-06,2.59E-05
840,-1.89E-05,6.30E-06,2.24E-05,4.97E-05,-7.28E-06,2.29E-05
841,-1.62E-05,8.46E-06,2.21E-05,-1.72E-05,-8.14E-06,2.22E-05
842,-6.57E-06,1.21E-05,1.70E-05,-1.95E-05,-7.78E-06,1.63E-05
843,2.20E-07,1.48E-05,1.84E-05,4.58E-05,-6.46E-06,7.30E-08
844,1.15E-06,1.71E-05,2.47E-05,0.000122023,-3.61E-06,-1.97E-05
845,-2.10E-06,1.83E-05,2.64E-05,0.000118459,-4.19E-07,-2.95E-05
846,-7.97E-06,1.70E-05,2.66E-05,3.62E-05,-9.47E-07,-2.25E-05
847,-6.62E-06,1.43E-05,2.42E-05,-2.55E-05,-5.98E-06,-6.26E-06
848,6.01E-06,1.13E-05,1.68E-05,-2.74E-05,-1.18E-05,6.23E-06
849,1.71E-05,1.16E-05,1.70E-05,3.77E-05,-1.36E-05,9.47E-06
850,1.82E-05,1.50E-05,2.59E-05,0.000130934,-9.31E-06,8.24E-06
851,1.10E-05,1.74E-05,3.31E-05,0.000142733,-4.23E-06,5.98E-06
852,3.90E-07,1.80E-05,3.67E-05,5.11E-05,-1.79E-06,5.21E-06
853,-1.32E-06,1.76E-05,3.52E-05,-2.20E-05,-5.35E-07,8.16E-06
854,7.45E-06,1.52E-05,3.08E-05,-1.87E-05,-3.59E-06,1.15E-05
855,1.38E-05,1.30E-05,2.74E-05,5.44E-06,-8.68E-06,1.09E-05
856,1.85E-05,1.32E-05,3.08E-05,-9.50E-07,-8.70E-06,9.75E-06
857,2.15E-05,1.37E-05,3.81E-05,5.28E-06,-3.75E-06,1.18E-05
858,1.90E-05,1.33E-05,4.14E-05,6.69E-05,-1.42E-07,1.41E-05
859,1.12E-05,1.10E-05,4.06E-05,0.000123497,-1.28E-06,1.27E-05
860,-5.12E-06,7.69E-06,3.94E-05,9.03E-05,-4.23E-06,8.81E-06
861,-2.35E-05,7.38E-06,3.79E-05,1.93E-05,-4.00E-06,8.52E-06
862,-2.55E-05,9.53E-06,2.96E-05,-2.47E-05,-1.17E-06,1.32E-05
863,-1.28E-05,1.01E-05,2.10E-05,-1.86E-05,9.66E-07,1.68E-05
864,-2.65E-06,1.07E-05,2.24E-05,5.25E-05,1.34E-06,1.62E-05
865,-2.38E-06,1.45E-05,2.54E-05,0.000131004,-7.75E-07,1.45E-05
866,-1.09E-05,1.88E-05,2.38E-05,0.000122992,-3.69E-06,1.58E-05
867,-2.21E-05,1.98E-05,2.11E-05,4.61E-05,-6.04E-06,2.09E-05
868,-2.63E-05,1.71E-05,1.72E-05,-1.12E-05,-7.08E-06,2.92E-05
869,-2.28E-05,1.29E-05,1.26E-05,-1.19E-05,-8.06E-06,4.20E-05
870,-1.84E-05,1.11E-05,1.46E-05,5.31E-05,-9.49E-06,5.99E-05
871,-1.55E-05,1.26E-05,2.01E-05,0.000139305,-1.01E-05,7.47E-05
872,-1.69E-05,1.44E-05,2.27E-05,0.000151683,-8.74E-06,7.48E-05
873,-2.39E-05,1.40E-05,2.66E-05,7.78E-05,-6.57E-06,6.05E-05
874,-2.80E-05,1.35E-05,2.74E-05,1.31E-05,-6.36E-06,4.06E-05
875,-2.11E-05,1.43E-05,2.02E-05,-2.97E-06,-8.25E-06,2.03E-05
876,-1.11E-05,1.52E-05,1.86E-05,3.70E-05,-8.56E-06,-1.24E-06
877,-5.16E-06,1.30E-05,2.82E-05,0.000108851,-6.47E-06,-2.07E-05
878,-7.19E-06,8.71E-06,3.60E-05,0.000123654,-4.92E-06,-3.33E-05
879,-2.06E-05,5.73E-06,4.10E-05,5.38E-05,-5.36E-06,-3.83E-05
880,-2.95E-05,6.60E-06,4.31E-05,-4.01E-06,-5.93E-06,-3.79E-05
881,-2.05E-05,8.39E-06,3.75E-05,4.32E-06,-4.30E-06,-3.48E-05
882,-4.78E-06,6.67E-06,2.84E-05,2.66E-05,-2.83E-06,-2.60E-05
883,9.63E-06,3.32E-06,2.46E-05,1.17E-05,-3.40E-06,-9.51E-06
884,1.97E-05,2.62E-06,2.88E-05,8.87E-06,-6.52E-06,8.28E-06
885,2.36E-05,5.41E-06,3.33E-05,6.47E-05,-8.54E-06,1.90E-05
886,2.09E-05,9.29E-06,3.48E-05,0.000122915,-7.16E-06,1.78E-05
887,8.58E-06,1.19E-05,3.58E-05,9.33E-05,-5.19E-06,1.12E-05
888,-7.99E-06,1.14E-05,3.72E-05,2.51E-05,-4.74E-06,7.86E-06
889,-1.48E-05,9.13E-06,3.10E-05,-1.21E-05,-4.84E-06,9.41E-06
890,-1.07E-05,6.56E-06,2.18E-05,1.88E-06,-3.62E-06,1.04E-05
891,-2.89E-06,4.99E-06,2.51E-05,7.46E-05,-2.09E-06,7.75E-06
892,6.03E-06,4.95E-06,3.77E-05,0.000149835,-2.77E-06,2.68E-06
893,7.10E-06,4.41E-06,4.63E-05,0.000137339,-5.40E-06,-3.46E-07
894,-4.86E-06,3.21E-06,4.61E-05,5.49E-05,-9.11E-06,1.69E-06
895,-1.48E-05,3.34E-06,3.63E-05,-7.28E-06,-1.41E-05,7.29E-06
896,-1.05E-05,5.87E-06,2.11E-05,-1.12E-05,-1.74E-05,1.30E-05
897,-5.55E-07,9.80E-06,1.46E-05,4.82E-05,-1.59E-05,1.62E-05
898,2.50E-06,1.40E-05,2.15E-05,0.000123121,-1.26E-05,1.57E-05
899,-4.79E-06,1.59E-05,3.24E-05,0.000126133,-1.10E-05,1.11E-05
900,-1.54E-05,1.41E-05,3.77E-05,5.76E-05,-1.21E-05,6.26E-06
901,-1.80E-05,1.11E-05,3.37E-05,1.15E-05,-1.72E-05,5.46E-06
902,-1.39E-05,9.05E-06,2.32E-05,1.38E-05,-2.48E-05,9.88E-06
903,-1.27E-05,1.05E-05,1.99E-05,6.78E-05,-3.03E-05,1.62E-05
904,-1.42E-05,1.59E-05,2.58E-05,0.000144987,-3.05E-05,2.04E-05
905,-1.67E-05,1.94E-05,3.17E-05,0.000148894,-2.72E-05,1.88E-05
906,-1.98E-05,1.85E-05,3.90E-05,5.82E-05,-2.27E-05,1.38E-05
907,-1.63E-05,1.60E-05,4.54E-05,-1.20E-05,-1.74E-05,1.25E-05
908,-5.26E-06,1.30E-05,4.78E-05,-2.12E-06,-8.75E-06,1.26E-05
909,4.35E-06,1.20E-05,4.49E-05,3.12E-05,-4.10E-06,1.07E-05
910,1.26E-05,1.26E-05,4.09E-05,2.79E-05,-1.08E-05,1.12E-05
911,1.84E-05,1.41E-05,4.11E-05,3.52E-05,-2.21E-05,1.44E-05
912,1.44E-05,1.55E-05,4.33E-05,0.000104645,-3.17E-05,1.79E-05
913,4.50E-06,1.59E-05,4.51E-05,0.000171698,-3.65E-05,1.78E-05
914,-6.43E-06,1.49E-05,4.70E-05,0.000141234,-3.37E-05,1.14E-05
915,-1.28E-05,1.28E-05,4.60E-05,6.53E-05,-2.24E-05,6.13E-06
916,-7.68E-06,7.99E-06,3.52E-05,1.94E-05,-7.25E-06,8.40E-06
917,4.02E-06,7.62E-07,2.35E-05,2.36E-05,5.26E-06,1.56E-05
918,1.20E-05,-2.89E-06,2.39E-05,8.81E-05,1.14E-05,2.12E-05
919,1.38E-05,-1.30E-06,3.15E-05,0.000162154,1.09E-05,2.03E-05
920,9.67E-06,1.71E-06,3.78E-05,0.000155589,4.63E-06,1.65E-05
921,1.78E-06,2.63E-06,4.07E-05,7.88E-05,-3.31E-06,1.72E-05
922,-1.05E-06,1.50E-06,3.68E-05,1.80E-05,-7.14E-06,2.39E-05
923,2.02E-06,-7.27E-08,2.88E-05,1.53E-05,-5.50E-06,2.97E-05
924,1.94E-06,8.43E-08,2.88E-05,7.68E-05,-2.06E-06,2.86E-05
925,-5.26E-06,3.38E-06,3.56E-05,0.00015188,-5.11E-08,2.22E-05
926,-1.76E-05,8.06E-06,3.99E-05,0.000149417,3.32E-07,1.59E-05
927,-3.02E-05,1.13E-05,4.22E-05,6.73E-05,3.35E-07,1.63E-05
928,-3.18E-05,1.31E-05,4.14E-05,4.61E-06,1.67E-07,2.37E-05
929,-2.04E-05,1.42E-05,3.52E-05,1.03E-06,-5.18E-07,2.91E-05
930,-1.03E-05,1.35E-05,3.46E-05,5.98E-05,-8.96E-07,2.68E-05
931,-1.14E-05,1.20E-05,4.24E-05,0.000144052,-2.88E-06,1.99E-05
932,-2.20E-05,1.22E-05,4.88E-05,0.000153967,-6.05E-06,1.13E-05
933,-3.40E-05,1.45E-05,5.33E-05,6.74E-05,-9.58E-06,5.63E-06
934,-3.20E-05,1.86E-05,5.34E-05,-5.07E-07,-1.17E-05,7.11E-06
935,-1.82E-05,2.13E-05,4.47E-05,9.56E-06,-1.19E-05,1.09E-05
936,-1.04E-05,2.14E-05,3.30E-05,3.66E-05,-9.96E-06,1.62E-05
937,-5.14E-06,2.05E-05,3.22E-05,2.36E-05,-6.29E-06,2.16E-05
938,4.69E-06,1.98E-05,4.22E-05,2.19E-05,-5.18E-06,1.89E-05
939,1.36E-05,2.05E-05,4.51E-05,8.35E-05,-9.18E-06,1.26E-05
940,1.34E-05,2.17E-05,3.73E-05,0.000147772,-1.59E-05,8.68E-06
941,1.69E-06,2.27E-05,3.07E-05,0.000114594,-2.23E-05,6.51E-06
942,-8.35E-06,2.23E-05,2.91E-05,3.05E-05,-2.79E-05,8.39E-06
943,-2.23E-06,1.98E-05,2.24E-05,-2.37E-05,-2.99E-05,1.55E-05
944,1.09E-05,1.61E-05,1.41E-05,-1.62E-05,-2.50E-05,2.07E-05
945,1.85E-05,1.60E-05,1.58E-05,5.79E-05,-1.42E-05,2.00E-05
946,1.98E-05,2.03E-05,2.29E-05,0.000134951,-3.42E-06,1.49E-05
947,1.55E-05,2.24E-05,2.70E-05,0.000127796,4.81E-06,8.16E-06
948,8.47E-06,1.86E-05,2.82E-05,5.61E-05,1.01E-05,5.01E-06
949,7.97E-06,1.27E-05,2.60E-05,3.74E-06,8.94E-06,9.42E-06
950,1.66E-05,9.95E-06,2.19E-05,4.71E-06,1.95E-07,1.54E-05
951,2.61E-05,1.12E-05,2.54E-05,6.34E-05,-1.03E-05,1.43E-05
952,2.91E-05,1.45E-05,3.28E-05,0.000130817,-1.69E-05,7.43E-06
953,2.06E-05,1.53E-05,3.53E-05,0.000118859,-1.85E-05,3.32E-07
954,3.16E-06,1.32E-05,3.61E-05,2.70E-05,-1.49E-05,-1.27E-06
955,-9.18E-06,1.17E-05,3.48E-05,-4.17E-05,-7.94E-06,4.52E-06
956,-9.77E-06,1.43E-05,2.86E-05,-4.65E-05,-2.28E-06,1.15E-05
957,-7.14E-06,2.14E-05,2.68E-05,1.64E-05,1.52E-07,1.24E-05
958,-5.93E-06,2.72E-05,3.02E-05,0.000102414,-6.15E-07,8.83E-06
959,-1.02E-05,2.67E-05,3.18E-05,0.000105817,-2.69E-06,6.40E-06
960,-2.01E-05,1.95E-05,3.51E-05,1.36E-05,-3.14E-06,7.56E-06
961,-2.16E-05,1.23E-05,3.70E-05,-5.94E-05,-1.27E-06,1.23E-05
962,-1.67E-05,9.47E-06,3.05E-05,-5.29E-05,6.73E-07,1.72E-05
963,-1.77E-05,9.79E-06,2.05E-05,-1.68E-05,1.84E-06,1.80E-05
964,-1.64E-05,1.01E-05,2.03E-05,-1.26E-05,8.25E-07,1.68E-05
965,-1.27E-05,8.38E-06,2.76E-05,-3.43E-06,-5.68E-06,1.51E-05
966,-1.21E-05,6.70E-06,2.87E-05,5.37E-05,-1.35E-05,1.33E-05
967,-1.34E-05,6.41E-06,2.16E-05,0.000106481,-1.89E-05,1.08E-05
968,-2.16E-05,6.24E-06,1.41E-05,7.17E-05,-1.96E-05,1.03E-05
969,-3.28E-05,3.86E-06,1.13E-05,-4.31E-06,-1.63E-05,1.40E-05
970,-3.07E-05,-7.02E-08,6.50E-06,-5.00E-05,-1.30E-05,1.93E-05
971,-1.71E-05,-1.79E-06,-3.08E-07,-3.74E-05,-1.21E-05,2.10E-05
972,-6.90E-06,1.27E-06,1.38E-06,4.28E-05,-1.21E-05,1.83E-05
973,-5.77E-06,5.92E-06,1.01E-05,0.000126979,-1.10E-05,1.34E-05
974,-1.14E-05,6.93E-06,1.87E-05,0.000122545,-1.01E-05,8.14E-06
975,-1.71E-05,4.73E-06,2.32E-05,4.59E-05,-9.98E-06,5.30E-06
976,-1.52E-05,3.50E-06,1.91E-05,-1.67E-05,-1.01E-05,7.96E-06
977,-5.58E-06,4.46E-06,8.32E-06,-2.43E-05,-1.03E-05,1.47E-05
978,2.39E-06,5.27E-06,4.56E-06,3.24E-05,-1.07E-05,1.89E-05
979,2.44E-06,5.97E-06,1.13E-05,0.000103184,-9.46E-06,1.73E-05
980,-5.76E-06,6.80E-06,2.08E-05,9.94E-05,-7.11E-06,1.04E-05
981,-1.44E-05,7.20E-06,2.95E-05,1.98E-05,-7.36E-06,3.54E-06
982,-1.17E-05,7.89E-06,2.99E-05,-3.95E-05,-1.09E-05,2.99E-06
983,-3.46E-07,8.98E-06,2.29E-05,-4.06E-05,-1.39E-05,7.67E-06
984,3.45E-06,1.04E-05,2.37E-05,2.26E-05,-1.55E-05,1.14E-05
985,-1.07E-06,1.06E-05,3.23E-05,0.000117126,-1.65E-05,1.20E-05
986,-6.40E-06,9.53E-06,3.66E-05,0.000135567,-1.51E-05,9.88E-06
987,-1.23E-05,9.48E-06,3.92E-05,4.84E-05,-1.21E-05,7.83E-06
988,-1.33E-05,1.15E-05,3.98E-05,-2.91E-05,-1.15E-05,8.74E-06
989,-7.36E-06,1.53E-05,3.45E-05,-3.25E-05,-1.18E-05,1.14E-05
990,-6.60E-06,2.00E-05,2.69E-05,-9.65E-06,-9.92E-06,1.25E-05
991,-8.43E-06,2.21E-05,2.81E-05,-1.43E-05,-7.90E-06,1.45E-05
992,-7.60E-06,1.98E-05,3.90E-05,-8.75E-06,-6.96E-06,1.83E-05
993,-7.36E-06,1.82E-05,4.54E-05,4.79E-05,-4.49E-06,1.97E-05
994,-9.42E-06,1.95E-05,4.19E-05,0.000101369,-1.97E-06,1.40E-05
995,-2.09E-05,1.95E-05,3.45E-05,6.19E-05,-2.58E-06,6.85E-06
996,-3.49E-05,1.61E-05,3.03E-05,-2.12E-05,-5.02E-06,6.83E-06
997,-3.42E-05,1.28E-05,2.23E-05,-7.17E-05,-8.02E-06,1.34E-05
998,-2.29E-05,1.13E-05,1.20E-05,-6.04E-05,-1.20E-05,1.81E-05
999,-1.74E-05,1.27E-05,1.07E-05,2.34E-05,-1.46E-05,1.76E-05
1000,-1.94E-05,1.58E-05,1.74E-05,0.00011245,-1.26E-05,1.38E-05
1001,-2.37E-05,1.82E-05,2.51E-05,0.000108626,-8.11E-06,8.44E-06
1002,-2.64E-05,1.95E-05,2.93E-05,3.03E-05,-6.07E-06,4.58E-06
1003,-2.44E-05,1.88E-05,2.24E-05,-2.73E-05,-7.00E-06,6.06E-06
1004,-1.89E-05,1.56E-05,6.17E-06,-2.13E-05,-7.30E-06,1.06E-05
1005,-1.34E-05,1.26E-05,-5.94E-07,4.66E-05,-5.12E-06,1.25E-05
1006,-8.52E-06,1.27E-05,8.58E-06,0.000119704,-2.67E-06,1.22E-05
1007,-7.58E-06,1.41E-05,2.30E-05,0.000113208,-2.71E-06,1.29E-05
1008,-1.12E-05,1.35E-05,3.27E-05,3.35E-05,-3.49E-06,1.68E-05
1009,-1.05E-05,1.23E-05,3.14E-05,-1.98E-05,-2.34E-06,2.40E-05
1010,-2.26E-06,1.20E-05,2.14E-05,-1.68E-05,-1.13E-06,3.17E-05
1011,4.96E-06,1.18E-05,1.86E-05,4.38E-05,-3.16E-06,3.57E-05
1012,6.02E-06,1.31E-05,2.64E-05,0.000130399,-5.30E-06,3.42E-05
1013,1.80E-06,1.50E-05,3.40E-05,0.000142315,-5.80E-06,2.52E-05
1014,-2.94E-06,1.50E-05,3.89E-05,5.68E-05,-7.37E-06,1.54E-05
1015,3.98E-06,1.52E-05,4.19E-05,-1.28E-05,-1.12E-05,8.30E-06
1016,1.86E-05,1.68E-05,3.89E-05,-4.97E-06,-1.43E-05,-2.30E-06
1017,2.07E-05,1.80E-05,3.08E-05,2.88E-05,-1.43E-05,-1.66E-05
1018,1.36E-05,1.78E-05,2.94E-05,3.31E-05,-1.19E-05,-2.29E-05
1019,1.01E-05,1.56E-05,3.67E-05,4.65E-05,-9.32E-06,-9.29E-06
1020,9.11E-06,1.46E-05,4.16E-05,0.000109276,-1.12E-05,2.06E-05
1021,6.34E-06,1.46E-05,4.09E-05,0.000162369,-1.55E-05,4.60E-05
1022,-2.31E-06,1.33E-05,3.73E-05,0.000125129,-1.52E-05,5.36E-05
1023,-1.38E-05,1.06E-05,3.16E-05,5.08E-05,-1.08E-05,4.78E-05
1024,-1.72E-05,7.43E-06,1.93E-05,6.16E-06,-9.50E-06,3.53E-05
1025,-1.10E-05,5.46E-06,8.09E-06,1.40E-05,-1.45E-05,1.90E-05
1026,-3.56E-06,6.18E-06,8.39E-06,8.31E-05,-2.06E-05,3.24E-06
1027,-3.62E-07,8.98E-06,1.36E-05,0.000150555,-2.22E-05,-9.96E-06
1028,-2.24E-06,1.15E-05,1.89E-05,0.000126797,-1.92E-05,-2.26E-05
1029,-7.25E-06,1.21E-05,2.50E-05,4.14E-05,-1.39E-05,-3.41E-05
1030,-9.28E-06,1.12E-05,2.73E-05,-1.14E-05,-7.87E-06,-4.09E-05
1031,-8.15E-06,9.77E-06,2.29E-05,-1.22E-06,-1.54E-06,-3.64E-05
1032,-8.22E-06,7.25E-06,2.03E-05,6.56E-05,3.49E-06,-1.90E-05
1033,-9.81E-06,5.08E-06,2.21E-05,0.000137956,4.42E-06,7.76E-07
1034,-1.54E-05,4.60E-06,2.54E-05,0.00013324,1.52E-06,1.05E-05
1035,-2.62E-05,4.92E-06,2.95E-05,5.31E-05,-2.96E-06,1.08E-05
1036,-3.02E-05,5.75E-06,2.90E-05,-4.91E-06,-5.50E-06,9.95E-06
1037,-2.00E-05,6.98E-06,2.45E-05,-1.01E-06,-4.78E-06,1.31E-05
1038,-8.79E-06,8.72E-06,2.83E-05,6.94E-05,-5.64E-06,1.80E-05
1039,-6.92E-06,1.18E-05,3.61E-05,0.000167561,-9.64E-06,2.00E-05
1040,-1.25E-05,1.37E-05,3.70E-05,0.000189647,-1.38E-05,1.75E-05
1041,-1.98E-05,1.30E-05,3.88E-05,0.000113009,-1.68E-05,1.65E-05
1042,-1.76E-05,9.67E-06,4.23E-05,4.12E-05,-1.70E-05,2.21E-05
1043,-8.52E-06,6.09E-06,3.99E-05,3.20E-05,-1.56E-05,2.61E-05
1044,-8.79E-06,5.82E-06,3.14E-05,4.75E-05,-1.17E-05,2.26E-05
1045,-1.66E-05,6.36E-06,2.56E-05,3.49E-05,-4.06E-06,1.78E-05
1046,-1.84E-05,7.68E-06,2.40E-05,3.08E-05,-9.56E-07,1.57E-05
1047,-1.13E-05,1.01E-05,2.41E-05,7.98E-05,-7.37E-06,1.50E-05
1048,-3.37E-06,1.26E-05,2.88E-05,0.000134696,-1.55E-05,1.13E-05
1049,-7.39E-06,1.40E-05,3.49E-05,0.000111431,-1.69E-05,5.30E-06
1050,-2.21E-05,1.32E-05,3.81E-05,4.97E-05,-1.36E-05,5.07E-06
1051,-2.28E-05,1.34E-05,3.17E-05,1.02E-05,-9.37E-06,1.22E-05
1052,-3.26E-06,1.53E-05,2.15E-05,1.58E-05,-4.67E-06,1.76E-05
1053,1.50E-05,1.81E-05,1.97E-05,8.42E-05,5.52E-07,1.62E-05
1054,1.42E-05,1.95E-05,2.32E-05,0.000162589,4.25E-06,1.02E-05
1055,-2.00E-06,1.80E-05,2.65E-05,0.00015516,4.93E-06,4.24E-06
1056,-1.93E-05,1.52E-05,2.92E-05,7.30E-05,2.96E-06,2.45E-06
1057,-2.43E-05,1.37E-05,2.72E-05,1.20E-05,-3.10E-07,5.22E-06
1058,-1.68E-05,1.43E-05,1.79E-05,1.87E-05,-2.78E-06,9.74E-06
1059,-6.86E-06,1.57E-05,1.07E-05,9.02E-05,-3.63E-06,1.30E-05
1060,3.43E-07,1.57E-05,9.81E-06,0.000165257,-3.81E-06,1.54E-05
1061,9.16E-07,1.50E-05,1.17E-05,0.000155824,-4.14E-06,1.65E-05
1062,-5.12E-06,1.60E-05,1.44E-05,6.99E-05,-3.62E-06,1.54E-05
1063,-7.21E-06,1.85E-05,1.38E-05,8.91E-06,-1.69E-06,1.52E-05
1064,-5.38E-07,2.02E-05,7.79E-06,2.90E-06,-1.43E-06,1.83E-05
1065,3.87E-06,1.93E-05,5.42E-06,5.30E-05,-6.81E-06,2.25E-05
1066,-2.84E-06,1.92E-05,8.74E-06,0.000133786,-1.62E-05,2.49E-05
1067,-1.97E-05,1.89E-05,1.28E-05,0.000157169,-2.28E-05,2.28E-05
1068,-3.52E-05,1.59E-05,2.21E-05,9.10E-05,-2.26E-05,1.94E-05
1069,-3.60E-05,1.32E-05,3.46E-05,2.57E-05,-1.62E-05,2.10E-05
1070,-2.28E-05,1.13E-05,3.76E-05,2.08E-05,-9.00E-06,2.35E-05
1071,-1.42E-05,1.13E-05,2.98E-05,3.61E-05,-8.43E-06,2.46E-05
1072,-1.10E-05,1.26E-05,3.06E-05,2.01E-05,-1.32E-05,2.61E-05
1073,-1.79E-06,1.33E-05,4.27E-05,1.56E-05,-1.63E-05,2.48E-05
1074,8.23E-06,1.54E-05,5.10E-05,6.72E-05,-1.56E-05,2.16E-05
1075,8.31E-06,1.75E-05,4.95E-05,0.000116122,-1.33E-05,1.68E-05
1076,-4.54E-06,1.78E-05,4.33E-05,7.71E-05,-1.09E-05,9.97E-06
1077,-2.14E-05,1.76E-05,3.74E-05,2.59E-06,-1.24E-05,4.66E-06
1078,-2.39E-05,1.87E-05,2.56E-05,-3.94E-05,-1.86E-05,4.48E-06
1079,-1.03E-05,2.00E-05,1.30E-05,-3.08E-05,-2.61E-05,7.82E-06
1080,3.13E-06,2.23E-05,1.24E-05,3.58E-05,-3.09E-05,1.21E-05
1081,6.42E-06,2.53E-05,1.80E-05,0.000106514,-3.16E-05,1.55E-05
1082,1.72E-06,2.61E-05,2.29E-05,9.76E-05,-2.58E-05,1.61E-05
1083,-1.10E-06,2.45E-05,2.70E-05,2.37E-05,-1.29E-05,1.51E-05
1084,5.03E-06,2.19E-05,2.90E-05,-3.34E-05,2.20E-06,1.51E-05
1085,1.42E-05,1.91E-05,2.77E-05,-3.46E-05,1.26E-05,1.69E-05
1086,1.61E-05,1.74E-05,2.78E-05,2.84E-05,1.54E-05,2.03E-05
1087,1.15E-05,1.82E-05,2.90E-05,0.000103379,1.23E-05,2.16E-05
1088,5.50E-06,1.91E-05,2.89E-05,0.000100446,7.09E-06,1.86E-05
1089,-2.85E-06,1.80E-05,3.00E-05,1.76E-05,2.97E-06,1.75E-05
1090,-1.10E-05,1.70E-05,2.69E-05,-4.91E-05,3.22E-07,2.07E-05
1091,-1.18E-05,1.75E-05,1.67E-05,-5.70E-05,-1.47E-06,2.16E-05
1092,-6.31E-06,1.59E-05,1.24E-05,4.56E-06,-4.28E-06,1.55E-05
1093,4.09E-07,1.16E-05,1.94E-05,0.000100277,-7.54E-06,7.40E-06
1094,1.30E-06,4.84E-06,2.84E-05,0.000128363,-9.74E-06,1.58E-06
1095,-6.68E-06,-1.21E-06,3.57E-05,5.74E-05,-8.75E-06,-6.27E-07
1096,-1.15E-05,-8.94E-07,3.82E-05,-8.81E-06,-5.14E-06,3.06E-06
1097,-7.86E-06,3.38E-06,3.39E-05,-1.06E-05,-1.77E-06,7.56E-06
1098,-7.60E-06,6.64E-06,2.67E-05,2.87E-06,-8.80E-07,9.89E-06
1099,-8.71E-06,7.81E-06,2.43E-05,-1.42E-05,-3.59E-06,1.40E-05
1100,-7.01E-06,1.00E-05,2.72E-05,-1.27E-05,-8.58E-06,1.81E-05
1101,-6.19E-06,1.36E-05,2.90E-05,5.13E-05,-1.10E-05,2.00E-05
1102,-7.38E-06,1.69E-05,2.79E-05,0.000119528,-9.71E-06,1.83E-05
1103,-1.47E-05,1.70E-05,2.70E-05,9.88E-05,-7.29E-06,1.29E-05
1104,-2.33E-05,1.39E-05,2.81E-05,3.07E-05,-4.97E-06,9.91E-06
1105,-2.03E-05,1.03E-05,2.18E-05,-1.27E-05,-4.00E-06,1.46E-05
1106,-9.74E-06,8.36E-06,1.22E-05,-4.99E-06,-6.92E-06,2.37E-05
1107,-3.29E-06,1.03E-05,1.38E-05,6.73E-05,-1.26E-05,2.96E-05
1108,-3.31E-06,1.43E-05,2.30E-05,0.000148663,-1.69E-05,2.93E-05
1109,-7.96E-06,1.53E-05,3.06E-05,0.00014542,-1.86E-05,2.44E-05
1110,-1.33E-05,1.08E-05,3.33E-05,6.85E-05,-1.85E-05,1.86E-05
1111,-1.03E-05,5.50E-06,2.92E-05,7.05E-06,-1.78E-05,1.59E-05
1112,3.52E-06,5.11E-06,1.95E-05,4.00E-06,-1.55E-05,1.72E-05
1113,1.74E-05,9.77E-06,1.55E-05,6.59E-05,-1.02E-05,1.88E-05
1114,2.25E-05,1.34E-05,2.04E-05,0.000143819,-1.97E-06,1.71E-05
1115,1.83E-05,1.29E-05,2.60E-05,0.0001448,4.93E-06,9.32E-06
1116,1.04E-05,1.27E-05,2.95E-05,6.21E-05,6.40E-06,-2.23E-07
1117,9.01E-06,1.64E-05,3.01E-05,-3.63E-06,2.75E-06,-8.00E-07
1118,1.57E-05,1.95E-05,2.58E-05,-1.36E-05,-3.39E-06,6.87E-06
1119,2.05E-05,1.70E-05,2.46E-05,3.44E-05,-8.34E-06,1.36E-05
1120,2.29E-05,1.18E-05,2.50E-05,0.000110896,-9.46E-06,1.51E-05
1121,2.38E-05,7.50E-06,2.09E-05,0.000121335,-8.76E-06,1.23E-05
1122,2.17E-05,3.69E-06,2.40E-05,4.01E-05,-8.37E-06,1.13E-05
1123,2.47E-05,2.13E-06,3.07E-05,-2.63E-05,-8.41E-06,1.59E-05
1124,2.97E-05,3.70E-06,2.68E-05,-2.01E-05,-1.02E-05,1.92E-05
1125,2.66E-05,8.65E-06,1.45E-05,-3.35E-07,-1.40E-05,1.67E-05
1126,2.28E-05,1.41E-05,1.12E-05,-1.79E-05,-1.64E-05,1.32E-05
1127,2.26E-05,1.91E-05,1.74E-05,-1.87E-05,-1.77E-05,1.03E-05
1128,2.22E-05,2.31E-05,2.05E-05,4.32E-05,-1.84E-05,1.03E-05
1129,2.08E-05,2.22E-05,2.16E-05,0.000104261,-1.60E-05,1.13E-05
1130,1.55E-05,1.90E-05,2.49E-05,7.03E-05,-1.18E-05,1.06E-05
1131,6.33E-06,1.74E-05,2.88E-05,-6.51E-06,-1.14E-05,9.92E-06
1132,2.46E-06,1.69E-05,2.31E-05,-4.98E-05,-1.59E-05,1.11E-05
1133,7.01E-06,1.65E-05,1.40E-05,-3.54E-05,-2.05E-05,1.37E-05
1134,1.51E-05,1.69E-05,1.68E-05,4.31E-05,-2.23E-05,1.41E-05
1135,1.66E-05,1.68E-05,2.44E-05,0.000123907,-2.06E-05,1.12E-05
1136,4.71E-06,1.58E-05,2.90E-05,0.000111153,-1.57E-05,7.84E-06
1137,-1.01E-05,1.53E-05,3.35E-05,1.90E-05,-9.99E-06,7.82E-06
1138,-9.37E-06,1.45E-05,3.46E-05,-5.60E-05,-7.51E-06,1.08E-05
1139,6.34E-06,1.30E-05,2.84E-05,-6.36E-05,-7.86E-06,1.47E-05
1140,2.00E-05,1.28E-05,2.59E-05,3.73E-06,-8.23E-06,1.67E-05
1141,2.14E-05,1.33E-05,3.23E-05,8.92E-05,-8.54E-06,1.41E-05
1142,1.07E-05,1.15E-05,4.06E-05,9.53E-05,-9.23E-06,6.51E-06
1143,-3.25E-06,8.81E-06,4.62E-05,1.85E-05,-8.41E-06,-5.13E-07
1144,-7.22E-06,6.83E-06,4.21E-05,-4.07E-05,-5.45E-06,-2.18E-06
1145,7.37E-08,5.32E-06,3.02E-05,-4.41E-05,-2.24E-06,-1.94E-07
1146,5.20E-06,4.52E-06,2.89E-05,1.68E-05,-1.85E-06,3.63E-06
1147,4.06E-06,5.34E-06,3.70E-05,0.000106712,-3.87E-06,7.07E-06
1148,-2.66E-06,8.32E-06,4.04E-05,0.000119819,-7.43E-06,6.03E-06
1149,-1.16E-05,1.02E-05,4.11E-05,3.95E-05,-1.06E-05,1.05E-06
1150,-7.90E-06,8.06E-06,3.59E-05,-2.34E-05,-1.12E-05,1.44E-06
1151,2.64E-06,4.41E-06,2.53E-05,-1.55E-05,-1.20E-05,5.44E-06
1152,5.51E-08,2.87E-06,2.18E-05,2.03E-05,-1.76E-05,3.90E-06
1153,-5.08E-06,3.56E-06,3.06E-05,2.26E-05,-2.35E-05,-1.17E-07
1154,-1.78E-06,5.31E-06,3.97E-05,2.07E-05,-2.07E-05,-6.05E-07
1155,3.87E-06,6.76E-06,3.75E-05,6.84E-05,-1.12E-05,3.15E-06
1156,9.93E-07,7.01E-06,3.36E-05,0.000120061,-1.49E-06,5.36E-06
1157,-1.75E-05,6.33E-06,3.87E-05,8.72E-05,5.89E-06,4.56E-06
1158,-3.90E-05,5.93E-06,4.66E-05,1.21E-05,1.25E-05,5.84E-06
1159,-4.09E-05,6.53E-06,4.17E-05,-3.03E-05,1.48E-05,1.31E-05
1160,-2.84E-05,7.70E-06,2.96E-05,-1.09E-05,8.57E-06,2.15E-05
1161,-2.12E-05,9.35E-06,2.80E-05,7.15E-05,-1.36E-06,2.41E-05
1162,-2.35E-05,1.10E-05,3.57E-05,0.000149643,-6.76E-06,1.89E-05
1163,-3.18E-05,1.18E-05,4.48E-05,0.000140452,-6.47E-06,1.05E-05
1164,-4.23E-05,1.18E-05,5.00E-05,6.69E-05,-4.97E-06,7.94E-06
1165,-4.69E-05,1.21E-05,4.62E-05,1.28E-05,-5.13E-06,1.37E-05
1166,-4.15E-05,1.36E-05,3.74E-05,1.09E-05,-6.44E-06,2.13E-05
1167,-3.50E-05,1.68E-05,3.81E-05,6.65E-05,-6.79E-06,2.33E-05
1168,-3.40E-05,2.02E-05,4.59E-05,0.000135954,-5.51E-06,1.93E-05
1169,-3.91E-05,1.99E-05,4.90E-05,0.000132101,-3.99E-06,1.27E-05
1170,-4.44E-05,1.61E-05,4.69E-05,5.10E-05,-4.39E-06,8.53E-06
1171,-3.85E-05,1.46E-05,4.18E-05,-9.93E-06,-6.72E-06,1.00E-05
1172,-2.15E-05,1.57E-05,3.54E-05,-1.45E-05,-8.29E-06,1.60E-05
1173,-7.96E-06,1.58E-05,3.54E-05,4.05E-05,-7.51E-06,2.09E-05
1174,-4.15E-06,1.69E-05,3.80E-05,0.000128455,-6.35E-06,2.17E-05
1175,-8.96E-06,1.87E-05,3.54E-05,0.000149153,-5.65E-06,1.69E-05
1176,-1.91E-05,1.87E-05,3.71E-05,7.04E-05,-5.98E-06,1.16E-05
1177,-2.25E-05,1.96E-05,4.15E-05,6.10E-07,-6.80E-06,1.16E-05
1178,-1.68E-05,2.04E-05,3.81E-05,3.41E-06,-7.60E-06,1.21E-05
1179,-1.37E-05,1.97E-05,2.84E-05,3.02E-05,-9.51E-06,9.35E-06
1180,-9.34E-06,1.90E-05,2.37E-05,2.25E-05,-1.04E-05,6.79E-06
1181,-4.14E-07,1.80E-05,2.92E-05,2.19E-05,-8.41E-06,6.41E-06
1182,6.69E-06,1.68E-05,3.66E-05,8.10E-05,-7.66E-06,1.36E-05
1183,7.06E-06,1.45E-05,4.08E-05,0.000142084,-1.07E-05,3.12E-05
1184,-6.01E-06,1.14E-05,4.33E-05,0.000110389,-1.42E-05,5.14E-05
1185,-1.99E-05,9.39E-06,4.27E-05,3.62E-05,-1.48E-05,6.49E-05
1186,-1.61E-05,8.97E-06,3.34E-05,-4.56E-06,-1.40E-05,6.55E-05
1187,-5.77E-06,8.50E-06,2.23E-05,1.05E-05,-1.37E-05,5.18E-05
1188,-4.66E-06,9.65E-06,2.20E-05,8.34E-05,-1.28E-05,3.01E-05
1189,-1.01E-05,1.24E-05,2.90E-05,0.000152547,-1.17E-05,7.08E-06
1190,-1.89E-05,1.35E-05,3.49E-05,0.000132142,-1.19E-05,-1.45E-05
1191,-2.98E-05,1.17E-05,3.69E-05,4.56E-05,-1.32E-05,-2.89E-05
1192,-3.35E-05,8.61E-06,3.16E-05,-1.44E-05,-1.48E-05,-3.38E-05
1193,-2.54E-05,6.87E-06,2.09E-05,-1.31E-05,-1.73E-05,-3.37E-05
1194,-1.54E-05,8.55E-06,1.90E-05,4.90E-05,-1.85E-05,-3.15E-05
1195,-1.38E-05,1.41E-05,2.84E-05,0.000122951,-1.52E-05,-2.52E-05
1196,-2.15E-05,2.04E-05,3.70E-05,0.000120905,-1.02E-05,-1.38E-05
1197,-3.15E-05,2.26E-05,3.97E-05,3.93E-05,-8.75E-06,3.14E-06
1198,-3.23E-05,1.98E-05,3.39E-05,-2.27E-05,-9.28E-06,2.29E-05
1199,-2.29E-05,1.70E-05,2.07E-05,-2.45E-05,-8.89E-06,3.68E-05
1200,-1.48E-05,1.63E-05,1.51E-05,3.72E-05,-8.78E-06,3.83E-05
1201,-1.53E-05,1.51E-05,1.91E-05,0.000127204,-8.62E-06,2.80E-05
1202,-2.53E-05,1.22E-05,2.23E-05,0.00014745,-5.94E-06,7.08E-06
1203,-3.83E-05,8.15E-06,2.95E-05,6.93E-05,-1.15E-06,-1.83E-05
1204,-3.62E-05,3.99E-06,3.67E-05,1.55E-06,1.87E-06,-3.12E-05
1205,-2.04E-05,2.84E-06,3.28E-05,1.40E-05,9.75E-08,-2.37E-05
1206,-1.19E-05,4.32E-06,2.33E-05,5.34E-05,-4.56E-06,-7.79E-06
1207,-7.74E-06,6.33E-06,2.40E-05,5.30E-05,-9.52E-06,5.00E-06
1208,-1.86E-06,8.67E-06,3.59E-05,5.08E-05,-1.23E-05,1.37E-05
1209,-8.35E-08,1.02E-05,4.63E-05,0.000100961,-1.10E-05,2.03E-05
1210,-4.93E-06,1.13E-05,4.71E-05,0.000159482,-9.59E-06,2.29E-05
1211,-1.46E-05,1.03E-05,4.22E-05,0.000137427,-1.33E-05,1.95E-05
1212,-2.19E-05,7.74E-06,4.06E-05,7.11E-05,-1.91E-05,1.63E-05
1213,-1.75E-05,6.58E-06,3.51E-05,2.49E-05,-2.02E-05,1.72E-05
1214,-5.37E-06,6.26E-06,2.64E-05,2.71E-05,-1.75E-05,1.92E-05
1215,5.48E-06,6.43E-06,2.70E-05,9.09E-05,-1.58E-05,1.98E-05
1216,1.27E-05,6.80E-06,3.51E-05,0.000158449,-1.53E-05,1.96E-05
1217,1.07E-05,4.57E-06,4.20E-05,0.000143675,-1.49E-05,2.07E-05
1218,-1.97E-06,-4.63E-07,4.26E-05,6.05E-05,-1.31E-05,2.53E-05
1219,-1.09E-05,-4.25E-06,3.47E-05,-5.36E-06,-9.61E-06,3.20E-05
1220,-7.08E-06,-3.41E-06,2.39E-05,-1.29E-05,-6.04E-06,3.48E-05
1221,9.97E-07,2.94E-06,2.23E-05,4.39E-05,-4.12E-06,3.17E-05
1222,5.24E-06,1.16E-05,2.80E-05,0.000119202,-3.84E-06,2.66E-05
1223,2.93E-06,1.68E-05,3.18E-05,0.000129012,-3.58E-06,2.18E-05
1224,-5.63E-06,1.64E-05,3.34E-05,6.16E-05,-4.15E-06,1.79E-05
1225,-1.10E-05,1.49E-05,3.14E-05,3.39E-06,-6.16E-06,1.62E-05
1226,-8.87E-06,1.63E-05,2.51E-05,-4.95E-06,-7.07E-06,1.64E-05
1227,-8.59E-06,1.93E-05,2.51E-05,4.63E-05,-6.81E-06,1.62E-05
1228,-1.10E-05,2.23E-05,3.12E-05,0.000127118,-5.17E-06,1.36E-05
1229,-1.56E-05,2.33E-05,3.25E-05,0.000138617,-2.69E-06,9.61E-06
1230,-2.00E-05,1.98E-05,3.17E-05,5.55E-05,-2.69E-06,1.05E-05
1231,-1.59E-05,1.58E-05,2.98E-05,-1.04E-05,-4.75E-06,1.68E-05
1232,-8.85E-06,1.73E-05,2.34E-05,1.24E-06,-7.40E-06,2.06E-05
1233,-1.13E-05,2.35E-05,1.43E-05,3.44E-05,-9.99E-06,2.11E-05
1234,-1.64E-05,2.55E-05,1.42E-05,3.55E-05,-1.10E-05,2.17E-05
1235,-1.40E-05,2.14E-05,2.40E-05,4.70E-05,-9.44E-06,2.29E-05
1236,-6.68E-06,1.81E-05,2.78E-05,0.000108735,-7.69E-06,2.25E-05
1237,-1.46E-06,1.82E-05,2.16E-05,0.000161721,-8.35E-06,1.89E-05
1238,-9.14E-06,1.68E-05,1.26E-05,0.000118395,-1.12E-05,1.44E-05
1239,-2.18E-05,1.27E-05,6.09E-06,2.88E-05,-1.49E-05,1.25E-05
1240,-1.73E-05,7.47E-06,-2.34E-06,-2.59E-05,-1.61E-05,1.47E-05
1241,6.74E-07,4.81E-06,-9.50E-06,-1.43E-05,-1.42E-05,1.85E-05
1242,1.31E-05,8.51E-06,-5.28E-06,6.63E-05,-1.15E-05,2.13E-05
1243,1.39E-05,1.61E-05,6.82E-06,0.0001458,-1.10E-05,2.01E-05
1244,7.50E-06,2.02E-05,1.89E-05,0.000133084,-1.26E-05,1.43E-05
1245,2.15E-06,1.82E-05,2.61E-05,4.96E-05,-1.37E-05,1.05E-05
1246,5.51E-06,1.49E-05,2.53E-05,-1.33E-05,-1.24E-05,1.28E-05
1247,1.34E-05,1.40E-05,1.86E-05,-1.58E-05,-9.17E-06,1.51E-05
1248,1.82E-05,1.51E-05,1.62E-05,4.45E-05,-6.79E-06,1.35E-05
1249,2.02E-05,1.69E-05,2.15E-05,0.000118489,-7.19E-06,1.02E-05
1250,1.83E-05,1.74E-05,2.89E-05,0.000119953,-9.37E-06,4.80E-06
1251,1.01E-05,1.55E-05,3.31E-05,4.59E-05,-1.18E-05,3.56E-07
1252,4.16E-06,1.32E-05,2.80E-05,-1.09E-05,-1.59E-05,9.81E-07
1253,9.56E-06,1.08E-05,1.51E-05,-1.66E-05,-2.37E-05,2.56E-06
1254,1.62E-05,8.83E-06,1.01E-05,2.93E-05,-3.46E-05,1.51E-06
1255,1.55E-05,1.05E-05,1.81E-05,0.0001019,-4.19E-05,-2.29E-08
1256,7.30E-06,1.36E-05,2.69E-05,0.00011311,-4.02E-05,-1.12E-07
1257,-5.90E-06,1.29E-05,2.96E-05,3.42E-05,-3.26E-05,2.69E-06
1258,-9.50E-06,9.95E-06,2.57E-05,-3.03E-05,-2.20E-05,8.66E-06
1259,-1.88E-06,7.40E-06,1.95E-05,-1.96E-05,-1.06E-05,1.41E-05
1260,2.77E-06,6.02E-06,1.47E-05,1.17E-05,-1.83E-06,1.68E-05
1261,5.73E-06,6.76E-06,1.96E-05,5.91E-07,7.68E-06,1.61E-05
1262,1.05E-05,1.06E-05,3.38E-05,-7.25E-06,2.11E-05,1.13E-05
1263,1.38E-05,1.65E-05,4.10E-05,4.75E-05,2.86E-05,7.46E-06
1264,1.00E-05,2.02E-05,3.86E-05,0.000112812,2.24E-05,6.18E-06
1265,-4.08E-06,2.08E-05,3.42E-05,8.60E-05,1.09E-05,4.91E-06
1266,-2.11E-05,2.05E-05,2.88E-05,9.10E-06,4.17E-06,4.81E-06
1267,-2.79E-05,2.05E-05,1.61E-05,-3.28E-05,2.26E-06,7.87E-06
1268,-2.43E-05,1.95E-05,4.73E-06,-1.25E-05,5.47E-07,1.16E-05
1269,-1.96E-05,1.77E-05,8.35E-06,7.08E-05,-2.11E-06,1.42E-05
1270,-1.92E-05,1.67E-05,1.88E-05,0.000151449,-5.00E-06,1.33E-05
1271,-2.49E-05,1.66E-05,2.73E-05,0.000138439,-6.94E-06,7.65E-06
1272,-3.27E-05,1.62E-05,3.48E-05,5.31E-05,-6.62E-06,4.61E-06
1273,-3.21E-05,1.36E-05,3.84E-05,-8.15E-06,-5.37E-06,1.04E-05
1274,-2.02E-05,9.92E-06,3.33E-05,-7.76E-06,-4.37E-06,2.00E-05
1275,-5.98E-06,7.18E-06,2.77E-05,5.16E-05,-3.01E-06,2.44E-05
1276,1.48E-06,6.29E-06,2.81E-05,0.000123886,-1.32E-06,2.14E-05
1277,-1.81E-06,5.87E-06,3.17E-05,0.000126463,-8.41E-07,1.30E-05
1278,-1.32E-05,4.93E-06,3.61E-05,5.17E-05,-3.30E-06,6.92E-06
1279,-2.16E-05,4.74E-06,3.39E-05,-9.78E-06,-8.45E-06,1.12E-05
1280,-1.80E-05,4.42E-06,2.21E-05,-1.43E-05,-1.33E-05,2.27E-05
1281,-6.17E-06,3.41E-06,1.62E-05,4.65E-05,-1.52E-05,2.80E-05
1282,5.10E-06,3.99E-06,1.93E-05,0.000134159,-1.50E-05,2.39E-05
1283,6.81E-06,5.11E-06,2.22E-05,0.000141707,-1.50E-05,1.67E-05
1284,-5.83E-07,4.32E-06,2.51E-05,4.62E-05,-1.47E-05,1.37E-05
1285,-2.22E-06,3.68E-06,2.71E-05,-2.79E-05,-1.25E-05,1.73E-05
1286,9.14E-06,2.42E-06,2.26E-05,-1.54E-05,-9.33E-06,2.14E-05
1287,2.05E-05,7.65E-07,1.58E-05,1.47E-05,-9.67E-06,2.35E-05
1288,2.48E-05,1.93E-06,1.87E-05,4.04E-06,-1.19E-05,2.49E-05
1289,2.34E-05,5.38E-06,2.71E-05,5.31E-06,-1.15E-05,2.18E-05
1290,1.91E-05,9.39E-06,2.71E-05,6.65E-05,-8.97E-06,1.52E-05
1291,1.28E-05,1.18E-05,1.52E-05,0.00012622,-7.69E-06,1.04E-05
1292,-1.73E-06,1.07E-05,4.89E-06,9.39E-05,-9.02E-06,9.48E-06
1293,-1.83E-05,7.01E-06,3.24E-06,1.82E-05,-1.19E-05,1.16E-05
1294,-2.07E-05,4.90E-06,-1.50E-06,-2.74E-05,-1.50E-05,1.49E-05
1295,-1.02E-05,6.25E-06,-1.01E-05,-1.38E-05,-1.48E-05,1.59E-05
1296,-3.83E-06,8.31E-06,-6.95E-06,6.74E-05,-1.16E-05,1.37E-05
1297,-9.26E-06,7.74E-06,6.27E-06,0.000151414,-9.13E-06,1.12E-05
1298,-2.05E-05,4.55E-06,1.73E-05,0.000142436,-9.07E-06,9.36E-06
1299,-2.84E-05,2.15E-06,2.10E-05,5.66E-05,-9.72E-06,9.50E-06
1300,-2.78E-05,2.74E-06,1.71E-05,-9.79E-06,-9.80E-06,1.25E-05
1301,-2.12E-05,4.13E-06,1.04E-05,-1.20E-05,-9.74E-06,1.45E-05
1302,-1.52E-05,3.74E-06,1.04E-05,5.06E-05,-9.16E-06,1.34E-05
1303,-1.39E-05,3.26E-06,1.58E-05,0.000127464,-8.14E-06,1.09E-05
1304,-1.94E-05,5.27E-06,1.87E-05,0.000130144,-8.69E-06,7.65E-06
1305,-2.78E-05,8.89E-06,2.13E-05,5.29E-05,-9.23E-06,6.99E-06
1306,-2.58E-05,1.20E-05,2.18E-05,-6.51E-06,-5.98E-06,1.15E-05
1307,-1.01E-05,1.42E-05,1.48E-05,-9.54E-06,-2.19E-06,1.63E-05
1308,5.01E-06,1.50E-05,1.04E-05,4.40E-05,-1.47E-06,1.83E-05
1309,7.50E-06,1.56E-05,1.44E-05,0.000124772,-3.33E-06,1.66E-05
1310,-4.53E-06,1.79E-05,1.93E-05,0.000140993,-4.78E-06,1.00E-05
1311,-1.79E-05,1.88E-05,2.73E-05,6.58E-05,-4.20E-06,3.70E-06
1312,-1.23E-05,1.42E-05,3.29E-05,-2.58E-06,-4.05E-06,1.81E-06
1313,5.79E-06,1.05E-05,2.81E-05,-7.18E-06,-6.06E-06,2.62E-06
1314,1.64E-05,1.44E-05,2.06E-05,7.33E-06,-8.28E-06,4.05E-06
1315,1.87E-05,2.12E-05,2.37E-05,-1.07E-05,-8.68E-06,5.72E-06
1316,1.71E-05,2.54E-05,3.48E-05,-1.56E-05,-7.10E-06,5.33E-06
1317,1.30E-05,2.64E-05,4.25E-05,4.33E-05,-4.27E-06,5.22E-06
1318,6.06E-06,2.54E-05,4.63E-05,0.000108262,-2.41E-06,9.25E-06
1319,-4.25E-06,2.23E-05,4.99E-05,7.93E-05,-2.49E-06,1.81E-05
1320,-1.42E-05,1.97E-05,4.98E-05,1.66E-06,-1.98E-06,3.54E-05
1321,-1.56E-05,1.85E-05,3.66E-05,-4.60E-05,-1.30E-06,6.01E-05
1322,-8.96E-06,1.88E-05,2.15E-05,-3.55E-05,-2.41E-06,7.75E-05
1323,-1.37E-06,2.13E-05,2.17E-05,4.12E-05,-3.79E-06,7.59E-05
1324,7.41E-07,2.50E-05,3.13E-05,0.000120139,-5.16E-06,5.66E-05
1325,-4.61E-06,2.64E-05,3.88E-05,0.00010834,-7.76E-06,2.75E-05
1326,-1.30E-05,2.27E-05,4.14E-05,2.71E-05,-1.18E-05,-3.85E-07
1327,-1.70E-05,1.66E-05,3.68E-05,-2.95E-05,-1.60E-05,-1.81E-05
1328,-1.32E-05,1.30E-05,2.73E-05,-2.37E-05,-1.87E-05,-2.66E-05
1329,-3.70E-06,1.24E-05,2.44E-05,4.41E-05,-1.92E-05,-3.31E-05
1330,6.10E-06,1.29E-05,2.86E-05,0.000122045,-1.82E-05,-4.06E-05
1331,6.92E-06,1.33E-05,3.21E-05,0.000121358,-1.59E-05,-4.49E-05
1332,-4.45E-06,1.21E-05,3.43E-05,3.83E-05,-9.24E-06,-3.90E-05
1333,-1.47E-05,1.13E-05,3.25E-05,-2.43E-05,1.36E-06,-2.04E-05
1334,-1.11E-05,1.33E-05,2.45E-05,-2.39E-05,8.58E-06,3.01E-06
1335,-2.15E-06,1.73E-05,2.08E-05,3.85E-05,9.44E-06,1.76E-05
1336,-4.48E-07,2.00E-05,2.31E-05,0.000123623,5.17E-06,1.97E-05
1337,-6.95E-06,1.92E-05,2.49E-05,0.000138637,-1.95E-06,1.39E-05
1338,-1.51E-05,1.33E-05,3.03E-05,6.05E-05,-1.01E-05,8.99E-06
1339,-1.52E-05,4.40E-06,3.51E-05,-1.10E-05,-1.57E-05,1.46E-05
1340,-1.07E-05,-1.69E-06,3.02E-05,-1.10E-05,-1.32E-05,2.23E-05
1341,-1.33E-05,-1.33E-06,2.15E-05,1.43E-05,-5.07E-06,2.53E-05
1342,-1.28E-05,1.98E-06,2.33E-05,7.34E-06,2.57E-06,2.78E-05
1343,-2.15E-06,5.37E-06,3.29E-05,1.31E-05,5.79E-06,3.04E-05
1344,5.40E-06,7.67E-06,3.80E-05,7.81E-05,4.47E-06,3.24E-05
1345,2.73E-06,8.47E-06,3.74E-05,0.0001422,1.39E-06,2.97E-05
1346,-8.25E-06,7.57E-06,3.92E-05,0.000112619,-2.35E-07,2.16E-05
1347,-1.87E-05,6.83E-06,4.35E-05,3.74E-05,-7.76E-07,1.62E-05
1348,-1.55E-05,7.26E-06,3.79E-05,-7.39E-06,-3.51E-06,1.77E-05
1349,-1.52E-06,7.13E-06,2.88E-05,2.09E-06,-1.00E-05,2.02E-05
1350,9.07E-06,6.82E-06,2.98E-05,7.15E-05,-1.73E-05,2.12E-05
1351,7.81E-06,7.35E-06,3.60E-05,0.000145205,-2.19E-05,2.28E-05
1352,-4.06E-06,8.18E-06,4.05E-05,0.000136265,-2.22E-05,2.40E-05
1353,-1.53E-05,8.37E-06,4.23E-05,5.80E-05,-2.02E-05,2.49E-05
1354,-1.44E-05,8.83E-06,3.74E-05,-1.43E-06,-1.78E-05,2.74E-05
1355,-4.45E-06,8.98E-06,2.71E-05,-6.35E-07,-1.49E-05,3.24E-05
1356,2.55E-06,6.05E-06,2.31E-05,6.25E-05,-1.29E-05,3.73E-05
1357,1.56E-06,-4.08E-07,2.56E-05,0.000137882,-1.38E-05,3.62E-05
1358,-6.23E-06,-6.10E-06,2.62E-05,0.000137203,-1.53E-05,2.46E-05
1359,-1.73E-05,-7.60E-06,2.72E-05,5.45E-05,-1.41E-05,2.85E-06
1360,-2.11E-05,-5.07E-06,2.82E-05,-1.12E-05,-1.24E-05,-1.74E-05
1361,-1.37E-05,-1.84E-06,2.46E-05,-1.61E-05,-1.26E-05,-2.16E-05
1362,-7.50E-06,2.68E-06,2.52E-05,4.34E-05,-1.26E-05,-9.44E-06
1363,-9.16E-06,1.06E-05,2.93E-05,0.000130006,-1.12E-05,4.80E-06
1364,-1.54E-05,1.78E-05,2.75E-05,0.000141451,-9.94E-06,9.28E-06
1365,-2.25E-05,1.96E-05,2.50E-05,5.10E-05,-9.77E-06,9.41E-06
1366,-2.28E-05,1.70E-05,2.30E-05,-1.97E-05,-9.36E-06,1.47E-05
1367,-1.45E-05,1.59E-05,1.55E-05,-1.66E-06,-6.64E-06,2.16E-05
1368,-9.78E-06,1.90E-05,8.72E-06,3.39E-05,-2.23E-06,2.44E-05
1369,-5.94E-06,2.11E-05,1.54E-05,2.11E-05,-7.30E-07,2.32E-05
1370,4.20E-06,2.08E-05,2.92E-05,1.69E-05,-6.25E-06,1.93E-05
1371,1.18E-05,2.33E-05,3.51E-05,7.62E-05,-1.45E-05,1.51E-05
1372,8.97E-06,2.97E-05,3.23E-05,0.000136959,-2.03E-05,8.81E-06
1373,-4.16E-06,3.49E-05,3.04E-05,0.000104107,-2.04E-05,2.57E-06
1374,-1.64E-05,3.60E-05,3.25E-05,2.96E-05,-1.69E-05,1.66E-07
1375,-1.46E-05,3.40E-05,3.04E-05,-4.87E-06,-1.28E-05,2.27E-06
1376,-4.27E-06,3.20E-05,2.54E-05,1.62E-05,-9.13E-06,5.50E-06
1377,1.04E-06,3.30E-05,2.68E-05,8.81E-05,-7.54E-06,8.08E-06
1378,1.68E-06,3.46E-05,3.17E-05,0.00015436,-7.83E-06,1.12E-05
1379,1.75E-06,3.18E-05,3.61E-05,0.000131299,-8.90E-06,1.39E-05
1380,8.66E-07,2.37E-05,3.87E-05,3.73E-05,-9.95E-06,1.54E-05
1381,2.17E-06,1.40E-05,3.47E-05,-3.26E-05,-1.16E-05,1.67E-05
1382,6.53E-06,7.71E-06,2.88E-05,-3.28E-05,-1.17E-05,1.76E-05
1383,8.98E-06,6.00E-06,3.43E-05,3.57E-05,-8.79E-06,1.52E-05
1384,8.74E-06,6.27E-06,4.67E-05,0.000113927,-5.49E-06,9.93E-06
1385,6.91E-06,6.35E-06,5.26E-05,0.000112811,-4.28E-06,4.46E-06
1386,1.93E-06,5.14E-06,5.11E-05,3.53E-05,-4.50E-06,3.67E-06
1387,-1.38E-06,3.04E-06,4.43E-05,-2.01E-05,-6.16E-06,7.25E-06
1388,1.04E-06,1.76E-06,3.74E-05,-2.23E-05,-9.78E-06,9.19E-06
1389,1.21E-06,2.23E-06,3.95E-05,2.97E-05,-1.32E-05,8.45E-06
1390,-5.21E-06,4.11E-06,4.63E-05,0.000112713,-1.35E-05,9.16E-06
1391,-1.54E-05,5.44E-06,4.67E-05,0.000135802,-1.24E-05,9.44E-06
1392,-2.37E-05,4.88E-06,4.69E-05,6.18E-05,-1.15E-05,8.20E-06
1393,-2.15E-05,5.29E-06,4.79E-05,-1.49E-05,-8.77E-06,1.00E-05
1394,-1.24E-05,7.03E-06,4.28E-05,-2.17E-05,-4.94E-06,1.02E-05
1395,-7.98E-06,8.21E-06,3.47E-05,8.33E-06,-3.38E-06,5.96E-06
1396,-3.71E-06,8.56E-06,3.21E-05,1.72E-05,-4.90E-06,4.53E-06
1397,3.89E-06,8.37E-06,3.37E-05,3.02E-05,-5.32E-06,7.26E-06
1398,8.85E-06,1.06E-05,3.23E-05,9.01E-05,-3.32E-06,1.06E-05
1399,8.95E-06,1.75E-05,2.68E-05,0.000147265,-1.32E-06,9.10E-06
1400,-8.38E-07,2.50E-05,2.29E-05,0.000112214,-5.56E-07,3.08E-06
1401,-1.50E-05,2.54E-05,2.31E-05,3.04E-05,-2.28E-06,1.73E-06
1402,-1.68E-05,2.03E-05,1.60E-05,-2.24E-05,-5.49E-06,8.87E-06
1403,-7.27E-06,1.66E-05,5.63E-06,-1.88E-05,-9.20E-06,1.68E-05
1404,2.93E-07,1.58E-05,8.08E-06,5.11E-05,-1.08E-05,1.84E-05
1405,6.44E-07,1.53E-05,1.99E-05,0.000129277,-8.62E-06,1.38E-05
1406,-4.14E-06,1.52E-05,3.05E-05,0.000125284,-5.49E-06,7.20E-06
1407,-9.38E-06,1.68E-05,3.58E-05,5.51E-05,-4.11E-06,5.56E-06
1408,-8.33E-06,1.81E-05,3.27E-05,7.93E-06,-4.07E-06,1.09E-05
1409,-2.58E-07,1.73E-05,2.44E-05,2.02E-05,-4.14E-06,1.67E-05
1410,8.30E-06,1.52E-05,2.32E-05,8.27E-05,-5.14E-06,1.73E-05
1411,1.26E-05,1.41E-05,2.78E-05,0.000142763,-6.39E-06,1.37E-05
1412,9.88E-06,1.26E-05,2.95E-05,0.000127176,-6.82E-06,8.72E-06
1413,1.06E-06,9.46E-06,3.07E-05,4.21E-05,-7.93E-06,6.49E-06
1414,-1.60E-06,7.13E-06,3.21E-05,-2.13E-05,-1.10E-05,9.21E-06
1415,8.84E-06,8.77E-06,3.11E-05,-2.83E-05,-1.30E-05,1.29E-05
1416,1.77E-05,1.23E-05,3.40E-05,2.55E-05,-1.23E-05,1.25E-05
1417,1.46E-05,1.34E-05,3.91E-05,0.000107744,-1.16E-05,9.49E-06
1418,4.24E-06,1.15E-05,3.96E-05,0.000124153,-1.17E-05,3.94E-06
1419,-5.20E-06,7.10E-06,4.26E-05,4.63E-05,-1.09E-05,-1.19E-06
1420,-2.99E-06,4.96E-06,4.62E-05,-1.97E-05,-8.51E-06,3.39E-06
1421,9.19E-06,8.57E-06,3.78E-05,-1.65E-05,-6.76E-06,1.47E-05
1422,1.29E-05,1.41E-05,2.46E-05,4.18E-06,-9.07E-06,2.34E-05
1423,1.00E-05,1.63E-05,2.50E-05,-4.21E-06,-1.07E-05,2.87E-05
1424,8.94E-06,1.47E-05,3.51E-05,1.49E-06,-1.00E-05,3.08E-05
1425,5.09E-06,1.31E-05,4.05E-05,6.55E-05,-1.12E-05,2.84E-05
1426,-1.86E-06,1.43E-05,3.99E-05,0.000132358,-1.64E-05,2.47E-05
1427,-1.41E-05,1.43E-05,4.04E-05,0.000109926,-2.28E-05,2.04E-05
1428,-2.58E-05,1.10E-05,4.21E-05,3.84E-05,-2.43E-05,1.61E-05
1429,-2.46E-05,7.80E-06,3.56E-05,-3.24E-06,-1.98E-05,1.59E-05
1430,-1.56E-05,7.27E-06,2.64E-05,1.24E-05,-1.20E-05,1.95E-05
1431,-1.13E-05,1.06E-05,2.82E-05,8.67E-05,-3.88E-06,2.17E-05
1432,-1.45E-05,1.57E-05,3.47E-05,0.000159997,3.61E-06,1.98E-05
1433,-2.34E-05,1.77E-05,3.64E-05,0.000148575,8.44E-06,1.57E-05
1434,-3.20E-05,1.61E-05,3.40E-05,6.92E-05,1.18E-05,1.17E-05
1435,-3.14E-05,1.51E-05,2.87E-05,6.22E-06,1.38E-05,9.41E-06
1436,-2.13E-05,1.49E-05,2.35E-05,3.13E-06,1.09E-05,8.67E-06
1437,-1.10E-05,1.36E-05,2.56E-05,6.99E-05,3.78E-06,1.01E-05
1438,-8.14E-06,1.21E-05,3.19E-05,0.000155811,-2.01E-06,1.28E-05
1439,-1.24E-05,9.05E-06,3.49E-05,0.000163226,-4.71E-06,1.26E-05
1440,-2.02E-05,2.87E-06,3.57E-05,8.14E-05,-7.60E-06,1.04E-05
1441,-2.38E-05,-1.87E-06,3.35E-05,7.99E-06,-1.17E-05,9.26E-06
1442,-1.70E-05,-9.36E-07,2.84E-05,-7.83E-06,-1.58E-05,8.22E-06
1443,-5.76E-06,3.49E-06,2.84E-05,4.42E-05,-1.82E-05,8.86E-06
1444,-5.81E-07,8.36E-06,3.35E-05,0.000129639,-1.81E-05,1.20E-05
1445,-4.58E-06,1.04E-05,3.69E-05,0.000143517,-1.68E-05,1.10E-05
1446,-1.12E-05,9.13E-06,4.42E-05,5.88E-05,-1.63E-05,7.49E-06
1447,-9.32E-06,7.83E-06,4.97E-05,-8.84E-06,-1.61E-05,1.15E-05
1448,3.16E-06,8.81E-06,4.42E-05,4.43E-06,-1.61E-05,1.99E-05
1449,1.28E-05,1.17E-05,3.35E-05,3.83E-05,-1.56E-05,2.29E-05
1450,1.48E-05,1.12E-05,2.74E-05,3.39E-05,-1.31E-05,2.06E-05
1451,1.48E-05,7.06E-06,3.12E-05,3.33E-05,-1.28E-05,1.91E-05
1452,1.82E-05,5.56E-06,3.98E-05,8.33E-05,-1.85E-05,1.98E-05
1453,2.20E-05,8.63E-06,4.65E-05,0.000132273,-2.73E-05,1.88E-05
1454,1.40E-05,1.22E-05,5.11E-05,9.16E-05,-3.47E-05,1.22E-05
1455,-2.15E-06,1.35E-05,5.25E-05,1.02E-05,-3.86E-05,6.94E-06
1456,-7.30E-06,1.35E-05,4.29E-05,-3.52E-05,-3.75E-05,1.13E-05
1457,5.78E-07,1.34E-05,3.08E-05,-2.25E-05,-2.87E-05,1.90E-05
1458,7.83E-06,1.44E-05,3.17E-05,5.34E-05,-1.33E-05,2.31E-05
1459,7.47E-06,1.49E-05,4.09E-05,0.000132343,1.37E-06,2.15E-05
1460,-9.46E-07,1.32E-05,4.83E-05,0.000122044,1.03E-05,1.59E-05
1461,-1.31E-05,1.02E-05,5.02E-05,3.87E-05,1.52E-05,1.35E-05
1462,-1.80E-05,8.31E-06,4.52E-05,-2.25E-05,1.62E-05,1.78E-05
1463,-1.20E-05,7.73E-06,3.65E-05,-1.54E-05,1.15E-05,2.28E-05
1464,-4.95E-06,7.60E-06,3.32E-05,5.76E-05,2.76E-06,2.54E-05
1465,-4.72E-06,8.08E-06,3.46E-05,0.000140739,-3.86E-06,2.99E-05
1466,-1.30E-05,7.94E-06,3.49E-05,0.000144457,-4.46E-06,3.94E-05
1467,-2.62E-05,5.35E-06,3.63E-05,6.06E-05,-7.84E-07,5.05E-05
1468,-3.35E-05,3.53E-06,3.51E-05,-1.45E-05,2.27E-06,5.79E-05
1469,-2.79E-05,6.25E-06,2.63E-05,-3.14E-05,1.95E-06,5.64E-05
1470,-1.58E-05,1.25E-05,2.37E-05,2.08E-05,-1.63E-06,4.16E-05
1471,-6.52E-06,1.88E-05,3.26E-05,0.00010738,-5.58E-06,1.81E-05
1472,-6.20E-06,2.17E-05,3.77E-05,0.000127805,-6.53E-06,-7.12E-06
1473,-1.62E-05,1.95E-05,3.48E-05,5.44E-05,-7.00E-06,-2.95E-05
1474,-2.34E-05,1.51E-05,2.83E-05,-6.80E-06,-1.06E-05,-4.16E-05
1475,-1.93E-05,1.16E-05,2.32E-05,5.91E-06,-1.41E-05,-4.45E-05
1476,-1.51E-05,1.17E-05,2.05E-05,3.84E-05,-1.52E-05,-4.49E-05
1477,-1.17E-05,1.59E-05,2.01E-05,3.26E-05,-1.53E-05,-4.12E-05
1478,-5.61E-06,1.91E-05,2.42E-05,3.15E-05,-1.38E-05,-2.96E-05
1479,-3.80E-06,1.77E-05,2.70E-05,8.39E-05,-1.16E-05,-1.03E-05
1480,-6.33E-06,1.43E-05,2.73E-05,0.000134925,-1.03E-05,6.48E-06
1481,-1.31E-05,1.12E-05,2.98E-05,8.91E-05,-9.38E-06,1.23E-05
1482,-2.00E-05,1.11E-05,3.09E-05,-9.32E-06,-7.62E-06,1.16E-05
1483,-1.39E-05,1.33E-05,2.20E-05,-7.25E-05,-7.18E-06,1.06E-05
1484,1.48E-06,1.41E-05,1.07E-05,-6.55E-05,-1.12E-05,1.00E-05
1485,1.07E-05,1.52E-05,9.77E-06,1.74E-05,-1.62E-05,1.00E-05
1486,9.21E-06,1.93E-05,1.45E-05,0.000108109,-1.62E-05,1.01E-05
1487,-8.09E-08,2.16E-05,1.77E-05,0.000105436,-1.15E-05,8.29E-06
1488,-1.16E-05,1.79E-05,1.82E-05,2.09E-05,-7.40E-06,5.87E-06
1489,-1.39E-05,1.15E-05,1.36E-05,-5.13E-05,-7.99E-06,7.76E-06
1490,-5.10E-06,8.48E-06,5.61E-06,-5.96E-05,-1.22E-05,1.25E-05
1491,3.77E-06,1.09E-05,4.17E-06,5.63E-06,-1.54E-05,1.42E-05
1492,6.03E-06,1.68E-05,9.34E-06,8.90E-05,-1.43E-05,1.34E-05
1493,5.90E-08,2.19E-05,1.59E-05,9.46E-05,-1.11E-05,1.18E-05
1494,-1.24E-05,2.32E-05,2.24E-05,1.92E-05,-1.04E-05,1.00E-05
1495,-2.02E-05,2.25E-05,2.14E-05,-4.08E-05,-1.22E-05,1.01E-05
1496,-1.79E-05,2.14E-05,1.17E-05,-4.81E-05,-1.23E-05,1.14E-05
1497,-1.37E-05,2.00E-05,7.40E-06,2.40E-06,-1.04E-05,1.38E-05
1498,-1.35E-05,1.91E-05,1.05E-05,8.26E-05,-1.10E-05,1.74E-05
1499,-2.18E-05,1.52E-05,1.24E-05,0.000101599,-1.69E-05,1.60E-05
1500,-3.52E-05,7.12E-06,1.67E-05,3.91E-05,-2.54E-05,7.88E-06
1501,-3.68E-05,3.24E-06,2.19E-05,-8.56E-06,-2.86E-05,5.98E-06
1502,-2.61E-05,7.08E-06,2.06E-05,9.46E-07,-2.50E-05,1.32E-05
1503,-2.22E-05,1.41E-05,1.37E-05,2.03E-05,-2.15E-05,1.89E-05
1504,-2.39E-05,1.93E-05,1.21E-05,8.48E-06,-2.14E-05,1.89E-05
1505,-2.10E-05,1.94E-05,2.00E-05,1.02E-05,-1.99E-05,1.52E-05
1506,-1.33E-05,1.61E-05,2.77E-05,7.45E-05,-1.06E-05,1.55E-05
1507,-9.22E-06,1.37E-05,3.01E-05,0.000140446,1.99E-06,1.99E-05
1508,-2.03E-05,1.37E-05,3.25E-05,0.000106177,8.83E-06,2.35E-05
1509,-3.60E-05,1.47E-05,3.48E-05,2.09E-05,8.30E-06,2.76E-05
1510,-3.56E-05,1.47E-05,2.65E-05,-2.88E-05,3.29E-06,3.47E-05
1511,-2.18E-05,1.28E-05,1.39E-05,-1.87E-05,-1.46E-06,4.18E-05
1512,-9.58E-06,1.13E-05,1.29E-05,5.39E-05,-1.94E-06,4.69E-05
1513,-7.23E-06,1.13E-05,1.91E-05,0.000131279,9.05E-07,4.90E-05
1514,-1.34E-05,1.02E-05,2.49E-05,0.000123548,2.17E-06,4.45E-05
1515,-1.94E-05,7.93E-06,3.01E-05,4.83E-05,6.50E-11,3.09E-05
1516,-1.60E-05,6.73E-06,2.96E-05,-5.21E-06,-2.66E-06,8.18E-06
1517,-5.21E-06,7.00E-06,2.13E-05,-1.77E-06,-3.93E-06,-1.65E-05
1518,2.49E-06,7.28E-06,1.51E-05,5.95E-05,-5.12E-06,-2.91E-05
1519,1.97E-06,7.91E-06,1.55E-05,0.0001359,-6.65E-06,-2.48E-05
1520,-6.42E-06,9.18E-06,1.74E-05,0.000148093,-7.43E-06,-1.49E-05
1521,-1.93E-05,9.45E-06,1.71E-05,9.31E-05,-7.15E-06,-6.79E-06
1522,-2.48E-05,8.61E-06,1.26E-05,5.37E-05,-6.92E-06,5.95E-07
1523,-1.69E-05,9.62E-06,2.74E-06,5.56E-05,-8.79E-06,8.75E-06
1524,-8.51E-06,1.39E-05,-3.19E-06,0.000107773,-1.33E-05,1.48E-05
1525,-9.04E-06,1.86E-05,2.07E-06,0.000183569,-1.73E-05,1.67E-05
1526,-1.86E-05,1.90E-05,1.01E-05,0.000185718,-2.02E-05,1.51E-05
1527,-3.12E-05,1.44E-05,1.63E-05,0.000101435,-2.18E-05,1.22E-05
1528,-3.30E-05,9.96E-06,1.83E-05,4.03E-05,-1.78E-05,1.07E-05
1529,-2.54E-05,8.90E-06,1.39E-05,4.56E-05,-1.01E-05,9.32E-06
1530,-2.02E-05,9.77E-06,1.49E-06,6.80E-05,-3.11E-06,7.85E-06
1531,-1.55E-05,1.21E-05,-6.67E-06,6.28E-05,-1.94E-06,8.94E-06
1532,-1.09E-05,1.50E-05,2.48E-07,6.73E-05,-1.04E-05,1.24E-05
1533,-1.09E-05,1.71E-05,1.03E-05,0.000117031,-1.83E-05,1.56E-05
1534,-1.71E-05,1.80E-05,1.20E-05,0.000150945,-1.23E-05,1.52E-05
1535,-3.00E-05,1.74E-05,8.92E-06,9.52E-05,2.49E-06,1.03E-05
1536,-4.06E-05,1.69E-05,8.87E-06,1.23E-05,9.21E-06,5.51E-06
1537,-3.53E-05,1.76E-05,4.99E-06,-2.35E-05,4.00E-06,4.78E-06
1538,-1.91E-05,1.80E-05,-4.51E-07,6.72E-07,-3.37E-06,8.47E-06
1539,-5.52E-06,1.82E-05,2.60E-06,8.37E-05,-5.43E-06,1.38E-05
1540,-1.61E-09,1.88E-05,1.08E-05,0.000165615,-4.03E-06,1.60E-05
1541,-1.65E-06,1.83E-05,1.90E-05,0.000156079,-3.54E-06,1.34E-05
1542,-4.84E-06,1.58E-05,2.58E-05,7.49E-05,-3.37E-06,1.03E-05
1543,-9.84E-07,1.28E-05,2.57E-05,1.47E-05,-2.01E-06,1.12E-05
1544,1.02E-05,1.01E-05,1.71E-05,1.60E-05,-1.42E-06,1.47E-05
1545,1.83E-05,8.81E-06,1.23E-05,8.03E-05,-2.79E-06,1.72E-05
1546,1.65E-05,9.41E-06,1.79E-05,0.000157522,-4.20E-06,1.62E-05
1547,4.92E-06,1.00E-05,2.65E-05,0.000156273,-4.02E-06,1.21E-05
1548,-7.63E-06,9.56E-06,3.14E-05,6.91E-05,-2.87E-06,1.03E-05
1549,-6.64E-06,9.60E-06,3.03E-05,-7.56E-06,-4.19E-06,1.39E-05
1550,8.69E-06,1.01E-05,2.41E-05,-2.72E-05,-8.32E-06,1.80E-05
1551,2.10E-05,9.76E-06,2.33E-05,2.02E-05,-1.08E-05,1.90E-05
1552,2.17E-05,1.10E-05,2.84E-05,0.000100987,-1.11E-05,1.67E-05
1553,1.35E-05,1.42E-05,3.30E-05,0.000114466,-1.11E-05,1.15E-05
1554,4.23E-06,1.50E-05,3.95E-05,3.17E-05,-1.05E-05,8.38E-06
1555,6.95E-06,1.40E-05,4.38E-05,-4.13E-05,-9.49E-06,1.24E-05
1556,1.66E-05,1.45E-05,3.92E-05,-3.66E-05,-9.41E-06,1.81E-05
1557,1.77E-05,1.54E-05,2.93E-05,-5.03E-06,-1.10E-05,2.06E-05
1558,1.45E-05,1.56E-05,2.44E-05,-8.18E-06,-1.22E-05,2.10E-05
1559,1.16E-05,1.42E-05,2.68E-05,-3.23E-06,-1.13E-05,1.95E-05
1560,7.12E-06,1.35E-05,3.05E-05,5.53E-05,-9.42E-06,1.74E-05
1561,1.50E-08,1.42E-05,3.11E-05,0.000114653,-7.93E-06,1.42E-05
1562,-1.22E-05,1.28E-05,3.22E-05,8.85E-05,-7.29E-06,1.07E-05
1563,-2.41E-05,1.03E-05,3.25E-05,1.63E-05,-8.29E-06,1.00E-05
1564,-2.35E-05,9.34E-06,2.28E-05,-3.45E-05,-9.21E-06,1.29E-05
1565,-9.45E-06,1.08E-05,9.70E-06,-3.56E-05,-8.19E-06,1.55E-05
1566,5.40E-06,1.44E-05,6.54E-06,3.16E-05,-7.00E-06,1.58E-05
1567,8.97E-06,1.70E-05,1.29E-05,0.000110071,-8.30E-06,1.29E-05
1568,-6.40E-07,1.53E-05,2.20E-05,0.000103434,-1.11E-05,7.62E-06
1569,-1.47E-05,1.18E-05,2.64E-05,2.18E-05,-1.24E-05,5.95E-06
1570,-2.01E-05,9.73E-06,2.14E-05,-4.40E-05,-1.19E-05,1.10E-05
1571,-1.21E-05,9.88E-06,1.35E-05,-4.78E-05,-1.10E-05,1.80E-05
1572,1.54E-06,1.13E-05,1.52E-05,1.57E-05,-1.05E-05,2.20E-05
1573,1.02E-05,1.27E-05,2.36E-05,9.78E-05,-1.12E-05,2.15E-05
1574,7.15E-06,1.17E-05,2.94E-05,0.00011138,-1.20E-05,1.48E-05
1575,-3.04E-06,8.98E-06,3.40E-05,4.77E-05,-9.98E-06,6.56E-06
1576,-5.43E-06,8.04E-06,3.52E-05,-7.72E-06,-5.82E-06,4.63E-06
1577,3.29E-06,7.74E-06,3.05E-05,-1.67E-05,-3.21E-06,8.39E-06
1578,1.23E-05,7.60E-06,3.09E-05,3.50E-05,-2.75E-06,1.23E-05
1579,1.65E-05,9.35E-06,3.74E-05,0.00012006,-3.23E-06,1.48E-05
1580,1.18E-05,1.08E-05,3.91E-05,0.000136449,-4.66E-06,1.41E-05
1581,-2.86E-08,1.05E-05,3.94E-05,5.03E-05,-6.20E-06,1.26E-05
1582,7.73E-08,9.88E-06,4.00E-05,-3.20E-05,-6.53E-06,1.58E-05
1583,1.20E-05,9.19E-06,3.61E-05,-3.37E-05,-6.18E-06,1.92E-05
1584,1.51E-05,9.94E-06,3.04E-05,-1.26E-06,-4.49E-06,1.75E-05
1585,1.37E-05,1.14E-05,3.40E-05,-6.11E-06,-5.41E-07,1.70E-05
1586,1.33E-05,1.09E-05,4.32E-05,-1.35E-05,2.63E-06,1.95E-05
1587,1.11E-05,9.72E-06,4.48E-05,3.51E-05,1.30E-06,2.14E-05
1588,6.27E-06,9.12E-06,4.27E-05,9.18E-05,-4.10E-06,1.99E-05
1589,-4.08E-06,9.91E-06,4.34E-05,6.48E-05,-8.63E-06,1.46E-05
1590,-1.44E-05,1.11E-05,4.24E-05,-4.98E-06,-9.39E-06,1.12E-05
1591,-1.44E-05,1.08E-05,3.07E-05,-4.80E-05,-8.87E-06,1.27E-05
1592,-7.12E-06,8.77E-06,1.65E-05,-4.23E-05,-1.04E-05,1.60E-05
1593,1.07E-06,7.33E-06,1.20E-05,2.31E-05,-1.34E-05,1.68E-05
1594,6.71E-06,6.14E-06,1.50E-05,9.70E-05,-1.48E-05,1.25E-05
1595,5.04E-06,3.77E-06,2.11E-05,9.25E-05,-1.27E-05,5.40E-06
1596,-3.47E-06,2.18E-06,2.62E-05,2.42E-05,-8.44E-06,3.07E-06
1597,-9.86E-06,2.01E-06,2.60E-05,-2.52E-05,-6.18E-06,8.04E-06
1598,-8.17E-06,2.82E-06,2.28E-05,-2.29E-05,-7.94E-06,1.44E-05
1599,-3.06E-06,5.00E-06,2.58E-05,3.39E-05,-1.23E-05,1.67E-05
1600,-7.35E-07,9.04E-06,3.51E-05,0.000105828,-1.56E-05,1.43E-05
1601,-1.76E-06,1.34E-05,4.35E-05,0.000111256,-1.62E-05,8.54E-06
1602,-4.99E-06,1.47E-05,4.65E-05,4.12E-05,-1.52E-05,4.58E-06
1603,-8.40E-06,1.25E-05,3.85E-05,-1.49E-05,-1.36E-05,7.28E-06
1604,-4.31E-06,1.05E-05,2.29E-05,-1.54E-05,-1.28E-05,1.27E-05
1605,3.87E-06,1.05E-05,1.66E-05,4.89E-05,-1.32E-05,1.38E-05
1606,6.67E-06,1.36E-05,2.39E-05,0.00014327,-1.27E-05,1.24E-05
1607,3.53E-07,1.70E-05,3.01E-05,0.000161043,-9.36E-06,1.24E-05
1608,-9.72E-06,1.83E-05,3.04E-05,7.12E-05,-5.46E-06,1.30E-05
1609,-9.19E-06,1.81E-05,2.72E-05,-1.48E-05,-4.18E-06,1.74E-05
1610,5.31E-07,1.67E-05,2.18E-05,-2.02E-05,-5.30E-06,2.08E-05
1611,4.89E-06,1.51E-05,1.85E-05,1.10E-05,-7.76E-06,1.81E-05
1612,4.52E-06,1.25E-05,2.15E-05,1.07E-05,-1.17E-05,1.49E-05
1613,3.27E-06,9.56E-06,2.98E-05,1.52E-05,-1.44E-05,1.57E-05
1614,3.33E-06,1.01E-05,3.67E-05,7.42E-05,-1.40E-05,2.22E-05
1615,4.86E-06,1.37E-05,3.90E-05,0.000131744,-1.22E-05,3.58E-05
1616,-9.56E-07,1.71E-05,3.77E-05,0.000100008,-1.27E-05,5.55E-05
1617,-1.12E-05,1.83E-05,3.29E-05,2.67E-05,-1.56E-05,7.12E-05
1618,-1.06E-05,1.76E-05,2.06E-05,-1.30E-05,-1.64E-05,7.29E-05
1619,6.93E-07,1.48E-05,9.27E-06,2.30E-06,-1.37E-05,5.92E-05
1620,1.01E-05,1.27E-05,1.20E-05,7.43E-05,-1.10E-05,3.45E-05
1621,1.12E-05,1.50E-05,2.36E-05,0.000143068,-1.10E-05,4.83E-06
1622,2.78E-06,1.86E-05,3.47E-05,0.000127238,-1.20E-05,-2.29E-05
1623,-1.24E-05,1.70E-05,4.08E-05,4.96E-05,-1.28E-05,-4.11E-05
1624,-2.20E-05,1.13E-05,3.83E-05,-4.66E-06,-1.18E-05,-4.75E-05
1625,-1.91E-05,8.14E-06,3.04E-05,-2.62E-06,-9.24E-06,-4.59E-05
1626,-1.21E-05,1.03E-05,2.95E-05,5.83E-05,-6.76E-06,-4.00E-05
1627,-1.18E-05,1.47E-05,3.60E-05,0.000132823,-5.26E-06,-2.93E-05
1628,-2.02E-05,1.76E-05,4.25E-05,0.000131917,-4.17E-06,-1.47E-05
1629,-3.06E-05,1.88E-05,4.77E-05,5.07E-05,-2.57E-06,1.47E-06
1630,-3.09E-05,2.01E-05,4.64E-05,-1.35E-05,-1.72E-06,1.39E-05
1631,-1.90E-05,2.39E-05,3.85E-05,-2.33E-05,-3.71E-06,1.58E-05
1632,-1.03E-05,2.86E-05,3.62E-05,2.74E-05,-7.67E-06,1.05E-05
1633,-9.80E-06,3.05E-05,3.95E-05,0.000114028,-1.07E-05,5.95E-06
1634,-1.58E-05,2.76E-05,4.04E-05,0.000132925,-1.07E-05,1.98E-06
1635,-2.65E-05,2.02E-05,4.44E-05,5.12E-05,-9.02E-06,7.13E-07
1636,-2.71E-05,1.39E-05,4.75E-05,-1.54E-05,-7.47E-06,4.99E-06
1637,-1.60E-05,1.24E-05,4.25E-05,-7.49E-06,-7.02E-06,8.54E-06
1638,-9.54E-06,1.16E-05,3.48E-05,1.97E-05,-7.27E-06,8.30E-06
1639,-4.95E-06,7.75E-06,3.25E-05,1.62E-05,-6.67E-06,8.10E-06
1640,2.61E-06,3.95E-06,3.50E-05,2.20E-05,-5.81E-06,9.64E-06
1641,9.34E-06,3.11E-06,3.67E-05,8.26E-05,-4.00E-06,1.29E-05
1642,1.02E-05,2.75E-06,3.78E-05,0.000138062,-2.57E-06,1.36E-05
1643,-2.17E-06,1.81E-06,4.00E-05,0.000100114,-2.62E-06,1.19E-05
1644,-2.02E-05,3.69E-06,4.13E-05,2.28E-05,-4.54E-06,1.53E-05
1645,-2.46E-05,6.99E-06,3.31E-05,-1.27E-05,-8.20E-06,2.32E-05
1646,-1.38E-05,8.74E-06,2.16E-05,1.05E-05,-1.18E-05,2.93E-05
1647,-3.91E-07,1.06E-05,2.25E-05,8.75E-05,-1.25E-05,3.14E-05
1648,6.82E-06,1.44E-05,3.23E-05,0.000161365,-1.06E-05,3.05E-05
1649,3.92E-06,1.79E-05,4.03E-05,0.000148375,-9.40E-06,2.59E-05
1650,-4.26E-06,1.93E-05,4.26E-05,6.34E-05,-9.34E-06,2.06E-05
1651,-7.32E-06,1.91E-05,3.89E-05,-5.46E-06,-9.06E-06,1.89E-05
1652,-4.94E-06,1.77E-05,3.19E-05,-1.35E-05,-8.45E-06,1.92E-05
1653,-5.17E-06,1.64E-05,3.13E-05,4.63E-05,-7.95E-06,1.80E-05
1654,-8.15E-06,1.68E-05,3.81E-05,0.000123863,-7.05E-06,1.40E-05
1655,-1.14E-05,1.95E-05,4.60E-05,0.000126006,-5.44E-06,8.99E-06
1656,-1.56E-05,2.49E-05,5.17E-05,4.65E-05,-2.54E-06,9.45E-06
1657,-1.56E-05,2.99E-05,4.85E-05,-1.63E-05,-6.34E-07,1.68E-05
1658,-8.60E-06,3.00E-05,3.82E-05,-2.03E-05,-3.70E-06,2.03E-05
1659,-1.10E-06,2.58E-05,3.43E-05,3.45E-05,-1.30E-05,1.64E-05
1660,1.74E-06,2.32E-05,3.76E-05,0.00011417,-2.40E-05,1.14E-05
1661,-2.80E-06,2.50E-05,4.04E-05,0.000125528,-3.08E-05,7.78E-06
1662,-1.08E-05,2.64E-05,4.28E-05,4.76E-05,-3.22E-05,6.13E-06
1663,-1.42E-05,2.30E-05,4.01E-05,-1.30E-05,-2.81E-05,8.31E-06
1664,-1.29E-05,1.86E-05,3.10E-05,3.46E-06,-1.82E-05,1.02E-05
1665,-2.03E-05,1.65E-05,2.33E-05,4.26E-05,-4.84E-06,1.02E-05
1666,-2.95E-05,1.50E-05,2.68E-05,4.01E-05,6.89E-06,1.18E-05
1667,-2.60E-05,1.27E-05,3.75E-05,3.82E-05,1.28E-05,1.63E-05
1668,-1.59E-05,1.27E-05,4.34E-05,9.72E-05,1.22E-05,2.20E-05
1669,-9.24E-06,1.54E-05,4.34E-05,0.000162678,8.28E-06,2.32E-05
1670,-1.42E-05,1.45E-05,4.33E-05,0.000137822,5.53E-06,1.85E-05
1671,-2.28E-05,9.75E-06,4.35E-05,6.11E-05,5.01E-06,1.26E-05
1672,-1.86E-05,6.02E-06,3.40E-05,5.44E-06,4.20E-06,1.23E-05
1673,-4.12E-06,3.79E-06,2.04E-05,-8.79E-07,-1.15E-06,1.62E-05
1674,7.03E-06,4.73E-07,1.95E-05,5.88E-05,-9.03E-06,1.81E-05
1675,8.51E-06,-2.83E-06,2.84E-05,0.000136868,-1.42E-05,1.43E-05
1676,2.56E-06,-4.55E-06,3.61E-05,0.00014161,-1.33E-05,6.50E-06
1677,-6.16E-06,-4.65E-06,3.73E-05,7.44E-05,-6.64E-06,1.16E-06
1678,-9.14E-06,-2.67E-06,3.01E-05,1.48E-05,4.08E-07,2.28E-06
1679,-3.57E-06,2.00E-07,2.01E-05,7.60E-06,1.34E-06,6.96E-06
1680,2.66E-06,3.81E-06,2.14E-05,6.63E-05,-4.00E-06,9.27E-06
1681,3.17E-06,7.93E-06,3.19E-05,0.000149096,-9.88E-06,7.84E-06
1682,-7.75E-07,1.06E-05,3.97E-05,0.000160093,-1.29E-05,5.95E-06
1683,-3.01E-06,1.02E-05,4.16E-05,8.03E-05,-1.30E-05,8.61E-06
1684,3.56E-06,8.32E-06,3.48E-05,7.20E-06,-1.16E-05,1.55E-05
1685,1.40E-05,8.22E-06,2.15E-05,-6.79E-06,-1.11E-05,1.89E-05
1686,1.76E-05,1.06E-05,1.94E-05,4.36E-05,-1.42E-05,1.47E-05
1687,1.43E-05,1.17E-05,3.08E-05,0.000122587,-2.00E-05,9.31E-06
1688,5.60E-06,9.04E-06,4.03E-05,0.000131809,-2.38E-05,6.71E-06
1689,-5.42E-06,7.13E-06,4.55E-05,4.96E-05,-2.43E-05,3.80E-06
1690,-4.63E-06,1.03E-05,4.46E-05,-1.33E-05,-2.27E-05,1.92E-06
1691,5.94E-06,1.43E-05,3.76E-05,9.18E-06,-1.94E-05,3.34E-06
1692,3.31E-06,1.38E-05,3.23E-05,5.83E-05,-1.49E-05,7.25E-06
1693,-7.84E-06,8.50E-06,3.51E-05,4.79E-05,-9.01E-06,1.32E-05
1694,-9.45E-06,3.65E-06,4.27E-05,2.09E-05,-3.74E-06,1.78E-05
1695,-2.44E-06,5.57E-06,4.53E-05,5.88E-05,-9.42E-07,1.90E-05
1696,6.39E-08,9.77E-06,4.26E-05,0.000118138,-2.58E-06,1.74E-05
1697,-1.33E-05,8.46E-06,3.99E-05,8.93E-05,-8.40E-06,1.68E-05
1698,-3.35E-05,2.60E-06,3.79E-05,4.85E-06,-1.53E-05,1.92E-05
1699,-4.07E-05,-1.23E-07,2.85E-05,-4.39E-05,-1.86E-05,2.28E-05
1700,-3.21E-05,2.49E-06,1.67E-05,-2.61E-05,-1.70E-05,2.70E-05
1701,-2.08E-05,7.54E-06,1.43E-05,5.76E-05,-1.27E-05,3.16E-05
1702,-1.61E-05,1.12E-05,1.79E-05,0.000142287,-8.97E-06,3.30E-05
1703,-2.02E-05,1.07E-05,2.24E-05,0.000138039,-7.20E-06,2.81E-05
1704,-2.80E-05,8.10E-06,2.59E-05,6.09E-05,-5.13E-06,2.31E-05
1705,-2.59E-05,6.47E-06,2.40E-05,5.75E-07,-2.15E-06,2.09E-05
1706,-1.05E-05,6.24E-06,1.76E-05,3.55E-07,-1.02E-06,1.58E-05
1707,3.51E-06,6.46E-06,1.80E-05,6.49E-05,-3.58E-06,3.12E-06
1708,4.14E-06,7.15E-06,2.70E-05,0.00014316,-7.45E-06,-1.29E-05
1709,-5.86E-06,6.48E-06,3.86E-05,0.000141553,-1.05E-05,-2.48E-05
1710,-1.68E-05,3.77E-06,4.79E-05,5.12E-05,-1.18E-05,-2.62E-05
1711,-1.73E-05,3.00E-06,4.66E-05,-3.05E-05,-1.13E-05,-1.56E-05
1712,-5.79E-06,6.87E-06,3.37E-05,-5.10E-05,-1.01E-05,-5.28E-07
1713,7.67E-06,1.30E-05,2.66E-05,2.72E-06,-1.02E-05,8.14E-06
1714,1.58E-05,1.76E-05,3.27E-05,9.46E-05,-9.83E-06,8.62E-06
1715,1.37E-05,1.82E-05,3.95E-05,0.000118257,-6.57E-06,4.42E-06
1716,7.36E-06,1.54E-05,4.03E-05,4.34E-05,-3.64E-06,6.97E-07
1717,1.39E-05,1.63E-05,3.66E-05,-2.71E-05,-7.50E-06,1.89E-06
1718,2.88E-05,2.22E-05,3.07E-05,-2.95E-05,-1.66E-05,5.59E-06
1719,3.02E-05,2.53E-05,2.79E-05,-5.91E-06,-2.25E-05,7.85E-06
1720,2.20E-05,2.33E-05,3.20E-05,-4.32E-06,-2.19E-05,1.07E-05
1721,1.42E-05,1.94E-05,3.73E-05,8.77E-06,-1.91E-05,1.39E-05
1722,8.44E-06,1.67E-05,3.51E-05,6.68E-05,-1.87E-05,1.38E-05
1723,3.74E-06,1.62E-05,2.88E-05,0.000113886,-1.89E-05,9.70E-06
1724,-7.23E-06,1.60E-05,2.70E-05,7.33E-05,-1.77E-05,6.14E-06
1725,-1.98E-05,1.40E-05,2.81E-05,-5.79E-06,-1.63E-05,1.04E-05
1726,-1.95E-05,1.04E-05,2.08E-05,-5.11E-05,-1.53E-05,2.22E-05
1727,-8.38E-06,8.06E-06,9.34E-06,-3.87E-05,-1.46E-05,3.05E-05
1728,-4.72E-07,1.02E-05,6.89E-06,3.80E-05,-1.20E-05,2.85E-05
1729,-2.39E-06,1.56E-05,1.15E-05,0.00011916,-6.03E-06,2.04E-05
1730,-1.21E-05,1.84E-05,1.84E-05,0.000109625,-7.19E-07,1.16E-05
1731,-2.31E-05,1.62E-05,2.47E-05,2.39E-05,-7.54E-07,7.12E-06
1732,-2.51E-05,1.27E-05,2.26E-05,-4.31E-05,-5.79E-06,9.04E-06
1733,-1.82E-05,1.23E-05,1.23E-05,-4.16E-05,-1.09E-05,1.32E-05
1734,-1.41E-05,1.35E-05,6.76E-06,3.24E-05,-1.10E-05,1.38E-05
1735,-1.81E-05,1.26E-05,8.28E-06,0.000123005,-5.81E-06,1.03E-05
1736,-2.59E-05,9.39E-06,1.06E-05,0.00013062,2.13E-06,6.78E-06
1737,-3.15E-05,7.55E-06,1.48E-05,4.65E-05,9.45E-06,8.05E-06
1738,-2.79E-05,9.26E-06,1.64E-05,-2.15E-05,9.20E-06,1.39E-05
1739,-1.54E-05,1.14E-05,9.18E-06,-2.14E-05,-5.69E-07,1.93E-05
1740,-4.63E-06,1.24E-05,5.47E-06,4.37E-05,-1.01E-05,2.04E-05
1741,5.49E-07,1.41E-05,1.20E-05,0.000130234,-1.33E-05,1.77E-05
1742,-2.08E-06,1.51E-05,1.89E-05,0.000148598,-1.30E-05,1.22E-05
1743,-1.51E-05,1.39E-05,2.34E-05,7.94E-05,-1.02E-05,8.89E-06
1744,-2.26E-05,1.34E-05,2.60E-05,1.64E-05,-7.57E-06,1.23E-05
1745,-1.49E-05,1.49E-05,2.33E-05,1.75E-05,-7.79E-06,1.58E-05
1746,-7.12E-06,1.65E-05,1.79E-05,4.41E-05,-7.18E-06,1.76E-05
1747,-2.00E-06,1.45E-05,1.97E-05,4.43E-05,-4.41E-06,2.15E-05
1748,3.51E-06,9.99E-06,2.87E-05,5.17E-05,-7.74E-07,2.49E-05
1749,7.44E-06,9.80E-06,3.47E-05,0.000110603,2.38E-06,2.58E-05
1750,6.32E-06,1.32E-05,3.37E-05,0.000167124,1.36E-06,2.25E-05
1751,-5.03E-06,1.49E-05,3.14E-05,0.000129524,-2.71E-06,1.74E-05
1752,-1.97E-05,1.35E-05,3.11E-05,3.99E-05,-4.20E-06,1.65E-05
1753,-2.10E-05,1.16E-05,2.44E-05,-1.87E-05,-1.84E-06,2.08E-05
1754,-8.96E-06,1.13E-05,1.62E-05,-1.30E-05,-9.43E-07,2.39E-05
1755,9.97E-07,1.41E-05,1.55E-05,6.24E-05,-4.84E-06,2.21E-05
1756,1.11E-06,1.97E-05,1.73E-05,0.000144228,-1.16E-05,1.73E-05
1757,-8.19E-06,2.40E-05,2.07E-05,0.000137714,-1.75E-05,1.24E-05
1758,-1.77E-05,2.30E-05,2.55E-05,5.56E-05,-1.85E-05,9.82E-06
1759,-1.64E-05,1.88E-05,2.47E-05,-1.09E-05,-1.59E-05,1.18E-05
1760,-7.82E-06,1.50E-05,1.88E-05,-1.65E-05,-1.39E-05,1.70E-05
1761,-1.96E-06,1.26E-05,1.87E-05,4.33E-05,-1.10E-05,2.01E-05
1762,2.04E-06,1.16E-05,2.50E-05,0.00012292,-1.88E-06,1.94E-05
1763,3.35E-06,8.95E-06,3.05E-05,0.000131918,1.12E-05,1.66E-05
1764,-3.72E-06,4.00E-06,3.18E-05,5.55E-05,1.88E-05,1.53E-05
1765,-1.05E-05,9.76E-07,2.15E-05,-1.58E-05,1.63E-05,2.01E-05
1766,-7.91E-06,2.94E-06,2.45E-06,-3.16E-05,5.48E-06,3.31E-05
1767,-6.84E-06,7.97E-06,-4.11E-06,2.12E-05,-7.19E-06,5.47E-05
1768,-1.17E-05,1.27E-05,5.86E-06,0.000110409,-1.36E-05,7.57E-05
1769,-1.64E-05,1.58E-05,1.90E-05,0.000130128,-1.30E-05,8.03E-05
1770,-1.74E-05,1.48E-05,2.93E-05,4.85E-05,-1.01E-05,6.80E-05
1771,-1.25E-05,1.15E-05,3.13E-05,-1.98E-05,-8.14E-06,4.83E-05
1772,-5.15E-06,1.19E-05,2.35E-05,-7.23E-06,-8.41E-06,2.51E-05
1773,-2.10E-06,1.58E-05,1.49E-05,2.69E-05,-1.12E-05,4.31E-07
1774,1.59E-06,1.92E-05,1.75E-05,2.21E-05,-1.18E-05,-1.94E-05
1775,6.43E-06,2.05E-05,2.79E-05,2.50E-05,-9.53E-06,-3.14E-05
1776,6.63E-06,2.23E-05,3.23E-05,8.64E-05,-9.42E-06,-3.79E-05
1777,4.14E-06,2.45E-05,2.96E-05,0.000148311,-1.32E-05,-4.38E-05
1778,-3.59E-06,2.62E-05,2.64E-05,0.000114948,-1.67E-05,-4.59E-05
1779,-1.28E-05,2.58E-05,2.50E-05,3.05E-05,-1.74E-05,-3.59E-05
1780,-1.09E-05,2.35E-05,1.78E-05,-1.90E-05,-1.65E-05,-1.61E-05
1781,-1.52E-06,2.31E-05,9.53E-06,-4.63E-06,-1.60E-05,2.19E-07
1782,3.47E-06,2.54E-05,1.19E-05,7.10E-05,-1.68E-05,5.68E-06
1783,3.20E-06,2.78E-05,2.05E-05,0.000144053,-1.80E-05,4.10E-06
1784,2.20E-06,2.68E-05,2.71E-05,0.00013076,-1.79E-05,1.48E-06
1785,2.78E-06,2.22E-05,2.92E-05,5.21E-05,-1.45E-05,1.20E-06
1786,8.30E-06,1.56E-05,2.64E-05,-4.55E-06,-9.87E-06,2.57E-06
1787,1.68E-05,1.03E-05,2.08E-05,-4.30E-06,-8.60E-06,4.02E-06
1788,1.93E-05,9.06E-06,2.00E-05,5.27E-05,-1.00E-05,5.58E-06
1789,1.20E-05,1.22E-05,2.38E-05,0.000125579,-1.03E-05,5.98E-06
1790,-5.89E-07,1.58E-05,2.71E-05,0.000132258,-1.02E-05,1.79E-06
1791,-1.20E-05,1.63E-05,2.77E-05,5.85E-05,-1.10E-05,-2.73E-06
1792,-1.49E-05,1.45E-05,2.25E-05,-8.94E-06,-1.20E-05,1.37E-06
1793,-6.80E-06,1.34E-05,1.56E-05,-2.18E-05,-1.23E-05,1.28E-05
1794,2.61E-06,1.37E-05,1.94E-05,3.77E-05,-1.27E-05,2.05E-05
1795,4.14E-06,1.52E-05,3.02E-05,0.000136291,-1.10E-05,1.97E-05
1796,-3.68E-06,1.58E-05,3.61E-05,0.000156611,-6.63E-06,1.23E-05
1797,-1.56E-05,1.30E-05,4.05E-05,6.76E-05,-5.69E-06,6.67E-06
1798,-2.01E-05,7.68E-06,4.07E-05,-7.32E-06,-1.09E-05,9.09E-06
1799,-1.54E-05,3.87E-06,2.94E-05,-4.87E-07,-1.62E-05,1.17E-05
1800,-1.18E-05,4.79E-06,1.27E-05,2.70E-05,-1.70E-05,9.78E-06
1801,-8.49E-06,6.82E-06,6.57E-06,8.75E-06,-1.43E-05,8.67E-06
1802,-4.59E-06,5.90E-06,1.28E-05,-8.41E-06,-1.05E-05,8.24E-06
1803,-3.98E-06,4.81E-06,1.80E-05,4.05E-05,-7.11E-06,9.27E-06
1804,-4.71E-06,5.02E-06,1.57E-05,0.000107196,-4.11E-06,1.29E-05
1805,-8.84E-06,3.77E-06,1.25E-05,9.42E-05,-2.59E-06,1.53E-05
1806,-1.56E-05,1.94E-06,1.22E-05,3.59E-05,-2.49E-06,1.67E-05
1807,-1.48E-05,1.62E-06,5.08E-06,3.98E-06,-3.26E-06,2.04E-05
1808,-6.03E-06,3.33E-06,-5.31E-06,1.87E-05,-4.96E-06,2.53E-05
1809,4.04E-07,5.96E-06,-2.83E-06,8.52E-05,-6.67E-06,2.74E-05
1810,-8.37E-07,8.17E-06,8.84E-06,0.000151268,-8.17E-06,2.66E-05
1811,-8.97E-06,9.24E-06,1.67E-05,0.00013409,-9.83E-06,2.40E-05
1812,-1.94E-05,8.13E-06,1.83E-05,5.42E-05,-1.07E-05,2.16E-05
1813,-2.36E-05,4.78E-06,1.64E-05,2.28E-06,-9.79E-06,2.04E-05
1814,-1.79E-05,9.89E-07,1.42E-05,1.38E-05,-9.11E-06,2.17E-05
1815,-8.12E-06,-4.90E-07,1.77E-05,8.18E-05,-1.08E-05,2.46E-05
1816,-5.62E-07,2.35E-06,2.53E-05,0.000153651,-1.22E-05,2.46E-05
1817,1.40E-06,9.04E-06,3.06E-05,0.000148357,-1.11E-05,1.98E-05
1818,-3.27E-06,1.58E-05,3.22E-05,6.71E-05,-1.04E-05,1.67E-05
1819,-7.93E-06,1.96E-05,2.96E-05,1.63E-06,-1.21E-05,1.88E-05
1820,-8.26E-06,2.08E-05,2.54E-05,-6.97E-06,-1.47E-05,2.09E-05
1821,-8.88E-06,1.99E-05,2.95E-05,4.70E-05,-1.47E-05,1.64E-05
1822,-1.19E-05,1.79E-05,3.96E-05,0.000131085,-1.15E-05,6.32E-06
1823,-2.02E-05,1.59E-05,4.42E-05,0.000144559,-9.00E-06,-2.44E-06
1824,-3.16E-05,1.47E-05,4.62E-05,5.08E-05,-1.06E-05,-3.02E-06
1825,-3.01E-05,1.37E-05,4.63E-05,-3.59E-05,-1.33E-05,5.79E-06
1826,-1.65E-05,1.23E-05,4.13E-05,-3.28E-05,-1.48E-05,1.25E-05
1827,-7.87E-06,1.30E-05,3.56E-05,8.52E-06,-1.39E-05,1.12E-05
1828,-5.31E-06,1.60E-05,3.50E-05,1.45E-05,-1.08E-05,9.02E-06
1829,-6.32E-06,1.86E-05,4.06E-05,1.88E-05,-8.76E-06,8.74E-06
1830,-1.15E-05,1.89E-05,4.52E-05,7.04E-05,-7.05E-06,9.49E-06
1831,-1.94E-05,1.68E-05,4.36E-05,0.000119523,-5.01E-06,6.99E-06
1832,-3.26E-05,1.40E-05,4.08E-05,8.51E-05,-4.41E-06,-1.06E-06
1833,-4.55E-05,1.21E-05,3.91E-05,1.61E-05,-5.95E-06,-6.55E-06
1834,-4.50E-05,9.51E-06,2.99E-05,-1.57E-05,-9.11E-06,-3.07E-06
1835,-3.57E-05,6.55E-06,1.50E-05,2.20E-06,-1.28E-05,4.94E-06
1836,-2.94E-05,6.35E-06,8.27E-06,7.22E-05,-1.44E-05,1.24E-05
1837,-2.75E-05,8.33E-06,1.04E-05,0.000144611,-1.38E-05,1.70E-05
1838,-2.82E-05,1.02E-05,1.57E-05,0.000134571,-1.28E-05,1.72E-05
1839,-2.93E-05,1.02E-05,2.24E-05,4.90E-05,-1.10E-05,1.58E-05
1840,-2.44E-05,6.87E-06,2.64E-05,-2.30E-05,-8.54E-06,1.65E-05
1841,-1.33E-05,4.10E-06,2.50E-05,-3.12E-05,-9.17E-06,1.87E-05
1842,-4.54E-06,6.57E-06,2.57E-05,2.90E-05,-1.35E-05,2.10E-05
1843,-1.94E-06,1.22E-05,3.04E-05,0.00010689,-1.58E-05,2.31E-05
1844,-3.51E-06,1.55E-05,3.37E-05,0.000112922,-1.37E-05,2.40E-05
1845,-5.02E-06,1.48E-05,3.55E-05,3.57E-05,-1.18E-05,2.44E-05
1846,2.83E-07,1.35E-05,3.41E-05,-3.16E-05,-1.36E-05,2.68E-05
1847,1.24E-05,1.39E-05,2.91E-05,-4.10E-05,-1.92E-05,2.83E-05
1848,2.29E-05,1.53E-05,3.01E-05,1.55E-05,-2.65E-05,2.52E-05
1849,2.71E-05,1.64E-05,3.78E-05,0.00010292,-3.40E-05,2.03E-05
1850,2.22E-05,1.48E-05,3.98E-05,0.000118959,-3.64E-05,1.35E-05
1851,1.21E-05,1.20E-05,4.01E-05,3.63E-05,-2.87E-05,7.97E-06
1852,1.04E-05,1.28E-05,4.18E-05,-3.76E-05,-1.28E-05,1.12E-05
1853,1.85E-05,1.58E-05,3.92E-05,-3.56E-05,3.88E-07,1.69E-05
1854,2.35E-05,1.59E-05,3.63E-05,-6.27E-06,5.55E-06,1.84E-05
1855,2.28E-05,1.36E-05,4.10E-05,-1.10E-05,1.05E-05,1.82E-05
1856,1.72E-05,1.25E-05,4.95E-05,-1.12E-05,1.43E-05,1.76E-05
1857,1.11E-05,1.33E-05,5.02E-05,4.77E-05,1.11E-05,1.62E-05
1858,1.02E-05,1.42E-05,4.50E-05,0.00011525,3.54E-06,9.18E-06
1859,6.68E-06,1.30E-05,4.34E-05,9.31E-05,-1.78E-06,-2.16E-06
1860,-2.34E-06,1.14E-05,4.63E-05,1.99E-05,-1.52E-06,-6.79E-06
1861,-4.24E-06,1.05E-05,3.99E-05,-2.44E-05,1.11E-06,2.24E-07
1862,2.67E-06,1.04E-05,2.60E-05,-1.19E-05,8.08E-07,8.67E-06
1863,7.92E-06,1.26E-05,2.12E-05,6.40E-05,-1.50E-06,1.03E-05
1864,5.28E-06,1.51E-05,2.54E-05,0.000148272,-3.80E-06,8.51E-06
1865,-6.28E-06,1.58E-05,3.03E-05,0.000146132,-6.34E-06,7.58E-06
1866,-2.00E-05,1.51E-05,3.12E-05,6.52E-05,-7.61E-06,8.92E-06
1867,-2.53E-05,1.37E-05,2.50E-05,1.18E-06,-5.82E-06,1.28E-05
1868,-2.03E-05,1.12E-05,1.65E-05,6.02E-07,-9.77E-07,1.75E-05
1869,-1.21E-05,9.76E-06,1.66E-05,6.10E-05,4.35E-06,1.91E-05
1870,-6.08E-06,1.08E-05,2.20E-05,0.000132496,8.93E-06,1.57E-05
1871,-6.60E-06,1.32E-05,2.46E-05,0.000132718,1.12E-05,8.41E-06
1872,-1.31E-05,1.37E-05,2.63E-05,5.59E-05,8.67E-06,3.38E-06
1873,-1.67E-05,1.22E-05,2.43E-05,-4.22E-06,1.41E-06,5.46E-06
1874,-1.28E-05,1.07E-05,1.70E-05,-8.04E-06,-5.86E-06,1.16E-05
1875,-7.69E-06,9.51E-06,1.75E-05,4.23E-05,-8.66E-06,1.66E-05
1876,-3.71E-06,8.86E-06,2.63E-05,0.000115936,-7.26E-06,1.79E-05
1877,-5.18E-06,8.96E-06,2.97E-05,0.000124293,-5.46E-06,1.42E-05
1878,-1.43E-05,9.46E-06,3.00E-05,4.10E-05,-6.25E-06,1.03E-05
1879,-1.98E-05,1.09E-05,3.23E-05,-2.92E-05,-1.02E-05,1.29E-05
1880,-1.72E-05,1.23E-05,3.34E-05,-2.46E-05,-1.32E-05,1.91E-05
1881,-1.18E-05,1.26E-05,2.95E-05,-1.62E-06,-1.24E-05,2.38E-05
1882,-3.06E-07,1.08E-05,2.87E-05,-1.34E-05,-1.05E-05,2.55E-05
1883,1.35E-05,6.34E-06,3.79E-05,-1.15E-05,-1.10E-05,2.16E-05
1884,2.14E-05,2.15E-06,4.41E-05,4.76E-05,-1.30E-05,1.53E-05
1885,2.24E-05,1.55E-06,4.13E-05,0.000101603,-1.31E-05,9.04E-06
1886,1.20E-05,2.76E-06,3.88E-05,6.43E-05,-1.04E-05,3.47E-06
1887,-4.25E-06,3.40E-06,3.85E-05,-1.25E-05,-7.21E-06,4.34E-06
1888,-1.02E-05,5.13E-06,3.02E-05,-5.48E-05,-7.16E-06,1.04E-05
1889,-4.07E-06,8.10E-06,1.94E-05,-4.43E-05,-8.83E-06,1.42E-05
1890,2.11E-06,1.04E-05,1.91E-05,2.65E-05,-8.54E-06,1.45E-05
1891,3.30E-06,1.14E-05,2.35E-05,0.000109713,-6.03E-06,1.38E-05
1892,2.07E-07,1.12E-05,2.59E-05,0.000112987,-4.78E-06,1.12E-05
1893,-5.28E-06,1.10E-05,2.73E-05,3.72E-05,-6.82E-06,8.23E-06
1894,-7.64E-06,1.19E-05,2.54E-05,-2.85E-05,-9.19E-06,9.39E-06
1895,-3.99E-06,1.30E-05,1.98E-05,-3.05E-05,-9.09E-06,1.36E-05
1896,9.86E-07,1.39E-05,1.95E-05,3.62E-05,-9.14E-06,1.68E-05
1897,9.32E-07,1.53E-05,2.59E-05,0.000117331,-1.25E-05,1.88E-05
1898,-6.38E-06,1.51E-05,3.42E-05,0.000125517,-1.61E-05,2.13E-05
1899,-1.66E-05,1.37E-05,4.02E-05,5.56E-05,-1.58E-05,2.43E-05
1900,-2.06E-05,1.54E-05,3.46E-05,-8.80E-07,-1.27E-05,2.65E-05
1901,-1.57E-05,1.88E-05,1.62E-05,-4.94E-06,-1.03E-05,2.68E-05
1902,-9.24E-06,2.04E-05,4.13E-06,4.94E-05,-1.15E-05,2.68E-05
1903,-3.95E-06,2.03E-05,9.19E-06,0.000134394,-1.49E-05,2.82E-05
1904,-3.84E-06,1.87E-05,2.13E-05,0.000157118,-1.61E-05,2.52E-05
1905,-1.03E-05,1.54E-05,3.12E-05,8.50E-05,-1.56E-05,1.06E-05
1906,-1.05E-05,1.32E-05,3.44E-05,1.48E-05,-1.40E-05,-1.08E-05
1907,9.69E-07,1.26E-05,3.40E-05,2.17E-05,-1.06E-05,-2.25E-05
1908,8.00E-06,1.34E-05,3.39E-05,6.10E-05,-7.92E-06,-1.46E-05
1909,3.01E-06,1.41E-05,3.52E-05,4.75E-05,-5.14E-06,9.83E-07
1910,-3.46E-06,1.37E-05,4.00E-05,2.26E-05,-3.34E-07,1.03E-05
1911,-4.94E-06,1.62E-05,4.52E-05,6.52E-05,2.99E-06,2.08E-05
1912,-4.39E-06,2.16E-05,4.52E-05,0.000132682,3.35E-07,4.17E-05
1913,-1.15E-05,2.39E-05,4.41E-05,0.000122742,-5.41E-06,6.15E-05
1914,-2.25E-05,2.06E-05,4.68E-05,6.05E-05,-8.37E-06,6.66E-05
1915,-2.25E-05,1.69E-05,4.56E-05,1.32E-05,-7.07E-06,5.50E-05
1916,-1.09E-05,1.56E-05,4.01E-05,9.63E-06,-3.50E-06,3.15E-05
1917,-4.62E-08,1.70E-05,3.65E-05,6.97E-05,-1.43E-06,5.05E-06
1918,2.00E-06,1.89E-05,3.51E-05,0.000143067,-2.14E-06,-1.73E-05
1919,-5.12E-06,1.68E-05,3.82E-05,0.000138233,-3.33E-06,-3.23E-05
1920,-1.43E-05,1.09E-05,4.34E-05,6.43E-05,-3.38E-06,-3.95E-05
1921,-1.72E-05,7.04E-06,4.09E-05,8.62E-06,-5.52E-06,-4.03E-05
1922,-1.36E-05,7.16E-06,3.23E-05,8.62E-06,-1.12E-05,-3.82E-05
1923,-7.45E-06,7.79E-06,3.00E-05,6.45E-05,-1.68E-05,-3.28E-05
1924,-1.30E-06,8.39E-06,3.20E-05,0.00013592,-1.79E-05,-2.11E-05
1925,1.68E-07,9.50E-06,3.23E-05,0.000140259,-1.38E-05,-5.09E-06
1926,-5.76E-06,9.42E-06,3.31E-05,6.34E-05,-7.96E-06,9.74E-06
1927,-7.46E-06,8.65E-06,3.14E-05,-3.11E-06,-4.00E-06,2.00E-05
1928,6.34E-07,8.99E-06,2.39E-05,-8.35E-06,-2.61E-06,2.42E-05
1929,5.28E-06,9.90E-06,1.90E-05,5.24E-05,-2.72E-06,2.36E-05
