Time_Index,DELTOID_Affected,DELTOID_NonAffected,BICEPS_Affected,BICEPS_NonAffected,FOREARM_Affected,FOREARM_NonAffected
1,4.66E-06,8.67E-06,2.70E-05,1.72E-05,-1.33E-05,1.36E-05
2,3.54E-06,1.15E-05,1.61E-05,9.80E-06,-1.17E-05,1.49E-05
3,-3.76E-07,1.01E-05,1.68E-05,3.80E-06,-9.28E-06,1.58E-05
4,-2.05E-06,8.55E-06,2.43E-05,5.00E-05,-8.03E-06,1.60E-05
5,-2.99E-06,1.14E-05,2.95E-05,0.000106849,-8.51E-06,1.29E-05
6,-1.03E-05,1.64E-05,3.17E-05,8.70E-05,-9.02E-06,6.20E-06
7,-2.05E-05,1.90E-05,3.14E-05,1.52E-05,-7.48E-06,3.30E-06
8,-2.12E-05,1.83E-05,2.32E-05,-2.78E-05,-4.91E-06,7.44E-06
9,-1.15E-05,1.57E-05,8.95E-06,-1.81E-05,-5.87E-06,1.34E-05
10,-6.90E-07,1.43E-05,3.14E-06,4.34E-05,-1.09E-05,1.72E-05
11,1.86E-06,1.62E-05,8.73E-06,0.000116274,-1.49E-05,1.79E-05
12,-7.65E-06,1.82E-05,1.87E-05,0.000120615,-1.61E-05,1.59E-05
13,-1.93E-05,1.69E-05,2.44E-05,5.30E-05,-1.55E-05,1.46E-05
14,-2.03E-05,1.41E-05,1.74E-05,-7.75E-06,-1.41E-05,1.68E-05
15,-1.21E-05,1.27E-05,3.96E-06,-1.46E-05,-1.27E-05,1.98E-05
16,-6.67E-06,1.39E-05,-7.54E-08,3.90E-05,-1.09E-05,1.91E-05
17,-8.95E-06,1.73E-05,5.10E-06,0.000115313,-8.11E-06,1.51E-05
18,-1.61E-05,2.05E-05,9.53E-06,0.000128659,-6.97E-06,1.15E-05
19,-2.14E-05,2.09E-05,1.44E-05,5.90E-05,-8.77E-06,1.05E-05
20,-1.68E-05,1.93E-05,1.79E-05,-9.26E-06,-1.11E-05,1.20E-05
21,-4.35E-06,1.69E-05,1.38E-05,-2.47E-05,-1.17E-05,1.55E-05
22,5.56E-06,1.51E-05,1.16E-05,2.20E-05,-1.16E-05,1.90E-05
23,7.89E-06,1.61E-05,1.78E-05,0.000112045,-1.13E-05,1.85E-05
24,-1.85E-06,1.93E-05,2.44E-05,0.000151585,-1.04E-05,1.41E-05
25,-1.71E-05,1.93E-05,3.23E-05,9.48E-05,-1.04E-05,1.12E-05
26,-1.67E-05,1.49E-05,4.02E-05,3.05E-05,-1.06E-05,1.25E-05
27,-2.29E-06,1.24E-05,3.77E-05,2.78E-05,-9.61E-06,1.29E-05
28,5.43E-06,1.40E-05,2.94E-05,4.36E-05,-8.50E-06,1.24E-05
29,5.70E-06,1.53E-05,3.27E-05,2.63E-05,-7.06E-06,1.33E-05
30,8.02E-06,1.55E-05,4.53E-05,1.73E-05,-6.41E-06,1.32E-05
31,1.21E-05,1.59E-05,4.89E-05,6.78E-05,-7.70E-06,1.15E-05
32,9.96E-06,1.70E-05,4.15E-05,0.000126254,-8.77E-06,9.25E-06
33,-3.08E-06,1.72E-05,3.63E-05,0.000103028,-8.28E-06,7.49E-06
34,-1.41E-05,1.61E-05,3.81E-05,2.72E-05,-8.14E-06,8.79E-06
35,-8.84E-06,1.47E-05,3.21E-05,-2.08E-05,-9.74E-06,1.37E-05
36,4.15E-06,1.40E-05,1.60E-05,-1.64E-05,-1.24E-05,1.70E-05
37,8.28E-06,1.46E-05,9.40E-06,4.39E-05,-1.37E-05,1.59E-05
38,-4.25E-07,1.67E-05,1.71E-05,0.000115619,-1.28E-05,1.07E-05
39,-1.58E-05,1.82E-05,2.85E-05,0.000113357,-1.16E-05,3.21E-06
40,-2.57E-05,1.69E-05,3.60E-05,3.89E-05,-1.12E-05,-9.40E-07
41,-2.10E-05,1.40E-05,3.37E-05,-1.67E-05,-1.03E-05,1.90E-06
42,-7.99E-06,1.15E-05,2.31E-05,-5.07E-06,-7.37E-06,8.50E-06
43,-7.12E-07,1.15E-05,1.79E-05,6.37E-05,-3.52E-06,1.44E-05
44,-4.61E-06,1.35E-05,2.49E-05,0.000137398,-4.95E-07,1.84E-05
45,-1.66E-05,1.40E-05,3.66E-05,0.000136548,1.03E-06,1.98E-05
46,-2.75E-05,1.15E-05,4.54E-05,5.65E-05,1.15E-06,1.90E-05
47,-2.47E-05,8.51E-06,4.34E-05,-9.45E-06,-8.69E-07,1.79E-05
48,-1.06E-05,8.42E-06,3.08E-05,-1.47E-05,-4.51E-06,1.61E-05
49,-2.90E-06,1.25E-05,2.48E-05,3.48E-05,-6.68E-06,1.29E-05
50,-7.57E-06,1.70E-05,3.29E-05,0.000112083,-6.20E-06,9.59E-06
51,-1.82E-05,1.71E-05,4.14E-05,0.000133463,-4.69E-06,5.17E-06
52,-2.38E-05,1.37E-05,4.57E-05,6.30E-05,-4.37E-06,2.34E-06
53,-1.55E-05,1.17E-05,4.72E-05,-7.81E-06,-7.42E-06,7.74E-06
54,-3.96E-06,1.19E-05,4.15E-05,-4.96E-06,-1.07E-05,1.84E-05
55,-1.65E-06,1.19E-05,2.97E-05,3.04E-05,-1.01E-05,2.39E-05
56,-2.36E-06,1.12E-05,2.48E-05,3.23E-05,-7.38E-06,2.22E-05
57,-1.28E-07,1.05E-05,2.94E-05,2.31E-05,-5.46E-06,1.86E-05
58,2.04E-06,1.14E-05,3.38E-05,6.03E-05,-5.68E-06,1.86E-05
59,-3.58E-07,1.32E-05,3.76E-05,0.00011153,-7.32E-06,2.08E-05
60,-7.83E-06,1.22E-05,4.31E-05,9.12E-05,-9.18E-06,2.05E-05
61,-1.22E-05,8.96E-06,4.86E-05,2.21E-05,-1.09E-05,1.79E-05
62,-6.58E-06,8.24E-06,4.58E-05,-2.65E-05,-1.24E-05,1.63E-05
63,3.30E-06,1.05E-05,3.37E-05,-2.92E-05,-1.45E-05,1.64E-05
64,9.47E-06,1.31E-05,2.57E-05,2.97E-05,-1.59E-05,1.61E-05
65,9.10E-06,1.51E-05,2.73E-05,0.00010985,-1.42E-05,1.37E-05
66,1.75E-06,1.50E-05,3.54E-05,0.000120452,-1.03E-05,1.03E-05
67,-4.91E-06,1.28E-05,4.60E-05,5.46E-05,-8.74E-06,9.00E-06
68,-2.34E-06,1.14E-05,4.95E-05,-5.63E-06,-1.30E-05,1.06E-05
69,4.75E-06,1.20E-05,4.18E-05,-6.53E-06,-1.88E-05,1.30E-05
70,6.60E-06,1.28E-05,3.44E-05,6.53E-05,-2.09E-05,1.57E-05
71,9.89E-08,1.36E-05,3.51E-05,0.000167915,-2.07E-05,1.85E-05
72,-1.35E-05,1.47E-05,3.93E-05,0.000197923,-2.19E-05,1.88E-05
73,-2.73E-05,1.34E-05,4.27E-05,0.000126541,-2.38E-05,1.61E-05
74,-3.00E-05,8.74E-06,4.02E-05,5.11E-05,-2.30E-05,1.44E-05
75,-1.88E-05,4.37E-06,3.15E-05,3.40E-05,-1.77E-05,1.58E-05
76,-5.30E-06,4.23E-06,2.97E-05,7.81E-05,-8.66E-06,1.77E-05
77,-8.41E-07,7.98E-06,3.88E-05,0.000153212,4.39E-07,1.79E-05
78,-1.09E-05,1.18E-05,4.81E-05,0.00016736,3.91E-06,1.58E-05
79,-2.96E-05,1.27E-05,5.41E-05,8.68E-05,-8.61E-08,1.08E-05
80,-3.46E-05,1.26E-05,5.74E-05,1.11E-05,-6.56E-06,9.45E-06
81,-2.19E-05,1.50E-05,5.41E-05,1.21E-05,-1.10E-05,1.43E-05
82,-1.24E-05,1.87E-05,4.42E-05,4.46E-05,-1.21E-05,1.90E-05
83,-1.07E-05,1.93E-05,4.47E-05,4.45E-05,-9.52E-06,2.08E-05
84,-8.53E-06,1.69E-05,6.01E-05,3.84E-05,-2.11E-06,2.14E-05
85,-3.50E-06,1.36E-05,6.71E-05,8.42E-05,7.13E-06,2.18E-05
86,-7.41E-07,1.13E-05,6.10E-05,0.000145865,1.24E-05,2.05E-05
87,-7.53E-06,1.10E-05,5.81E-05,0.000131056,1.18E-05,1.57E-05
88,-1.71E-05,1.10E-05,6.25E-05,6.00E-05,7.23E-06,1.03E-05
89,-1.44E-05,9.60E-06,5.76E-05,1.57E-05,1.78E-06,7.48E-06
90,-1.95E-06,8.62E-06,3.90E-05,2.69E-05,-2.62E-06,6.46E-06
91,5.02E-06,1.09E-05,2.81E-05,9.18E-05,-3.80E-06,6.75E-06
92,-7.70E-07,1.46E-05,3.37E-05,0.000162508,-2.57E-06,6.67E-06
93,-1.45E-05,1.50E-05,4.77E-05,0.000156963,-2.42E-06,2.73E-06
94,-2.31E-05,1.17E-05,5.93E-05,7.54E-05,-4.75E-06,-1.65E-06
95,-1.72E-05,8.72E-06,5.98E-05,1.02E-06,-8.91E-06,1.12E-07
96,-2.84E-06,7.69E-06,5.08E-05,-1.45E-05,-1.27E-05,6.40E-06
97,6.59E-06,7.44E-06,4.59E-05,3.33E-05,-1.33E-05,1.05E-05
98,5.09E-06,8.77E-06,4.89E-05,0.000102034,-1.11E-05,1.01E-05
99,-6.09E-06,1.27E-05,5.08E-05,0.000109779,-1.00E-05,6.24E-06
100,-1.77E-05,1.56E-05,4.83E-05,3.91E-05,-1.12E-05,1.24E-06
101,-1.67E-05,1.45E-05,4.33E-05,-2.67E-05,-1.33E-05,-1.25E-06
102,-4.65E-06,1.23E-05,3.65E-05,-3.99E-05,-1.56E-05,6.37E-07
103,3.99E-06,1.18E-05,3.43E-05,2.87E-08,-1.71E-05,4.50E-06
104,2.50E-06,1.17E-05,3.77E-05,7.33E-05,-1.56E-05,4.51E-06
105,-8.77E-06,1.09E-05,3.69E-05,9.78E-05,-1.11E-05,-3.50E-06
106,-2.18E-05,8.35E-06,3.46E-05,3.34E-05,-6.33E-06,-1.08E-05
107,-1.88E-05,5.11E-06,3.74E-05,-3.18E-05,-6.26E-06,-5.12E-06
108,-4.42E-06,2.63E-06,3.94E-05,-3.05E-05,-1.14E-05,8.45E-06
109,1.82E-06,2.11E-06,3.39E-05,-7.62E-06,-1.50E-05,1.79E-05
110,9.97E-07,4.36E-06,3.14E-05,-1.70E-05,-1.34E-05,2.11E-05
111,-2.97E-08,6.99E-06,3.73E-05,-2.46E-05,-1.02E-05,2.03E-05
112,-6.18E-08,9.52E-06,4.16E-05,2.15E-05,-8.34E-06,1.87E-05
113,-2.54E-06,1.19E-05,4.00E-05,8.28E-05,-7.54E-06,1.90E-05
114,-1.27E-05,1.15E-05,3.64E-05,7.00E-05,-6.89E-06,1.91E-05
115,-2.25E-05,8.61E-06,3.45E-05,1.72E-06,-7.14E-06,1.84E-05
116,-1.75E-05,7.46E-06,2.72E-05,-4.30E-05,-9.76E-06,1.84E-05
117,6.76E-07,1.01E-05,1.54E-05,-3.71E-05,-1.40E-05,1.96E-05
118,1.63E-05,1.41E-05,1.52E-05,2.22E-05,-1.63E-05,2.17E-05
119,1.79E-05,1.69E-05,2.61E-05,9.21E-05,-1.44E-05,2.34E-05
120,7.15E-06,1.81E-05,3.46E-05,9.42E-05,-1.12E-05,2.18E-05
121,-1.80E-06,1.84E-05,3.59E-05,2.90E-05,-1.07E-05,1.76E-05
122,1.70E-06,1.84E-05,2.90E-05,-2.94E-05,-1.41E-05,1.56E-05
123,1.19E-05,1.88E-05,1.78E-05,-3.91E-05,-1.99E-05,1.75E-05
124,1.76E-05,1.94E-05,1.54E-05,6.47E-06,-2.60E-05,2.00E-05
125,1.71E-05,1.99E-05,2.47E-05,7.49E-05,-2.95E-05,1.96E-05
126,1.15E-05,1.83E-05,3.60E-05,8.95E-05,-2.72E-05,1.66E-05
127,5.29E-06,1.30E-05,4.40E-05,3.03E-05,-1.95E-05,1.34E-05
128,6.35E-06,9.85E-06,4.29E-05,-2.84E-05,-1.17E-05,1.30E-05
129,1.36E-05,1.34E-05,3.26E-05,-4.04E-05,-9.74E-06,1.52E-05
130,1.83E-05,1.97E-05,2.80E-05,1.84E-06,-1.46E-05,1.53E-05
131,1.84E-05,2.46E-05,3.54E-05,7.90E-05,-1.94E-05,1.18E-05
132,1.15E-05,2.62E-05,4.28E-05,0.000104898,-1.69E-05,8.58E-06
133,2.31E-07,2.24E-05,4.79E-05,3.79E-05,-6.06E-06,6.53E-06
134,-3.13E-06,1.59E-05,4.82E-05,-3.67E-05,7.83E-06,6.63E-06
135,-1.18E-06,1.35E-05,3.83E-05,-4.28E-05,1.57E-05,1.00E-05
136,-2.19E-06,1.45E-05,2.64E-05,-1.01E-05,1.30E-05,1.15E-05
137,-1.63E-06,1.42E-05,2.62E-05,1.18E-07,3.22E-06,9.08E-06
138,3.41E-06,1.27E-05,3.67E-05,1.78E-06,-4.72E-06,8.59E-06
139,7.84E-06,1.35E-05,4.27E-05,4.10E-05,-4.27E-06,1.14E-05
140,5.69E-06,1.73E-05,4.00E-05,9.07E-05,7.22E-07,1.17E-05
141,-7.00E-06,1.89E-05,3.73E-05,7.47E-05,2.42E-06,7.75E-06
142,-2.05E-05,1.62E-05,3.94E-05,8.97E-06,-6.64E-07,5.76E-06
143,-1.87E-05,1.29E-05,3.72E-05,-3.76E-05,-3.73E-06,8.14E-06
144,-4.88E-06,1.23E-05,2.82E-05,-3.36E-05,-4.54E-06,1.00E-05
145,4.97E-06,1.39E-05,2.51E-05,3.16E-05,-4.43E-06,1.00E-05
146,2.69E-06,1.53E-05,2.78E-05,0.000108698,-4.10E-06,1.05E-05
147,-8.07E-06,1.56E-05,2.98E-05,0.000107658,-4.17E-06,1.13E-05
148,-1.73E-05,1.50E-05,3.14E-05,2.95E-05,-5.18E-06,1.20E-05
149,-1.51E-05,1.40E-05,2.89E-05,-3.63E-05,-5.89E-06,1.35E-05
150,-3.14E-06,1.33E-05,1.87E-05,-3.71E-05,-6.70E-06,1.51E-05
151,7.30E-06,1.31E-05,1.12E-05,2.79E-05,-9.46E-06,1.51E-05
152,9.73E-06,1.25E-05,1.46E-05,0.00011185,-1.25E-05,1.34E-05
153,4.09E-06,1.04E-05,2.31E-05,0.0001273,-1.35E-05,9.79E-06
154,-3.98E-06,8.76E-06,3.08E-05,5.66E-05,-1.27E-05,7.77E-06
155,-4.06E-06,9.72E-06,3.13E-05,-6.99E-06,-1.13E-05,1.18E-05
156,2.40E-06,1.09E-05,2.09E-05,-1.06E-05,-1.05E-05,1.90E-05
157,1.72E-06,1.07E-05,1.17E-05,3.54E-05,-1.21E-05,2.30E-05
158,-1.06E-05,1.07E-05,1.41E-05,0.000102535,-1.58E-05,2.02E-05
159,-2.99E-05,1.03E-05,2.09E-05,0.000121216,-1.78E-05,1.28E-05
160,-4.42E-05,9.05E-06,2.78E-05,6.39E-05,-1.71E-05,8.73E-06
161,-3.67E-05,8.71E-06,3.20E-05,6.00E-06,-1.57E-05,1.30E-05
162,-1.84E-05,9.67E-06,2.71E-05,6.92E-06,-1.34E-05,1.91E-05
163,-1.19E-05,1.23E-05,1.63E-05,3.35E-05,-9.19E-06,2.17E-05
164,-1.24E-05,1.61E-05,1.58E-05,3.81E-05,-4.82E-06,2.10E-05
165,-1.05E-05,1.73E-05,2.70E-05,4.58E-05,-2.78E-06,1.89E-05
166,-7.07E-06,1.54E-05,3.42E-05,9.41E-05,-1.96E-06,1.88E-05
167,-6.88E-06,1.42E-05,3.20E-05,0.000137552,-2.44E-06,1.95E-05
168,-1.35E-05,1.42E-05,2.83E-05,0.000102071,-3.92E-06,1.82E-05
169,-2.09E-05,1.29E-05,2.84E-05,2.47E-05,-4.96E-06,1.61E-05
170,-1.88E-05,1.06E-05,2.37E-05,-1.87E-05,-4.90E-06,1.58E-05
171,-1.05E-05,9.40E-06,1.17E-05,-6.27E-06,-3.97E-06,1.60E-05
172,-5.50E-06,9.61E-06,4.81E-06,6.51E-05,-3.69E-06,1.24E-05
173,-7.78E-06,9.66E-06,6.05E-06,0.000146083,-5.81E-06,5.42E-06
174,-1.66E-05,8.22E-06,1.04E-05,0.000151035,-9.80E-06,3.95E-07
175,-2.38E-05,6.01E-06,1.51E-05,8.10E-05,-1.36E-05,1.38E-06
176,-2.12E-05,4.56E-06,1.44E-05,1.91E-05,-1.77E-05,7.37E-06
177,-1.37E-05,4.26E-06,5.67E-06,1.08E-05,-2.31E-05,1.25E-05
178,-1.29E-05,5.30E-06,-8.62E-08,5.76E-05,-3.01E-05,1.12E-05
179,-2.07E-05,8.35E-06,3.12E-06,0.000124281,-3.66E-05,4.46E-06
180,-3.15E-05,1.08E-05,6.99E-06,0.000133559,-3.82E-05,-2.09E-06
181,-3.72E-05,8.99E-06,8.42E-06,6.54E-05,-3.28E-05,-4.09E-06
182,-2.95E-05,5.49E-06,5.93E-06,3.11E-06,-2.17E-05,-8.55E-07
183,-1.21E-05,5.25E-06,-2.40E-06,-6.32E-07,-7.15E-06,5.19E-06
184,-1.40E-06,8.46E-06,-6.00E-06,5.41E-05,7.86E-06,1.02E-05
185,-3.83E-06,1.22E-05,-6.54E-07,0.000139399,2.03E-05,1.18E-05
186,-1.48E-05,1.35E-05,5.82E-06,0.000167204,2.79E-05,1.05E-05
187,-2.40E-05,1.26E-05,1.04E-05,9.53E-05,2.73E-05,9.91E-06
188,-1.74E-05,1.16E-05,8.47E-06,1.42E-05,1.76E-05,1.26E-05
189,-1.79E-06,1.00E-05,-8.88E-07,3.49E-06,6.48E-06,1.50E-05
190,3.20E-06,9.06E-06,-1.17E-05,2.66E-05,8.36E-07,1.52E-05
191,2.27E-07,9.66E-06,-1.42E-05,1.91E-05,-1.69E-06,1.74E-05
192,-8.25E-07,1.10E-05,-3.75E-06,5.75E-06,-4.00E-06,2.00E-05
193,2.02E-06,1.45E-05,1.11E-05,4.51E-05,-4.71E-06,1.98E-05
194,3.70E-06,1.88E-05,2.13E-05,0.000103762,-4.16E-06,1.72E-05
195,-3.19E-06,1.92E-05,2.63E-05,9.17E-05,-5.31E-06,1.26E-05
196,-9.53E-06,1.45E-05,2.66E-05,2.79E-05,-7.87E-06,8.44E-06
197,-2.25E-06,8.62E-06,1.55E-05,-1.10E-05,-9.11E-06,9.33E-06
198,1.23E-05,5.33E-06,-1.73E-06,-2.88E-07,-8.41E-06,1.49E-05
199,2.18E-05,5.62E-06,-7.89E-06,6.42E-05,-7.48E-06,2.04E-05
200,2.11E-05,8.66E-06,-2.72E-06,0.000137045,-8.00E-06,2.17E-05
201,1.11E-05,1.11E-05,4.38E-06,0.000135431,-1.03E-05,1.88E-05
202,1.97E-06,1.14E-05,8.84E-06,6.27E-05,-1.27E-05,1.69E-05
203,3.74E-06,1.08E-05,5.20E-06,7.12E-07,-1.23E-05,1.89E-05
204,1.19E-05,1.07E-05,-5.75E-06,-8.00E-06,-9.16E-06,2.02E-05
205,1.53E-05,1.22E-05,-1.15E-05,4.11E-05,-6.98E-06,1.83E-05
206,9.80E-06,1.49E-05,-7.96E-06,0.000113617,-7.05E-06,1.57E-05
207,-2.08E-06,1.71E-05,-1.56E-06,0.000126753,-7.34E-06,1.25E-05
208,-1.06E-05,1.61E-05,5.75E-06,6.08E-05,-7.26E-06,1.02E-05
209,-6.60E-06,1.19E-05,7.68E-06,8.21E-07,-7.63E-06,1.22E-05
210,4.01E-06,8.85E-06,-2.88E-06,-4.46E-06,-8.67E-06,1.71E-05
211,9.63E-06,1.11E-05,-1.23E-05,4.14E-05,-9.19E-06,2.05E-05
212,9.21E-06,1.67E-05,-7.31E-06,0.000113676,-9.00E-06,2.01E-05
213,7.86E-07,1.89E-05,1.84E-06,0.000133543,-1.00E-05,1.51E-05
214,-1.35E-05,1.59E-05,9.44E-06,6.88E-05,-1.18E-05,9.20E-06
215,-1.71E-05,1.31E-05,1.41E-05,8.10E-06,-1.15E-05,8.45E-06
216,-1.07E-05,1.35E-05,9.32E-06,1.50E-05,-8.60E-06,1.25E-05
217,-6.96E-06,1.53E-05,-5.08E-07,4.55E-05,-8.05E-06,1.62E-05
218,-1.21E-06,1.69E-05,-1.07E-06,4.35E-05,-1.31E-05,1.60E-05
219,7.64E-06,1.69E-05,1.03E-05,3.66E-05,-1.69E-05,1.36E-05
220,1.08E-05,1.71E-05,2.15E-05,7.82E-05,-1.55E-05,1.34E-05
221,2.88E-06,1.96E-05,2.50E-05,0.000133168,-1.42E-05,1.39E-05
222,-1.43E-05,2.11E-05,2.48E-05,0.000117885,-1.56E-05,1.22E-05
223,-2.60E-05,1.95E-05,2.45E-05,5.70E-05,-1.63E-05,1.17E-05
224,-2.06E-05,1.63E-05,1.50E-05,2.59E-05,-1.53E-05,1.48E-05
225,-7.19E-06,1.47E-05,7.57E-07,4.30E-05,-1.45E-05,1.90E-05
226,-4.08E-07,1.59E-05,8.36E-07,0.000104251,-1.49E-05,2.03E-05
227,-2.72E-06,1.66E-05,1.27E-05,0.000164426,-1.59E-05,1.74E-05
228,-8.68E-06,1.42E-05,2.17E-05,0.00014962,-1.69E-05,1.21E-05
229,-1.27E-05,1.15E-05,2.61E-05,6.99E-05,-1.74E-05,7.25E-06
230,-1.12E-05,1.28E-05,2.65E-05,9.81E-06,-1.76E-05,4.99E-06
231,-5.51E-06,1.68E-05,2.10E-05,1.03E-05,-1.81E-05,6.60E-06
232,5.13E-07,2.04E-05,1.79E-05,6.49E-05,-1.82E-05,1.02E-05
233,2.34E-06,2.18E-05,2.31E-05,0.000128928,-1.59E-05,1.13E-05
234,-5.32E-06,2.03E-05,3.05E-05,0.000126524,-1.19E-05,9.12E-06
235,-1.72E-05,1.74E-05,3.57E-05,4.99E-05,-9.98E-06,9.36E-06
236,-1.88E-05,1.63E-05,3.32E-05,-1.64E-05,-1.02E-05,1.46E-05
237,-9.83E-06,1.70E-05,2.06E-05,-2.62E-05,-9.98E-06,2.01E-05
238,-4.35E-06,1.83E-05,1.42E-05,1.83E-05,-8.41E-06,2.44E-05
239,-9.69E-06,1.92E-05,2.21E-05,9.16E-05,-6.24E-06,2.81E-05
240,-2.23E-05,1.68E-05,3.02E-05,0.00011129,-4.82E-06,2.68E-05
241,-3.06E-05,1.14E-05,3.53E-05,4.23E-05,-4.19E-06,2.01E-05
242,-2.19E-05,7.77E-06,4.00E-05,-2.41E-05,-1.98E-06,1.45E-05
243,-5.37E-06,7.80E-06,3.67E-05,-2.37E-05,2.54E-09,1.14E-05
244,-4.46E-07,9.13E-06,2.30E-05,-5.75E-06,-7.22E-07,7.45E-06
245,-4.59E-06,8.59E-06,1.45E-05,-1.58E-05,-2.17E-06,5.44E-06
246,-8.61E-06,8.54E-06,2.01E-05,-1.19E-05,-2.94E-06,7.69E-06
247,-1.05E-05,1.19E-05,2.86E-05,4.88E-05,-2.77E-06,1.16E-05
248,-1.30E-05,1.42E-05,3.46E-05,0.000115217,-3.14E-06,1.43E-05
249,-2.04E-05,1.25E-05,4.03E-05,9.92E-05,-3.90E-06,1.34E-05
250,-2.64E-05,9.86E-06,4.42E-05,2.74E-05,-2.36E-06,1.02E-05
251,-2.13E-05,9.02E-06,3.80E-05,-1.95E-05,-9.57E-07,8.25E-06
252,-8.49E-06,9.50E-06,2.56E-05,-1.51E-05,-3.28E-06,8.69E-06
253,6.13E-07,8.99E-06,2.28E-05,4.79E-05,-6.67E-06,1.02E-05
254,6.71E-08,7.38E-06,2.91E-05,0.000123953,-7.82E-06,1.05E-05
255,-7.25E-06,6.28E-06,3.64E-05,0.00012559,-7.62E-06,8.15E-06
256,-1.09E-05,6.87E-06,4.24E-05,5.24E-05,-7.72E-06,5.15E-06
257,-2.92E-06,8.84E-06,4.24E-05,-1.25E-05,-7.54E-06,5.21E-06
258,8.47E-06,9.96E-06,3.41E-05,-1.91E-05,-7.79E-06,8.54E-06
259,1.04E-05,1.04E-05,2.83E-05,4.06E-05,-1.17E-05,1.12E-05
260,1.16E-06,1.29E-05,3.34E-05,0.000123479,-1.88E-05,9.89E-06
261,-1.22E-05,1.50E-05,4.41E-05,0.000135985,-2.49E-05,5.26E-06
262,-1.92E-05,1.36E-05,5.29E-05,5.65E-05,-2.75E-05,2.42E-06
263,-1.26E-05,1.12E-05,5.20E-05,-1.99E-05,-2.64E-05,4.79E-06
264,1.00E-06,1.00E-05,3.89E-05,-3.16E-05,-2.07E-05,9.40E-06
265,7.35E-06,8.75E-06,2.99E-05,1.94E-05,-9.57E-06,1.09E-05
266,3.97E-06,7.71E-06,3.43E-05,9.60E-05,3.24E-06,1.01E-05
267,-6.40E-06,7.55E-06,4.20E-05,0.000111103,8.89E-06,1.05E-05
268,-1.85E-05,7.56E-06,5.02E-05,3.79E-05,6.53E-06,1.18E-05
269,-1.71E-05,1.07E-05,5.51E-05,-3.00E-05,1.39E-06,1.27E-05
270,-6.77E-06,1.56E-05,4.90E-05,-2.70E-05,-4.82E-06,1.28E-05
271,-2.26E-06,1.70E-05,3.72E-05,3.76E-06,-1.28E-05,1.33E-05
272,5.34E-07,1.59E-05,3.32E-05,6.32E-06,-2.00E-05,1.57E-05
273,3.48E-06,1.41E-05,4.00E-05,1.03E-05,-2.08E-05,1.61E-05
274,3.01E-06,1.39E-05,4.74E-05,6.57E-05,-1.57E-05,1.22E-05
275,-5.86E-07,1.77E-05,4.70E-05,0.000128564,-1.05E-05,7.51E-06
276,-7.30E-06,2.04E-05,4.10E-05,0.000107727,-7.89E-06,3.58E-06
277,-1.34E-05,1.72E-05,3.79E-05,3.24E-05,-6.71E-06,5.27E-07
278,-1.20E-05,1.22E-05,3.27E-05,-9.82E-06,-5.09E-06,-5.03E-07
279,-5.56E-06,1.09E-05,2.23E-05,5.09E-06,-1.94E-06,2.38E-06
280,-3.48E-06,1.43E-05,2.15E-05,7.66E-05,2.94E-06,7.25E-06
281,-9.88E-06,1.87E-05,3.23E-05,0.000158259,6.90E-06,7.37E-06
282,-2.19E-05,1.91E-05,4.27E-05,0.000162481,6.43E-06,1.40E-06
283,-3.02E-05,1.55E-05,4.76E-05,8.52E-05,2.20E-06,-2.67E-06
284,-2.61E-05,1.25E-05,4.71E-05,1.29E-05,-1.99E-06,1.36E-06
285,-1.40E-05,1.40E-05,4.37E-05,-1.05E-06,-4.22E-06,9.29E-06
286,-7.36E-06,1.78E-05,4.59E-05,4.56E-05,-5.16E-06,1.54E-05
287,-9.56E-06,2.06E-05,5.45E-05,0.00011324,-4.64E-06,1.86E-05
288,-1.54E-05,2.07E-05,6.20E-05,0.000121256,-1.67E-06,1.81E-05
289,-1.98E-05,1.76E-05,6.50E-05,4.99E-05,2.38E-06,1.41E-05
290,-1.65E-05,1.29E-05,6.28E-05,-1.60E-05,3.44E-06,1.13E-05
291,-5.76E-06,9.15E-06,5.49E-05,-2.62E-05,1.29E-07,1.41E-05
292,3.62E-06,8.25E-06,4.82E-05,1.90E-05,-6.02E-06,2.06E-05
293,5.93E-06,1.08E-05,4.88E-05,9.77E-05,-1.29E-05,2.57E-05
294,-1.53E-06,1.26E-05,5.33E-05,0.000121783,-1.59E-05,2.64E-05
295,-1.13E-05,1.07E-05,6.08E-05,5.33E-05,-1.54E-05,2.40E-05
296,-6.66E-06,8.44E-06,6.50E-05,-1.09E-05,-1.54E-05,2.16E-05
297,5.15E-06,8.77E-06,5.72E-05,-3.65E-06,-1.61E-05,1.81E-05
298,6.63E-06,1.16E-05,4.35E-05,2.74E-05,-1.36E-05,1.44E-05
299,3.90E-06,1.29E-05,4.17E-05,3.09E-05,-5.04E-06,1.48E-05
300,5.28E-06,1.01E-05,5.42E-05,3.63E-05,5.06E-06,1.85E-05
301,9.41E-06,7.02E-06,6.21E-05,8.57E-05,9.12E-06,2.17E-05
302,1.00E-05,7.13E-06,5.87E-05,0.000136576,4.56E-06,2.12E-05
303,7.97E-07,6.78E-06,5.51E-05,0.000109103,-2.00E-06,1.51E-05
304,-9.48E-06,3.61E-06,5.55E-05,3.09E-05,-4.35E-06,9.31E-06
305,-7.99E-06,1.19E-06,4.89E-05,-2.19E-05,-3.04E-06,1.10E-05
306,7.17E-07,2.15E-06,3.62E-05,-2.25E-05,-1.11E-06,1.87E-05
307,5.24E-06,6.43E-06,3.40E-05,3.73E-05,-1.88E-06,2.43E-05
308,2.38E-06,1.12E-05,4.09E-05,0.000117176,-5.04E-06,2.27E-05
309,-6.60E-06,1.25E-05,4.62E-05,0.000133255,-7.57E-06,1.72E-05
310,-1.49E-05,1.02E-05,4.80E-05,7.74E-05,-7.96E-06,1.51E-05
311,-1.40E-05,7.25E-06,4.38E-05,2.37E-05,-5.62E-06,1.82E-05
312,-6.47E-06,4.28E-06,3.13E-05,1.78E-05,-2.43E-06,2.19E-05
313,-2.27E-06,1.91E-07,2.14E-05,6.71E-05,-3.02E-06,2.34E-05
314,-4.69E-06,-4.31E-06,2.25E-05,0.000136944,-7.97E-06,2.25E-05
315,-1.09E-05,-6.21E-06,2.87E-05,0.000145085,-1.12E-05,1.87E-05
316,-1.68E-05,-3.46E-06,3.62E-05,7.07E-05,-8.32E-06,1.44E-05
317,-1.53E-05,2.03E-06,4.10E-05,-2.36E-06,-3.70E-06,1.51E-05
318,-5.83E-06,6.60E-06,3.72E-05,-1.92E-05,-3.66E-06,2.12E-05
319,-7.18E-07,9.74E-06,3.43E-05,3.13E-05,-7.29E-06,2.59E-05
320,-4.00E-06,1.23E-05,4.00E-05,0.000124781,-1.03E-05,2.43E-05
321,-1.19E-05,1.41E-05,4.58E-05,0.000159672,-1.28E-05,1.71E-05
322,-1.78E-05,1.43E-05,5.02E-05,8.90E-05,-1.43E-05,9.56E-06
323,-8.39E-06,1.14E-05,5.20E-05,6.93E-06,-1.16E-05,1.01E-05
324,6.89E-06,7.42E-06,4.38E-05,-6.88E-06,-7.39E-06,1.45E-05
325,9.01E-06,4.88E-06,2.94E-05,1.46E-05,-6.77E-06,1.31E-05
326,5.67E-06,3.94E-06,2.51E-05,1.02E-05,-9.47E-06,8.77E-06
327,6.66E-06,5.30E-06,3.42E-05,4.72E-06,-1.13E-05,7.26E-06
328,9.23E-06,9.66E-06,4.08E-05,5.08E-05,-1.08E-05,9.05E-06
329,7.52E-06,1.40E-05,3.90E-05,0.000107355,-1.11E-05,1.11E-05
330,-2.23E-06,1.57E-05,3.74E-05,8.61E-05,-1.29E-05,1.14E-05
331,-1.17E-05,1.55E-05,3.77E-05,5.53E-06,-1.27E-05,1.15E-05
332,-9.18E-06,1.38E-05,2.84E-05,-5.35E-05,-1.12E-05,1.48E-05
333,-6.04E-07,1.10E-05,1.52E-05,-5.16E-05,-1.37E-05,1.86E-05
334,3.04E-06,1.03E-05,1.54E-05,1.84E-05,-1.99E-05,1.74E-05
335,-1.16E-07,1.36E-05,2.35E-05,0.000102101,-2.26E-05,1.20E-05
336,-9.59E-06,1.75E-05,2.81E-05,0.000108583,-1.79E-05,6.27E-06
337,-1.84E-05,1.85E-05,2.91E-05,3.66E-05,-9.15E-06,2.73E-06
338,-1.53E-05,1.71E-05,2.53E-05,-2.85E-05,-1.92E-06,2.57E-06
339,-2.86E-06,1.67E-05,1.56E-05,-3.47E-05,1.71E-07,4.99E-06
340,5.03E-06,1.83E-05,1.11E-05,2.33E-05,-3.01E-06,6.67E-06
341,2.09E-06,2.03E-05,1.61E-05,0.000101758,-7.88E-06,5.15E-06
342,-8.63E-06,2.10E-05,2.09E-05,0.000112238,-1.06E-05,1.77E-08
343,-1.98E-05,1.87E-05,2.33E-05,3.64E-05,-1.15E-05,-5.56E-06
344,-2.30E-05,1.54E-05,2.31E-05,-3.36E-05,-1.27E-05,-4.77E-06
345,-1.74E-05,1.53E-05,1.51E-05,-4.03E-05,-1.40E-05,4.72E-06
346,-1.10E-05,1.86E-05,8.54E-06,1.25E-05,-1.39E-05,1.44E-05
347,-1.12E-05,2.32E-05,1.20E-05,9.69E-05,-1.27E-05,1.54E-05
348,-1.92E-05,2.54E-05,1.69E-05,0.000131326,-1.21E-05,1.01E-05
349,-2.68E-05,2.13E-05,2.13E-05,7.66E-05,-1.28E-05,5.21E-06
350,-1.96E-05,1.40E-05,2.68E-05,1.43E-05,-1.25E-05,4.13E-06
351,-2.25E-06,1.16E-05,2.76E-05,1.15E-05,-1.22E-05,6.22E-06
352,6.93E-06,1.47E-05,2.37E-05,3.53E-05,-1.26E-05,8.10E-06
353,9.67E-06,1.64E-05,2.54E-05,3.58E-05,-1.22E-05,9.37E-06
354,1.21E-05,1.44E-05,3.35E-05,3.76E-05,-1.24E-05,1.08E-05
355,1.18E-05,1.25E-05,3.55E-05,8.88E-05,-1.38E-05,9.63E-06
356,5.35E-06,1.27E-05,2.96E-05,0.000149006,-1.44E-05,4.40E-06
357,-1.02E-05,1.32E-05,2.68E-05,0.000128849,-1.45E-05,-2.82E-07
358,-2.45E-05,1.27E-05,3.40E-05,5.19E-05,-1.49E-05,7.81E-07
359,-2.34E-05,1.16E-05,3.82E-05,1.14E-06,-1.29E-05,7.62E-06
360,-1.17E-05,1.08E-05,3.10E-05,8.00E-06,-8.18E-06,1.52E-05
361,-4.09E-06,1.20E-05,2.68E-05,8.06E-05,-5.55E-06,1.90E-05
362,-8.15E-06,1.39E-05,3.12E-05,0.000168205,-7.42E-06,1.80E-05
363,-2.16E-05,1.38E-05,3.76E-05,0.000175136,-1.04E-05,1.43E-05
364,-3.11E-05,1.20E-05,4.21E-05,9.53E-05,-1.20E-05,1.18E-05
365,-2.33E-05,1.04E-05,3.95E-05,1.83E-05,-1.43E-05,1.28E-05
366,-3.70E-06,9.46E-06,2.91E-05,4.16E-06,-1.72E-05,1.71E-05
367,1.00E-05,9.30E-06,2.36E-05,5.72E-05,-1.79E-05,2.30E-05
368,9.95E-06,9.74E-06,2.87E-05,0.000130577,-1.70E-05,2.68E-05
369,1.02E-06,9.01E-06,3.44E-05,0.000135635,-1.63E-05,2.29E-05
370,-6.95E-06,6.41E-06,3.51E-05,5.48E-05,-1.38E-05,1.34E-05
371,-5.12E-06,4.54E-06,2.86E-05,-2.04E-05,-9.24E-06,7.97E-06
372,4.00E-06,5.92E-06,1.75E-05,-3.24E-05,-8.06E-06,1.06E-05
373,7.38E-06,1.03E-05,1.53E-05,1.84E-05,-1.31E-05,1.65E-05
374,-5.57E-07,1.55E-05,2.36E-05,9.94E-05,-1.95E-05,1.95E-05
375,-1.50E-05,1.84E-05,2.70E-05,0.000119409,-2.31E-05,1.82E-05
376,-2.72E-05,1.76E-05,2.65E-05,4.35E-05,-2.28E-05,1.63E-05
377,-2.69E-05,1.74E-05,2.79E-05,-3.69E-05,-1.78E-05,1.70E-05
378,-1.83E-05,1.89E-05,2.28E-05,-4.86E-05,-1.14E-05,1.73E-05
379,-1.48E-05,1.83E-05,1.27E-05,-2.11E-05,-5.94E-06,1.47E-05
380,-1.71E-05,1.57E-05,7.71E-06,-7.41E-06,-2.19E-06,1.40E-05
381,-1.87E-05,1.29E-05,1.07E-05,9.88E-06,-2.58E-06,1.64E-05
382,-1.68E-05,1.14E-05,1.80E-05,7.21E-05,-6.00E-06,1.75E-05
383,-1.54E-05,1.23E-05,2.31E-05,0.000139018,-1.02E-05,1.32E-05
384,-2.08E-05,1.37E-05,2.38E-05,0.000125155,-1.29E-05,5.52E-06
385,-2.48E-05,1.32E-05,2.27E-05,5.54E-05,-1.46E-05,1.05E-07
386,-1.62E-05,1.16E-05,1.60E-05,1.51E-05,-1.83E-05,-8.12E-07
387,-3.02E-06,1.11E-05,7.45E-06,2.78E-05,-2.24E-05,2.57E-07
388,2.56E-06,1.40E-05,8.95E-06,8.81E-05,-2.36E-05,8.43E-07
389,-9.14E-07,1.97E-05,1.65E-05,0.000152465,-2.22E-05,1.72E-06
390,-1.06E-05,2.32E-05,2.19E-05,0.000146755,-1.95E-05,3.50E-06
391,-1.95E-05,2.17E-05,2.44E-05,7.21E-05,-1.25E-05,6.31E-06
392,-1.62E-05,1.82E-05,2.06E-05,6.36E-06,1.36E-07,1.02E-05
393,-1.17E-06,1.56E-05,1.08E-05,-2.41E-06,1.36E-05,1.46E-05
394,1.11E-05,1.45E-05,8.62E-06,5.31E-05,2.28E-05,1.80E-05
395,1.15E-05,1.47E-05,1.81E-05,0.000133513,2.65E-05,1.86E-05
396,2.28E-06,1.37E-05,2.68E-05,0.000151692,2.45E-05,1.51E-05
397,-4.42E-06,1.16E-05,2.90E-05,8.50E-05,1.94E-05,8.28E-06
398,3.84E-06,1.10E-05,2.41E-05,1.97E-05,1.61E-05,3.04E-06
399,2.03E-05,1.15E-05,1.38E-05,8.21E-06,1.53E-05,3.56E-06
400,2.92E-05,1.23E-05,1.07E-05,4.43E-05,1.29E-05,6.46E-06
401,2.69E-05,1.53E-05,1.69E-05,0.000102207,7.73E-06,7.04E-06
402,1.36E-05,1.80E-05,2.06E-05,0.000109484,3.83E-06,5.53E-06
403,-3.30E-06,1.61E-05,2.18E-05,3.86E-05,3.02E-06,7.04E-06
404,-3.97E-06,1.33E-05,2.04E-05,-2.30E-05,1.79E-06,1.51E-05
405,9.28E-06,1.50E-05,1.22E-05,-1.35E-05,-1.14E-06,2.26E-05
406,1.62E-05,1.80E-05,1.63E-06,1.44E-05,-4.09E-06,2.26E-05
407,1.55E-05,1.63E-05,1.01E-06,2.86E-06,-7.23E-06,1.77E-05
408,1.60E-05,1.16E-05,1.23E-05,-6.80E-06,-1.05E-05,1.25E-05
409,1.96E-05,9.15E-06,2.05E-05,4.31E-05,-1.22E-05,1.01E-05
410,1.85E-05,1.08E-05,1.83E-05,0.000107668,-1.23E-05,1.07E-05
411,6.26E-06,1.47E-05,1.51E-05,9.24E-05,-1.26E-05,1.04E-05
412,-7.58E-06,1.67E-05,1.73E-05,1.81E-05,-1.38E-05,8.79E-06
413,-9.84E-06,1.39E-05,1.31E-05,-3.31E-05,-1.46E-05,8.90E-06
414,-4.29E-06,9.73E-06,1.04E-06,-2.92E-05,-1.39E-05,1.08E-05
415,-7.70E-07,1.15E-05,-2.83E-06,3.76E-05,-1.23E-05,1.18E-05
416,-3.32E-06,1.96E-05,4.46E-06,0.000119553,-1.13E-05,1.07E-05
417,-1.36E-05,2.55E-05,1.41E-05,0.000124893,-1.18E-05,7.01E-06
418,-2.46E-05,2.25E-05,1.87E-05,5.03E-05,-1.37E-05,3.30E-06
419,-2.42E-05,1.41E-05,1.42E-05,-1.51E-05,-1.49E-05,3.77E-06
420,-1.37E-05,8.50E-06,4.67E-06,-1.83E-05,-1.32E-05,7.98E-06
421,-6.62E-06,8.99E-06,2.61E-06,4.30E-05,-1.08E-05,1.21E-05
422,-8.72E-06,1.22E-05,1.18E-05,0.000124767,-1.03E-05,1.34E-05
423,-1.81E-05,1.35E-05,2.38E-05,0.000140191,-1.08E-05,1.11E-05
424,-2.85E-05,1.21E-05,3.23E-05,6.84E-05,-9.89E-06,8.62E-06
425,-2.75E-05,1.18E-05,3.14E-05,-3.61E-06,-7.87E-06,1.22E-05
426,-1.30E-05,1.40E-05,2.18E-05,-1.80E-05,-6.36E-06,2.02E-05
427,-2.27E-06,1.51E-05,1.65E-05,2.79E-05,-6.45E-06,2.53E-05
428,-7.18E-06,1.24E-05,1.95E-05,0.000105659,-8.30E-06,2.50E-05
429,-2.42E-05,8.65E-06,2.09E-05,0.000126932,-1.10E-05,2.01E-05
430,-3.82E-05,6.72E-06,2.21E-05,5.26E-05,-1.24E-05,1.28E-05
431,-3.18E-05,6.84E-06,2.50E-05,-2.77E-05,-1.18E-05,9.52E-06
432,-1.20E-05,6.65E-06,2.12E-05,-3.07E-05,-1.02E-05,1.15E-05
433,-8.36E-07,4.90E-06,1.40E-05,7.62E-06,-7.70E-06,1.46E-05
434,-1.08E-06,3.64E-06,1.36E-05,1.04E-05,-5.84E-06,1.58E-05
435,-1.90E-06,3.51E-06,1.92E-05,-1.34E-06,-7.79E-06,1.49E-05
436,-1.12E-06,4.04E-06,2.35E-05,3.80E-05,-1.19E-05,1.52E-05
437,-4.71E-06,6.14E-06,2.16E-05,9.87E-05,-1.49E-05,1.60E-05
438,-1.56E-05,8.75E-06,1.65E-05,8.72E-05,-1.56E-05,1.54E-05
439,-2.50E-05,8.14E-06,1.51E-05,1.61E-05,-1.16E-05,1.58E-05
440,-2.08E-05,4.37E-06,1.14E-05,-3.15E-05,-4.37E-06,1.75E-05
441,-5.80E-06,7.18E-07,3.73E-06,-2.30E-05,-4.63E-08,1.71E-05
442,6.21E-06,5.32E-07,5.44E-06,4.76E-05,-2.56E-06,1.45E-05
443,5.88E-06,4.62E-06,1.71E-05,0.000131874,-8.06E-06,1.23E-05
444,-6.58E-06,8.78E-06,2.90E-05,0.000138531,-1.00E-05,1.16E-05
445,-1.88E-05,8.96E-06,3.68E-05,6.49E-05,-8.56E-06,1.26E-05
446,-1.84E-05,6.00E-06,3.68E-05,-1.15E-06,-7.03E-06,1.55E-05
447,-9.41E-06,3.58E-06,2.91E-05,-7.09E-06,-6.48E-06,1.85E-05
448,-5.38E-06,4.22E-06,2.51E-05,5.06E-05,-6.26E-06,1.92E-05
449,-1.12E-05,7.20E-06,2.83E-05,0.000130633,-5.94E-06,1.74E-05
450,-2.22E-05,9.49E-06,3.20E-05,0.000146906,-5.80E-06,1.40E-05
451,-3.08E-05,9.07E-06,3.60E-05,7.76E-05,-6.20E-06,1.17E-05
452,-2.95E-05,6.50E-06,3.60E-05,1.13E-05,-6.91E-06,1.31E-05
453,-1.96E-05,5.18E-06,2.71E-05,5.73E-06,-7.93E-06,1.76E-05
454,-1.23E-05,7.10E-06,2.34E-05,6.15E-05,-9.14E-06,2.00E-05
455,-1.43E-05,9.92E-06,3.24E-05,0.000150037,-9.72E-06,1.62E-05
456,-2.68E-05,1.05E-05,3.89E-05,0.000181204,-9.60E-06,9.62E-06
457,-4.12E-05,9.08E-06,4.08E-05,0.000112019,-9.90E-06,6.05E-06
458,-3.79E-05,8.54E-06,4.42E-05,3.05E-05,-1.07E-05,8.45E-06
459,-1.94E-05,9.76E-06,4.19E-05,1.64E-05,-1.15E-05,1.20E-05
460,-5.13E-06,1.13E-05,3.37E-05,3.83E-05,-1.31E-05,1.28E-05
461,1.59E-06,1.05E-05,3.38E-05,3.55E-05,-1.41E-05,1.54E-05
462,5.42E-06,8.13E-06,4.43E-05,2.96E-05,-1.26E-05,1.97E-05
463,8.92E-06,7.51E-06,5.16E-05,7.38E-05,-1.01E-05,2.22E-05
464,8.27E-06,9.87E-06,4.93E-05,0.000129145,-7.92E-06,2.08E-05
465,-1.78E-06,1.32E-05,4.45E-05,0.000101652,-7.41E-06,1.54E-05
466,-1.09E-05,1.33E-05,4.26E-05,1.37E-05,-9.03E-06,1.02E-05
467,-4.34E-06,9.66E-06,3.46E-05,-4.52E-05,-1.04E-05,1.02E-05
468,1.32E-05,6.39E-06,2.04E-05,-4.19E-05,-1.05E-05,1.27E-05
469,2.38E-05,6.81E-06,1.82E-05,2.45E-05,-9.85E-06,1.30E-05
470,1.96E-05,9.26E-06,2.89E-05,0.000106737,-9.39E-06,1.07E-05
471,7.36E-06,9.56E-06,3.79E-05,0.000119339,-9.46E-06,6.05E-06
472,-4.85E-07,7.24E-06,3.89E-05,5.54E-05,-1.02E-05,1.11E-06
473,2.27E-06,5.15E-06,3.06E-05,-5.94E-06,-1.09E-05,9.22E-07
474,1.02E-05,4.04E-06,1.72E-05,-1.55E-05,-1.08E-05,6.22E-06
475,1.55E-05,4.31E-06,1.31E-05,3.32E-05,-9.55E-06,1.20E-05
476,1.56E-05,7.36E-06,2.05E-05,0.000106612,-7.96E-06,1.50E-05
477,9.93E-06,1.13E-05,2.66E-05,0.000124706,-8.20E-06,1.55E-05
478,2.44E-06,1.24E-05,2.99E-05,6.21E-05,-1.16E-05,1.38E-05
479,3.20E-07,1.16E-05,3.03E-05,-2.38E-06,-1.54E-05,1.01E-05
480,2.27E-06,1.28E-05,1.96E-05,-1.54E-05,-1.44E-05,8.67E-06
481,1.44E-06,1.58E-05,9.62E-06,2.86E-05,-8.96E-06,1.10E-05
482,-3.43E-06,1.87E-05,1.48E-05,0.000109053,-6.80E-06,1.20E-05
483,-1.30E-05,1.99E-05,2.51E-05,0.00013468,-1.10E-05,7.72E-06
484,-2.23E-05,1.70E-05,3.56E-05,6.24E-05,-1.41E-05,5.20E-06
485,-2.00E-05,1.32E-05,4.27E-05,-1.26E-05,-1.09E-05,1.23E-05
486,-1.34E-05,1.39E-05,3.67E-05,-1.28E-05,-6.36E-06,2.24E-05
487,-1.51E-05,1.70E-05,2.27E-05,1.89E-05,-6.63E-06,2.47E-05
488,-1.65E-05,1.80E-05,1.91E-05,1.90E-05,-1.14E-05,1.95E-05
489,-1.38E-05,1.84E-05,2.96E-05,1.33E-05,-1.74E-05,1.36E-05
490,-1.42E-05,2.16E-05,3.68E-05,5.44E-05,-2.13E-05,1.10E-05
491,-1.93E-05,2.58E-05,3.41E-05,0.0001059,-2.19E-05,1.22E-05
492,-2.95E-05,2.77E-05,3.35E-05,8.56E-05,-1.88E-05,1.31E-05
493,-3.57E-05,2.66E-05,3.83E-05,1.62E-05,-1.22E-05,1.29E-05
494,-2.56E-05,2.53E-05,3.29E-05,-2.65E-05,-3.77E-06,1.58E-05
495,-7.77E-06,2.57E-05,1.94E-05,-1.92E-05,3.81E-06,2.02E-05
496,2.34E-06,2.74E-05,2.06E-05,4.16E-05,8.04E-06,2.19E-05
497,3.58E-06,2.88E-05,3.59E-05,0.00011412,8.05E-06,2.04E-05
498,1.07E-06,2.78E-05,4.70E-05,0.000117281,4.99E-06,1.66E-05
499,-1.73E-06,2.51E-05,4.66E-05,4.77E-05,1.75E-06,1.35E-05
500,-3.66E-07,2.31E-05,3.88E-05,-1.48E-05,5.65E-07,1.49E-05
501,5.86E-06,2.22E-05,2.96E-05,-1.94E-05,4.31E-07,1.95E-05
502,1.05E-05,2.13E-05,2.74E-05,3.79E-05,-1.14E-06,2.30E-05
503,7.99E-06,2.00E-05,3.25E-05,0.000113262,-4.19E-06,2.29E-05
504,-1.90E-06,1.88E-05,3.62E-05,0.000122142,-5.91E-06,1.90E-05
505,-1.25E-05,1.67E-05,3.78E-05,4.61E-05,-5.19E-06,1.53E-05
506,-1.41E-05,1.40E-05,3.64E-05,-2.87E-05,-4.00E-06,1.66E-05
507,-5.73E-06,1.29E-05,2.81E-05,-4.45E-05,-4.11E-06,1.97E-05
508,2.48E-06,1.42E-05,2.23E-05,4.51E-06,-5.75E-06,1.90E-05
509,3.10E-06,1.76E-05,2.71E-05,9.19E-05,-8.67E-06,1.49E-05
510,-6.11E-06,2.16E-05,3.24E-05,0.000124458,-1.18E-05,8.78E-06
511,-1.64E-05,2.48E-05,3.31E-05,5.96E-05,-1.31E-05,2.56E-06
512,-1.30E-05,2.65E-05,3.01E-05,-1.24E-05,-1.22E-05,2.59E-06
513,-1.90E-06,2.68E-05,2.03E-05,-1.76E-05,-1.11E-05,8.49E-06
514,2.85E-06,2.90E-05,6.53E-06,7.93E-06,-1.12E-05,1.39E-05
515,1.79E-06,3.14E-05,5.20E-06,1.01E-05,-1.07E-05,1.73E-05
516,-2.41E-06,3.00E-05,1.73E-05,1.63E-05,-7.36E-06,1.81E-05
517,-7.05E-06,2.77E-05,2.43E-05,7.00E-05,-3.76E-06,1.71E-05
518,-1.02E-05,2.79E-05,2.17E-05,0.000126979,-5.18E-06,1.36E-05
519,-1.79E-05,2.93E-05,1.93E-05,0.000105441,-9.36E-06,7.27E-06
520,-2.54E-05,2.89E-05,2.38E-05,3.05E-05,-1.10E-05,3.85E-06
521,-2.00E-05,2.59E-05,2.62E-05,-1.72E-05,-9.90E-06,8.75E-06
522,-7.89E-06,2.35E-05,2.28E-05,-8.96E-06,-9.07E-06,1.83E-05
523,-2.68E-06,2.42E-05,2.65E-05,5.78E-05,-1.06E-05,2.48E-05
524,-6.01E-06,2.58E-05,3.80E-05,0.000135006,-1.34E-05,2.48E-05
525,-1.43E-05,2.44E-05,4.77E-05,0.000138981,-1.51E-05,1.94E-05
526,-2.16E-05,1.91E-05,5.22E-05,7.04E-05,-1.44E-05,1.35E-05
527,-1.98E-05,1.37E-05,5.02E-05,1.28E-05,-1.34E-05,1.21E-05
528,-9.92E-06,1.14E-05,4.24E-05,1.29E-05,-1.33E-05,1.39E-05
529,-2.24E-06,1.17E-05,3.81E-05,6.91E-05,-1.37E-05,1.59E-05
530,-3.03E-06,1.15E-05,3.95E-05,0.000140699,-1.34E-05,1.76E-05
531,-1.06E-05,9.08E-06,3.94E-05,0.000149157,-1.15E-05,1.69E-05
532,-1.66E-05,5.87E-06,4.02E-05,7.85E-05,-1.09E-05,1.38E-05
533,-1.21E-05,4.24E-06,4.14E-05,1.19E-05,-1.50E-05,1.34E-05
534,-1.07E-06,4.30E-06,3.52E-05,1.26E-06,-2.19E-05,1.73E-05
535,1.51E-06,4.00E-06,3.08E-05,4.89E-05,-2.62E-05,1.95E-05
536,-7.65E-06,3.70E-06,3.49E-05,0.000127079,-2.67E-05,1.56E-05
537,-2.14E-05,3.73E-06,3.65E-05,0.000145861,-2.46E-05,8.61E-06
538,-2.87E-05,1.87E-06,3.82E-05,7.14E-05,-1.84E-05,4.87E-06
539,-1.97E-05,7.68E-07,4.56E-05,3.68E-07,-6.85E-06,5.76E-06
540,-6.34E-06,2.84E-06,4.80E-05,4.44E-06,4.18E-06,5.58E-06
541,-5.45E-06,4.31E-06,4.12E-05,3.65E-05,9.27E-06,3.35E-06
542,-1.05E-05,3.68E-06,3.57E-05,3.25E-05,9.66E-06,3.66E-06
543,-1.01E-05,2.92E-06,3.71E-05,2.52E-05,1.08E-05,5.42E-06
544,-6.04E-06,3.73E-06,3.86E-05,7.60E-05,1.47E-05,5.64E-06
545,-9.00E-06,3.89E-06,3.48E-05,0.000142839,1.67E-05,2.99E-06
546,-2.26E-05,8.71E-07,3.17E-05,0.000132921,1.45E-05,-1.49E-06
547,-3.40E-05,-2.68E-06,3.52E-05,6.55E-05,8.61E-06,-3.33E-06
548,-2.89E-05,-3.13E-06,3.44E-05,1.60E-05,6.22E-07,9.90E-08
549,-1.15E-05,-1.24E-06,2.40E-05,1.52E-05,-6.91E-06,5.50E-06
550,5.65E-06,2.42E-07,1.68E-05,7.56E-05,-1.05E-05,7.81E-06
551,1.30E-05,6.88E-07,1.85E-05,0.000154424,-9.21E-06,5.39E-06
552,5.46E-06,-2.91E-07,2.78E-05,0.000162829,-6.87E-06,-1.41E-07
553,-8.05E-06,-2.65E-06,4.05E-05,9.49E-05,-5.74E-06,-4.25E-06
554,-9.92E-06,-4.09E-06,4.31E-05,3.27E-05,-5.50E-06,-4.03E-06
555,3.00E-06,-3.02E-06,3.11E-05,2.61E-05,-7.08E-06,-1.12E-06
556,1.46E-05,-9.92E-07,2.22E-05,8.04E-05,-1.05E-05,1.02E-06
557,1.15E-05,1.31E-06,2.82E-05,0.000155941,-1.23E-05,1.73E-07
558,-2.25E-06,3.89E-06,3.79E-05,0.000166186,-1.09E-05,-4.01E-06
559,-1.15E-05,4.51E-06,4.11E-05,8.93E-05,-8.26E-06,-8.04E-06
560,-5.28E-06,3.07E-06,3.75E-05,1.35E-05,-7.00E-06,-6.87E-06
561,1.00E-05,1.91E-06,2.88E-05,-5.97E-06,-8.47E-06,-1.13E-06
562,2.02E-05,2.77E-06,2.48E-05,2.91E-05,-1.08E-05,4.16E-06
563,2.02E-05,7.00E-06,3.02E-05,9.76E-05,-1.10E-05,7.86E-06
564,1.05E-05,1.06E-05,3.45E-05,0.000119016,-8.92E-06,1.14E-05
565,-1.08E-07,9.59E-06,3.77E-05,4.94E-05,-5.90E-06,1.44E-05
566,5.49E-06,7.29E-06,4.35E-05,-2.78E-05,-4.97E-06,1.82E-05
567,2.10E-05,6.68E-06,4.36E-05,-3.44E-05,-7.17E-06,2.14E-05
568,2.54E-05,7.87E-06,3.58E-05,-5.12E-06,-9.27E-06,2.11E-05
569,2.00E-05,9.12E-06,3.34E-05,-1.05E-05,-1.07E-05,2.06E-05
570,1.46E-05,8.73E-06,3.94E-05,-3.26E-05,-1.36E-05,1.94E-05
571,9.96E-06,8.36E-06,4.26E-05,-8.72E-06,-1.78E-05,1.53E-05
572,3.10E-06,1.06E-05,4.05E-05,3.45E-05,-2.37E-05,1.03E-05
573,-7.87E-06,1.14E-05,4.02E-05,1.10E-05,-2.90E-05,5.73E-06
574,-1.63E-05,6.60E-06,4.24E-05,-6.25E-05,-2.87E-05,5.49E-06
575,-1.33E-05,2.16E-06,3.57E-05,-0.000108416,-2.60E-05,1.03E-05
576,-3.95E-06,3.33E-06,2.21E-05,-9.86E-05,-2.61E-05,1.46E-05
577,1.07E-06,8.18E-06,1.56E-05,-2.80E-05,-2.83E-05,1.48E-05
578,-1.76E-06,1.32E-05,1.72E-05,5.75E-05,-2.84E-05,1.16E-05
579,-9.91E-06,1.54E-05,2.22E-05,7.13E-05,-2.63E-05,8.28E-06
580,-1.53E-05,1.42E-05,2.90E-05,7.54E-06,-2.44E-05,9.39E-06
581,-1.11E-05,1.18E-05,3.14E-05,-5.06E-05,-2.22E-05,1.59E-05
582,-3.24E-06,1.10E-05,2.60E-05,-4.93E-05,-1.69E-05,2.16E-05
583,-3.02E-06,1.29E-05,2.40E-05,1.55E-05,-7.23E-06,2.17E-05
584,-9.66E-06,1.68E-05,2.99E-05,0.000100341,5.07E-06,1.84E-05
585,-1.73E-05,1.92E-05,3.35E-05,0.000119056,1.55E-05,1.61E-05
586,-2.26E-05,1.78E-05,3.45E-05,5.34E-05,1.83E-05,1.69E-05
587,-1.99E-05,1.58E-05,3.50E-05,-8.10E-06,1.16E-05,1.94E-05
588,-9.24E-06,1.62E-05,3.07E-05,-1.29E-05,4.67E-07,1.93E-05
589,-6.14E-07,1.77E-05,2.72E-05,3.53E-05,-7.67E-06,1.53E-05
590,7.84E-07,1.83E-05,2.70E-05,0.000112236,-1.13E-05,1.28E-05
591,-6.26E-06,1.80E-05,2.53E-05,0.000131113,-1.26E-05,1.20E-05
592,-1.59E-05,1.85E-05,3.01E-05,5.33E-05,-1.26E-05,1.01E-05
593,-1.31E-05,1.88E-05,4.24E-05,-2.68E-05,-1.09E-05,1.15E-05
594,-1.07E-06,1.80E-05,4.46E-05,-3.13E-05,-7.03E-06,1.79E-05
595,4.96E-06,1.65E-05,3.47E-05,2.90E-06,-3.48E-06,2.29E-05
596,6.30E-06,1.33E-05,3.37E-05,1.14E-05,-2.65E-06,2.14E-05
597,8.61E-06,9.66E-06,4.72E-05,1.46E-05,-4.82E-06,1.58E-05
598,9.94E-06,8.93E-06,5.73E-05,6.45E-05,-7.92E-06,1.15E-05
599,7.69E-06,1.09E-05,5.36E-05,0.000122792,-8.55E-06,1.02E-05
600,-1.63E-06,1.19E-05,4.54E-05,0.000102531,-6.49E-06,9.87E-06
601,-1.25E-05,1.11E-05,4.36E-05,2.71E-05,-4.42E-06,9.90E-06
602,-1.06E-05,1.11E-05,3.63E-05,-2.11E-05,-3.22E-06,1.12E-05
603,1.96E-06,1.22E-05,1.98E-05,-1.26E-05,-2.53E-06,1.18E-05
604,1.09E-05,1.42E-05,1.33E-05,5.84E-05,-3.07E-06,1.06E-05
605,1.00E-05,1.72E-05,2.03E-05,0.000143785,-4.93E-06,9.80E-06
606,1.43E-06,1.85E-05,2.88E-05,0.000150572,-6.95E-06,1.02E-05
607,-7.99E-06,1.63E-05,3.41E-05,7.29E-05,-8.94E-06,1.19E-05
608,-9.40E-06,1.28E-05,3.42E-05,-3.99E-07,-1.14E-05,1.46E-05
609,-3.10E-06,1.13E-05,2.78E-05,-1.20E-05,-1.35E-05,1.75E-05
610,7.30E-07,1.32E-05,2.42E-05,4.57E-05,-1.36E-05,1.97E-05
611,-3.85E-06,1.73E-05,2.71E-05,0.000128329,-1.18E-05,2.04E-05
612,-1.54E-05,2.01E-05,2.90E-05,0.000143823,-9.58E-06,1.94E-05
613,-2.64E-05,1.89E-05,3.03E-05,6.96E-05,-8.27E-06,1.80E-05
614,-2.58E-05,1.51E-05,3.03E-05,-5.13E-06,-8.62E-06,1.74E-05
615,-1.59E-05,1.19E-05,2.39E-05,-2.07E-05,-9.44E-06,1.72E-05
616,-1.12E-05,1.08E-05,1.87E-05,2.73E-05,-8.75E-06,1.60E-05
617,-1.63E-05,1.15E-05,2.18E-05,0.000113675,-7.83E-06,1.22E-05
618,-2.59E-05,1.27E-05,2.79E-05,0.000146562,-1.05E-05,6.40E-06
619,-3.10E-05,1.18E-05,3.45E-05,8.05E-05,-1.57E-05,4.35E-06
620,-2.04E-05,9.95E-06,3.72E-05,8.18E-06,-1.68E-05,8.11E-06
621,-4.38E-06,1.07E-05,3.29E-05,1.11E-05,-1.14E-05,1.11E-05
622,-1.96E-06,1.36E-05,2.64E-05,5.29E-05,-5.40E-06,1.23E-05
623,-6.51E-06,1.33E-05,2.58E-05,6.45E-05,-4.21E-06,1.61E-05
624,-6.16E-06,9.19E-06,3.24E-05,6.23E-05,-7.75E-06,1.98E-05
625,-1.15E-06,8.80E-06,3.68E-05,0.00010081,-1.13E-05,2.00E-05
626,-9.29E-07,1.35E-05,3.64E-05,0.000149851,-1.15E-05,1.59E-05
627,-1.36E-05,1.63E-05,3.45E-05,0.000128027,-8.89E-06,9.17E-06
628,-2.53E-05,1.45E-05,3.44E-05,5.76E-05,-6.57E-06,6.26E-06
629,-1.84E-05,1.28E-05,3.02E-05,1.37E-05,-6.75E-06,1.16E-05
630,-6.86E-07,1.39E-05,2.06E-05,1.74E-05,-8.42E-06,2.10E-05
631,1.06E-05,1.55E-05,1.61E-05,7.28E-05,-9.46E-06,2.69E-05
632,9.22E-06,1.51E-05,1.45E-05,0.000137239,-8.78E-06,2.66E-05
633,-2.05E-06,1.24E-05,1.15E-05,0.000127989,-7.24E-06,2.37E-05
634,-1.31E-05,1.02E-05,1.13E-05,4.79E-05,-6.50E-06,2.39E-05
635,-1.31E-05,9.85E-06,1.13E-05,-1.45E-05,-7.41E-06,2.77E-05
636,-4.12E-06,8.92E-06,6.76E-06,-1.22E-05,-8.03E-06,3.05E-05
637,2.03E-06,7.21E-06,4.82E-06,4.72E-05,-7.03E-06,2.85E-05
638,-9.04E-07,7.55E-06,8.09E-06,0.000119578,-7.34E-06,2.26E-05
639,-1.08E-05,1.11E-05,8.23E-06,0.000129461,-1.03E-05,1.58E-05
640,-1.91E-05,1.46E-05,5.88E-06,6.33E-05,-1.19E-05,1.05E-05
641,-1.65E-05,1.39E-05,2.78E-06,2.65E-06,-1.02E-05,8.46E-06
642,-5.28E-06,9.92E-06,-3.04E-06,-8.02E-06,-6.69E-06,8.74E-06
643,4.10E-06,7.35E-06,-3.17E-06,2.92E-05,-3.65E-06,9.15E-06
644,5.64E-06,9.36E-06,3.57E-06,0.000100833,-3.26E-06,1.09E-05
645,-5.02E-06,1.32E-05,7.34E-06,0.000128004,-5.88E-06,1.27E-05
646,-2.13E-05,1.51E-05,1.15E-05,6.71E-05,-9.69E-06,1.16E-05
647,-2.31E-05,1.68E-05,1.71E-05,2.24E-06,-1.23E-05,1.25E-05
648,-1.24E-05,1.90E-05,1.52E-05,1.20E-05,-1.25E-05,1.52E-05
649,-8.90E-06,2.13E-05,5.03E-06,6.09E-05,-1.15E-05,1.38E-05
650,-1.25E-05,2.38E-05,7.71E-07,7.00E-05,-1.07E-05,1.14E-05
651,-1.39E-05,2.49E-05,1.17E-05,5.58E-05,-9.11E-06,1.15E-05
652,-1.26E-05,2.41E-05,2.45E-05,8.77E-05,-7.24E-06,1.26E-05
653,-1.49E-05,2.25E-05,2.75E-05,0.000141938,-6.48E-06,1.24E-05
654,-2.44E-05,2.09E-05,2.40E-05,0.000132124,-6.05E-06,9.49E-06
655,-3.09E-05,1.95E-05,1.91E-05,6.94E-05,-3.93E-06,7.81E-06
656,-2.27E-05,1.77E-05,8.65E-06,2.92E-05,6.32E-07,1.04E-05
657,-6.95E-06,1.56E-05,-2.05E-06,3.69E-05,3.83E-06,1.44E-05
658,2.20E-06,1.51E-05,1.79E-06,9.45E-05,2.60E-06,1.50E-05
659,6.58E-07,1.70E-05,1.36E-05,0.000162941,4.16E-07,1.13E-05
660,-7.30E-06,1.82E-05,2.15E-05,0.000164331,4.77E-07,5.22E-06
661,-1.09E-05,1.58E-05,2.58E-05,9.34E-05,1.06E-06,1.13E-06
662,-3.96E-06,1.18E-05,2.33E-05,2.47E-05,-4.60E-07,3.00E-06
663,4.45E-06,8.74E-06,1.32E-05,7.47E-06,-3.73E-06,7.11E-06
664,4.55E-06,7.44E-06,1.02E-05,5.19E-05,-6.95E-06,7.09E-06
665,5.89E-07,8.11E-06,2.10E-05,0.000120922,-8.88E-06,4.47E-06
666,-3.44E-06,9.57E-06,3.31E-05,0.000127997,-8.88E-06,3.39E-06
667,-6.94E-06,9.84E-06,3.81E-05,5.34E-05,-7.63E-06,2.60E-06
668,-4.10E-06,9.01E-06,3.21E-05,-1.33E-05,-6.65E-06,1.30E-06
669,3.01E-06,9.05E-06,1.77E-05,-1.95E-05,-6.27E-06,2.31E-06
670,4.20E-06,1.11E-05,1.13E-05,2.61E-05,-5.42E-06,6.24E-06
671,9.40E-07,1.38E-05,1.83E-05,9.94E-05,-3.30E-06,1.05E-05
672,-5.08E-06,1.27E-05,2.61E-05,0.000124747,-2.08E-06,1.20E-05
673,-1.41E-05,7.48E-06,3.08E-05,6.01E-05,-3.16E-06,1.09E-05
674,-1.49E-05,2.86E-06,3.38E-05,-1.39E-05,-3.58E-06,1.20E-05
675,-7.26E-06,2.76E-06,3.17E-05,-2.17E-05,-4.04E-06,1.56E-05
676,-4.57E-06,7.98E-06,2.29E-05,1.43E-06,-5.86E-06,1.71E-05
677,-6.36E-06,1.36E-05,1.89E-05,-4.50E-06,-6.27E-06,1.58E-05
678,-4.15E-06,1.55E-05,2.91E-05,-1.11E-05,-6.92E-06,1.26E-05
679,-9.33E-07,1.61E-05,3.77E-05,3.91E-05,-9.57E-06,1.02E-05
680,-5.09E-06,1.82E-05,3.17E-05,0.000104518,-1.12E-05,7.91E-06
681,-1.78E-05,1.89E-05,2.23E-05,9.15E-05,-1.04E-05,3.48E-06
682,-2.99E-05,1.53E-05,1.98E-05,2.13E-05,-8.75E-06,1.19E-06
683,-2.93E-05,1.13E-05,1.48E-05,-2.06E-05,-8.69E-06,3.20E-06
684,-1.76E-05,9.94E-06,4.98E-06,-7.60E-06,-1.03E-05,6.76E-06
685,-7.01E-06,1.01E-05,4.15E-06,5.76E-05,-1.08E-05,9.46E-06
686,-5.73E-06,1.08E-05,1.26E-05,0.000129772,-9.09E-06,1.03E-05
687,-1.35E-05,1.21E-05,2.26E-05,0.000132453,-7.38E-06,9.87E-06
688,-2.12E-05,1.29E-05,3.02E-05,6.46E-05,-7.10E-06,1.18E-05
689,-1.87E-05,1.36E-05,2.94E-05,2.46E-06,-7.93E-06,1.67E-05
690,-8.31E-06,1.46E-05,2.12E-05,-6.91E-06,-9.84E-06,1.99E-05
691,-7.70E-07,1.48E-05,1.87E-05,4.11E-05,-1.22E-05,1.97E-05
692,-9.74E-07,1.36E-05,2.62E-05,0.000109276,-1.23E-05,1.83E-05
693,-7.03E-06,1.21E-05,3.43E-05,0.000117108,-1.01E-05,1.65E-05
694,-1.30E-05,1.06E-05,3.65E-05,4.60E-05,-8.84E-06,1.49E-05
695,-1.04E-05,1.05E-05,3.22E-05,-1.80E-05,-1.01E-05,1.63E-05
696,2.34E-06,1.20E-05,2.51E-05,-1.96E-05,-1.19E-05,2.04E-05
697,1.51E-05,1.37E-05,2.43E-05,3.85E-05,-1.20E-05,2.35E-05
698,1.64E-05,1.47E-05,3.08E-05,0.000127392,-9.75E-06,2.21E-05
699,1.80E-06,1.43E-05,3.31E-05,0.000159839,-6.04E-06,1.61E-05
700,-1.57E-05,1.20E-05,3.25E-05,9.76E-05,-4.03E-06,9.97E-06
701,-1.34E-05,9.78E-06,3.05E-05,2.68E-05,-6.75E-06,9.22E-06
702,2.52E-06,9.68E-06,1.97E-05,1.77E-05,-1.35E-05,1.29E-05
703,8.85E-06,1.12E-05,5.02E-06,3.64E-05,-1.87E-05,1.60E-05
704,6.74E-06,1.33E-05,2.23E-06,2.79E-05,-1.68E-05,1.62E-05
705,5.35E-06,1.34E-05,1.51E-05,1.87E-05,-1.20E-05,1.31E-05
706,4.22E-06,1.22E-05,2.84E-05,6.65E-05,-9.38E-06,9.15E-06
707,-1.73E-06,1.32E-05,3.12E-05,0.000134652,-5.43E-06,7.24E-06
708,-1.50E-05,1.55E-05,2.85E-05,0.000127037,2.75E-06,6.06E-06
709,-2.48E-05,1.50E-05,2.79E-05,5.41E-05,1.13E-05,6.92E-06
710,-1.96E-05,1.18E-05,2.30E-05,-1.86E-06,1.35E-05,1.20E-05
711,-8.48E-06,9.64E-06,1.14E-05,-8.46E-06,7.24E-06,1.62E-05
712,-5.69E-06,1.04E-05,5.78E-06,4.14E-05,-2.84E-06,1.29E-05
713,-1.27E-05,1.27E-05,1.07E-05,0.000109296,-1.08E-05,4.63E-06
714,-2.36E-05,1.39E-05,1.89E-05,0.00011131,-1.41E-05,-8.84E-07
715,-2.89E-05,1.32E-05,2.35E-05,4.10E-05,-1.24E-05,4.67E-07
716,-2.16E-05,1.10E-05,1.85E-05,-2.14E-05,-8.60E-06,7.87E-06
717,-6.12E-06,9.51E-06,5.91E-06,-2.78E-05,-6.29E-06,1.73E-05
718,6.50E-06,1.09E-05,2.62E-06,2.43E-05,-5.93E-06,2.39E-05
719,1.02E-05,1.31E-05,1.36E-05,9.87E-05,-6.79E-06,2.45E-05
720,3.17E-06,1.22E-05,2.53E-05,0.000116239,-9.88E-06,2.08E-05
721,-6.88E-06,9.76E-06,3.21E-05,5.49E-05,-1.39E-05,1.88E-05
722,-7.34E-06,9.90E-06,3.06E-05,-7.45E-06,-1.45E-05,2.08E-05
723,1.04E-06,1.07E-05,1.90E-05,-2.02E-05,-1.08E-05,2.25E-05
724,7.26E-06,1.07E-05,1.22E-05,1.90E-05,-7.03E-06,2.07E-05
725,6.28E-06,1.11E-05,1.64E-05,9.07E-05,-5.21E-06,1.69E-05
726,-2.02E-06,1.02E-05,2.19E-05,0.000110217,-3.41E-06,1.38E-05
727,-1.23E-05,6.79E-06,3.08E-05,3.16E-05,-7.25E-07,1.24E-05
728,-1.12E-05,5.27E-06,4.11E-05,-5.35E-05,5.27E-07,1.35E-05
729,-8.83E-07,9.80E-06,4.07E-05,-5.81E-05,-5.29E-07,1.49E-05
730,4.47E-06,1.42E-05,3.24E-05,-2.07E-05,-3.56E-06,1.52E-05
731,6.98E-06,1.10E-05,2.71E-05,-1.49E-05,-7.63E-06,1.34E-05
732,1.19E-05,5.00E-06,2.83E-05,-1.62E-05,-1.06E-05,9.48E-06
733,1.56E-05,4.93E-06,3.27E-05,3.65E-05,-1.22E-05,8.77E-06
734,1.19E-05,9.44E-06,3.82E-05,0.000107576,-1.33E-05,1.15E-05
735,-2.53E-06,1.13E-05,4.35E-05,0.00010023,-1.53E-05,1.11E-05
736,-1.61E-05,1.02E-05,4.51E-05,2.71E-05,-1.84E-05,6.61E-06
737,-1.46E-05,1.07E-05,3.57E-05,-2.51E-05,-2.16E-05,3.59E-06
738,-2.61E-06,1.30E-05,2.07E-05,-2.19E-05,-2.43E-05,5.15E-06
739,6.50E-06,1.45E-05,1.75E-05,4.53E-05,-2.54E-05,8.61E-06
740,7.12E-06,1.32E-05,2.49E-05,0.000131856,-2.48E-05,1.14E-05
741,-1.81E-06,9.30E-06,3.06E-05,0.00014511,-2.23E-05,1.20E-05
742,-1.40E-05,6.03E-06,3.27E-05,7.45E-05,-1.75E-05,1.17E-05
743,-1.72E-05,5.83E-06,3.21E-05,4.35E-06,-1.06E-05,1.44E-05
744,-1.11E-05,8.05E-06,2.70E-05,-8.99E-06,-2.00E-06,1.88E-05
745,-8.05E-06,9.96E-06,2.32E-05,4.18E-05,7.44E-06,2.00E-05
746,-1.34E-05,1.01E-05,2.56E-05,0.000119491,1.36E-05,1.87E-05
747,-2.28E-05,8.75E-06,3.08E-05,0.00014137,1.16E-05,1.70E-05
748,-2.89E-05,7.52E-06,3.84E-05,7.88E-05,3.58E-06,1.43E-05
749,-2.51E-05,8.36E-06,4.39E-05,7.70E-06,-4.61E-06,1.31E-05
750,-1.50E-05,1.08E-05,3.98E-05,-1.03E-05,-1.05E-05,1.54E-05
751,-8.97E-06,1.36E-05,3.44E-05,3.64E-05,-1.23E-05,1.73E-05
752,-1.10E-05,1.64E-05,3.65E-05,0.000119777,-1.10E-05,1.51E-05
753,-2.04E-05,1.66E-05,3.94E-05,0.000148632,-9.50E-06,9.41E-06
754,-2.80E-05,1.25E-05,4.33E-05,8.48E-05,-7.93E-06,3.78E-06
755,-1.96E-05,8.82E-06,5.14E-05,1.53E-05,-7.20E-06,4.06E-06
756,-4.93E-06,8.48E-06,5.38E-05,1.38E-05,-8.96E-06,1.02E-05
757,-1.21E-06,1.06E-05,4.63E-05,4.18E-05,-1.17E-05,1.54E-05
758,-3.02E-06,1.28E-05,4.31E-05,3.74E-05,-1.20E-05,1.71E-05
759,-3.20E-06,1.23E-05,5.09E-05,2.95E-05,-1.14E-05,1.71E-05
760,-4.03E-06,1.18E-05,5.74E-05,7.45E-05,-1.29E-05,1.53E-05
761,-6.10E-06,1.58E-05,5.88E-05,0.000132523,-1.43E-05,1.29E-05
762,-1.01E-05,2.12E-05,5.98E-05,0.000114774,-1.28E-05,1.08E-05
763,-1.39E-05,2.28E-05,6.01E-05,4.35E-05,-1.14E-05,9.63E-06
764,-1.06E-05,2.06E-05,5.20E-05,3.54E-06,-1.17E-05,1.09E-05
765,-1.22E-06,1.77E-05,3.77E-05,1.77E-05,-1.12E-05,1.45E-05
766,6.71E-06,1.75E-05,3.20E-05,8.00E-05,-1.01E-05,1.76E-05
767,6.76E-06,2.06E-05,3.55E-05,0.000146151,-1.10E-05,1.82E-05
768,-3.29E-06,2.28E-05,4.02E-05,0.000139504,-1.36E-05,1.56E-05
769,-1.35E-05,2.22E-05,4.25E-05,6.11E-05,-1.45E-05,1.23E-05
770,-1.13E-05,2.09E-05,3.75E-05,-7.43E-06,-1.25E-05,1.26E-05
771,1.02E-06,2.09E-05,2.53E-05,-1.83E-05,-1.01E-05,1.64E-05
772,1.02E-05,2.17E-05,2.06E-05,3.21E-05,-1.04E-05,1.86E-05
773,8.37E-06,2.07E-05,2.87E-05,0.000104962,-1.47E-05,1.61E-05
774,-2.73E-06,1.71E-05,3.61E-05,0.00011449,-2.26E-05,1.13E-05
775,-1.23E-05,1.36E-05,3.92E-05,3.97E-05,-3.11E-05,1.00E-05
776,-9.75E-06,1.32E-05,3.85E-05,-3.18E-05,-3.66E-05,1.41E-05
777,8.63E-07,1.39E-05,3.04E-05,-4.26E-05,-3.79E-05,1.85E-05
778,7.19E-06,1.21E-05,2.63E-05,7.83E-06,-3.62E-05,2.01E-05
779,4.15E-06,8.90E-06,3.22E-05,9.28E-05,-3.00E-05,1.98E-05
780,-9.36E-06,6.56E-06,3.75E-05,0.000125926,-1.70E-05,1.72E-05
781,-2.54E-05,3.44E-06,4.10E-05,6.37E-05,-6.64E-07,1.24E-05
782,-2.59E-05,1.03E-06,4.34E-05,-1.24E-05,1.46E-05,9.38E-06
783,-1.34E-05,3.70E-06,3.91E-05,-3.04E-05,2.56E-05,1.06E-05
784,-6.07E-06,9.29E-06,3.09E-05,-1.52E-05,2.74E-05,1.21E-05
785,-3.92E-06,1.30E-05,2.87E-05,-1.04E-05,2.05E-05,1.34E-05
786,-2.07E-06,1.43E-05,3.75E-05,1.45E-06,1.18E-05,1.53E-05
787,-1.47E-06,1.42E-05,4.74E-05,5.23E-05,7.04E-06,1.74E-05
788,-3.73E-06,1.36E-05,4.89E-05,0.000104504,6.36E-06,1.58E-05
789,-1.39E-05,1.33E-05,4.48E-05,8.37E-05,4.97E-06,8.61E-06
790,-2.47E-05,1.39E-05,3.90E-05,1.41E-05,9.83E-07,3.47E-06
791,-2.33E-05,1.42E-05,2.82E-05,-2.58E-05,-3.83E-06,6.37E-06
792,-1.19E-05,1.27E-05,1.58E-05,-1.68E-05,-8.11E-06,1.12E-05
793,-5.60E-07,1.18E-05,1.47E-05,4.23E-05,-1.13E-05,1.00E-05
794,2.85E-06,1.36E-05,2.17E-05,0.000113683,-1.29E-05,2.07E-06
795,-3.90E-06,1.61E-05,2.84E-05,0.000115264,-1.23E-05,-6.85E-06
796,-1.27E-05,1.81E-05,3.37E-05,4.15E-05,-9.03E-06,-8.63E-06
797,-1.35E-05,2.01E-05,3.45E-05,-2.70E-05,-1.69E-06,-2.55E-06
798,-7.23E-06,2.02E-05,3.02E-05,-4.05E-05,6.66E-06,5.27E-06
799,-9.14E-07,1.75E-05,3.01E-05,5.00E-06,8.92E-06,1.03E-05
800,1.37E-06,1.45E-05,3.71E-05,7.30E-05,4.00E-06,1.15E-05
801,-2.51E-06,1.39E-05,4.33E-05,8.44E-05,-2.74E-06,8.50E-06
802,-9.87E-06,1.54E-05,4.64E-05,1.91E-05,-7.30E-06,5.87E-06
803,-1.05E-05,1.65E-05,4.53E-05,-4.22E-05,-8.86E-06,8.25E-06
804,-4.92E-09,1.63E-05,3.67E-05,-4.64E-05,-8.47E-06,1.26E-05
805,1.05E-05,1.67E-05,2.92E-05,9.84E-06,-7.07E-06,1.53E-05
806,1.04E-05,1.98E-05,2.99E-05,0.000103,-6.98E-06,1.77E-05
807,-1.78E-06,2.23E-05,2.95E-05,0.000141433,-9.95E-06,1.95E-05
808,-1.52E-05,1.99E-05,2.91E-05,7.61E-05,-1.29E-05,1.85E-05
809,-1.03E-05,1.54E-05,3.27E-05,-2.21E-06,-1.27E-05,1.62E-05
810,3.75E-06,1.34E-05,3.00E-05,-8.27E-06,-9.87E-06,1.38E-05
811,5.59E-06,1.32E-05,2.00E-05,2.29E-05,-9.17E-06,1.27E-05
812,3.66E-06,1.09E-05,1.83E-05,2.91E-05,-1.24E-05,1.41E-05
813,5.60E-06,9.27E-06,2.62E-05,2.77E-05,-1.38E-05,1.51E-05
814,6.53E-06,1.15E-05,3.13E-05,6.81E-05,-1.34E-05,1.54E-05
815,1.77E-06,1.37E-05,3.13E-05,0.000122722,-1.48E-05,1.66E-05
816,-1.19E-05,1.27E-05,2.86E-05,0.000112084,-1.67E-05,1.63E-05
817,-2.47E-05,9.47E-06,2.49E-05,5.17E-05,-1.80E-05,1.47E-05
818,-2.21E-05,6.12E-06,1.60E-05,1.05E-05,-1.84E-05,1.45E-05
819,-8.25E-06,4.20E-06,4.55E-06,1.07E-05,-1.85E-05,1.47E-05
820,1.03E-06,5.03E-06,4.84E-06,6.50E-05,-1.78E-05,1.30E-05
821,-1.73E-06,7.35E-06,1.69E-05,0.000139313,-1.54E-05,9.55E-06
822,-1.23E-05,8.52E-06,2.89E-05,0.000149358,-1.26E-05,4.35E-06
823,-1.88E-05,6.51E-06,3.50E-05,8.49E-05,-1.18E-05,-2.02E-08
824,-1.35E-05,2.58E-06,3.34E-05,2.22E-05,-1.31E-05,5.61E-07
825,-1.91E-06,1.71E-06,2.54E-05,1.27E-05,-1.50E-05,4.61E-06
826,4.75E-06,5.63E-06,2.08E-05,6.28E-05,-1.59E-05,7.38E-06
827,1.79E-06,9.12E-06,2.35E-05,0.000131725,-1.53E-05,8.45E-06
828,-6.85E-06,7.91E-06,2.72E-05,0.000138607,-1.39E-05,9.60E-06
829,-1.15E-05,4.81E-06,3.00E-05,6.83E-05,-1.30E-05,1.02E-05
830,-4.80E-06,4.14E-06,2.98E-05,4.67E-06,-1.36E-05,1.02E-05
831,7.56E-06,5.47E-06,2.32E-05,-4.26E-06,-1.39E-05,9.97E-06
832,1.23E-05,6.12E-06,2.04E-05,3.32E-05,-1.18E-05,9.38E-06
833,7.10E-06,5.57E-06,2.87E-05,9.25E-05,-8.41E-06,8.78E-06
834,-2.77E-06,5.54E-06,3.77E-05,0.00010412,-7.67E-06,6.24E-06
835,-1.26E-05,6.04E-06,4.16E-05,3.80E-05,-1.22E-05,3.87E-06
836,-1.20E-05,6.78E-06,4.01E-05,-2.70E-05,-1.95E-05,8.03E-06
837,-4.03E-06,9.84E-06,3.52E-05,-2.69E-05,-2.39E-05,1.51E-05
838,-7.67E-07,1.44E-05,3.05E-05,6.11E-06,-2.29E-05,1.78E-05
839,3.55E-07,1.77E-05,2.96E-05,1.87E-05,-1.86E-05,1.69E-05
840,2.98E-06,1.95E-05,3.63E-05,2.59E-05,-1.40E-05,1.65E-05
841,4.88E-06,2.14E-05,4.31E-05,7.40E-05,-9.97E-06,1.66E-05
842,2.37E-06,2.36E-05,4.39E-05,0.000131772,-6.80E-06,1.63E-05
843,-7.27E-06,2.39E-05,4.35E-05,0.000117981,-6.49E-06,1.46E-05
844,-1.56E-05,2.12E-05,4.45E-05,4.91E-05,-8.70E-06,1.35E-05
845,-1.20E-05,1.68E-05,3.64E-05,2.09E-06,-8.94E-06,1.51E-05
846,-1.38E-06,1.37E-05,2.19E-05,6.59E-06,-6.96E-06,1.78E-05
847,4.81E-06,1.48E-05,1.62E-05,6.90E-05,-6.37E-06,1.88E-05
848,-2.49E-08,1.92E-05,1.92E-05,0.000143802,-7.26E-06,1.59E-05
849,-1.38E-05,2.34E-05,2.61E-05,0.000143179,-7.03E-06,1.11E-05
850,-2.36E-05,2.53E-05,3.46E-05,6.53E-05,-5.17E-06,8.94E-06
851,-1.98E-05,2.51E-05,3.76E-05,-6.73E-07,-4.43E-06,1.26E-05
852,-7.82E-06,2.40E-05,3.08E-05,-4.02E-06,-7.33E-06,2.00E-05
853,2.36E-06,2.36E-05,2.48E-05,5.08E-05,-1.24E-05,2.59E-05
854,5.15E-06,2.41E-05,2.55E-05,0.000121173,-1.66E-05,2.65E-05
855,-3.14E-06,2.27E-05,2.80E-05,0.000131528,-1.71E-05,2.12E-05
856,-1.68E-05,1.84E-05,3.08E-05,6.84E-05,-1.25E-05,1.38E-05
857,-2.14E-05,1.48E-05,3.17E-05,1.07E-05,-6.51E-06,1.17E-05
858,-1.33E-05,1.30E-05,2.55E-05,5.54E-06,-4.62E-06,1.64E-05
859,-3.77E-06,1.13E-05,2.03E-05,5.35E-05,-6.07E-06,2.03E-05
860,-2.29E-06,1.06E-05,2.64E-05,0.000131731,-6.67E-06,1.89E-05
861,-1.04E-05,1.28E-05,3.57E-05,0.000156487,-6.05E-06,1.40E-05
862,-2.06E-05,1.64E-05,4.05E-05,9.08E-05,-5.71E-06,7.40E-06
863,-1.81E-05,1.79E-05,3.96E-05,2.10E-05,-6.74E-06,4.12E-06
864,-8.79E-06,1.60E-05,3.24E-05,2.71E-05,-9.03E-06,5.57E-06
865,-8.86E-06,1.16E-05,2.20E-05,6.94E-05,-9.81E-06,7.06E-06
866,-1.19E-05,8.69E-06,1.81E-05,5.84E-05,-8.34E-06,1.07E-05
867,-9.90E-06,7.58E-06,2.57E-05,2.40E-05,-6.68E-06,1.65E-05
868,-5.13E-06,7.09E-06,3.30E-05,5.53E-05,-4.74E-06,1.92E-05
869,-4.58E-06,7.29E-06,3.23E-05,0.000116502,-3.02E-06,1.72E-05
870,-1.52E-05,7.95E-06,2.85E-05,0.000102716,-3.11E-06,1.30E-05
871,-2.56E-05,8.17E-06,2.64E-05,2.48E-05,-3.73E-06,1.10E-05
872,-2.00E-05,7.61E-06,2.05E-05,-3.16E-05,-3.65E-06,1.31E-05
873,-4.84E-06,6.74E-06,9.80E-06,-3.19E-05,-4.07E-06,1.61E-05
874,4.49E-06,5.36E-06,6.72E-06,3.06E-05,-5.55E-06,1.68E-05
875,4.17E-06,4.52E-06,1.24E-05,0.000109933,-6.74E-06,1.38E-05
876,-3.78E-06,4.21E-06,1.97E-05,0.000116292,-6.89E-06,8.54E-06
877,-1.19E-05,4.30E-06,2.50E-05,4.60E-05,-6.00E-06,7.05E-06
878,-1.09E-05,6.30E-06,2.18E-05,-1.56E-05,-4.09E-06,1.18E-05
879,-2.33E-06,1.06E-05,1.01E-05,-1.85E-05,-1.48E-06,1.80E-05
880,4.84E-06,1.43E-05,4.79E-06,4.05E-05,1.66E-06,1.97E-05
881,6.62E-06,1.47E-05,1.05E-05,0.000122307,3.58E-06,1.56E-05
882,2.10E-06,1.26E-05,1.68E-05,0.000138384,2.98E-06,9.97E-06
883,-4.98E-06,9.62E-06,1.96E-05,6.57E-05,2.05E-06,8.43E-06
884,-5.60E-06,8.30E-06,1.65E-05,-6.13E-06,3.14E-06,1.27E-05
885,2.05E-06,1.02E-05,6.28E-06,-1.83E-05,5.17E-06,1.89E-05
886,1.10E-05,1.25E-05,6.73E-07,2.96E-05,4.98E-06,2.19E-05
887,1.45E-05,1.24E-05,4.60E-06,0.000110147,1.66E-06,2.00E-05
888,5.77E-06,1.20E-05,1.09E-05,0.000134934,-2.92E-06,1.44E-05
889,-1.00E-05,1.30E-05,2.10E-05,6.26E-05,-4.40E-06,9.47E-06
890,-1.24E-05,1.36E-05,3.12E-05,-1.59E-05,-8.28E-08,1.08E-05
891,-1.65E-06,1.31E-05,3.04E-05,-1.59E-05,4.54E-06,1.49E-05
892,3.74E-06,1.25E-05,2.18E-05,2.13E-05,3.45E-06,1.72E-05
893,3.13E-06,1.08E-05,2.08E-05,2.30E-05,-6.12E-07,1.90E-05
894,2.86E-06,9.35E-06,3.07E-05,1.48E-05,-2.89E-06,2.02E-05
895,2.37E-06,1.14E-05,3.78E-05,5.88E-05,-3.60E-06,2.02E-05
896,-3.35E-06,1.47E-05,3.52E-05,0.000120385,-4.40E-06,1.81E-05
897,-1.87E-05,1.46E-05,2.95E-05,0.000109912,-6.10E-06,1.47E-05
898,-3.23E-05,1.20E-05,2.68E-05,4.13E-05,-7.65E-06,1.36E-05
899,-2.87E-05,1.00E-05,2.16E-05,-7.38E-06,-7.67E-06,1.36E-05
900,-1.44E-05,1.01E-05,1.34E-05,-1.72E-06,-5.74E-06,1.16E-05
901,-5.00E-06,1.20E-05,1.17E-05,6.40E-05,-3.18E-06,9.23E-06
902,-6.87E-06,1.36E-05,1.41E-05,0.000138366,-1.92E-06,8.75E-06
903,-1.75E-05,1.21E-05,1.58E-05,0.000132272,-2.13E-06,7.65E-06
904,-2.74E-05,7.66E-06,1.75E-05,4.45E-05,-3.73E-06,5.05E-06
905,-2.65E-05,3.40E-06,1.54E-05,-3.71E-05,-6.25E-06,4.56E-06
906,-1.69E-05,1.73E-06,7.65E-06,-5.69E-05,-1.00E-05,7.12E-06
907,-8.51E-06,2.92E-06,4.51E-06,-7.80E-06,-1.58E-05,9.57E-06
908,-6.26E-06,4.45E-06,1.13E-05,7.15E-05,-2.19E-05,8.99E-06
909,-1.12E-05,4.89E-06,1.89E-05,9.53E-05,-2.54E-05,4.40E-06
910,-1.99E-05,5.97E-06,2.20E-05,4.01E-05,-2.48E-05,-1.68E-07
911,-2.13E-05,8.68E-06,1.92E-05,-1.56E-05,-2.07E-05,1.72E-06
912,-1.42E-05,1.19E-05,8.00E-06,-2.17E-05,-1.47E-05,9.21E-06
913,-9.59E-06,1.52E-05,3.46E-07,2.54E-05,-6.99E-06,1.44E-05
914,-1.03E-05,1.82E-05,5.06E-06,0.000107097,6.96E-07,1.41E-05
915,-1.77E-05,1.84E-05,1.13E-05,0.000139776,4.21E-06,1.15E-05
916,-2.72E-05,1.36E-05,1.75E-05,7.73E-05,2.42E-06,7.33E-06
917,-2.13E-05,9.30E-06,2.28E-05,2.07E-06,-1.77E-06,4.52E-06
918,-6.76E-06,9.15E-06,1.95E-05,-7.34E-06,-5.03E-06,5.41E-06
919,-4.45E-06,9.85E-06,1.52E-05,1.69E-05,-5.77E-06,5.52E-06
920,-8.45E-06,9.26E-06,2.15E-05,1.49E-05,-5.37E-06,2.34E-06
921,-6.07E-06,7.43E-06,3.29E-05,1.15E-05,-6.79E-06,-1.48E-07
922,3.08E-06,5.24E-06,3.84E-05,5.74E-05,-9.69E-06,3.12E-06
923,7.99E-06,4.23E-06,3.59E-05,0.000110576,-1.14E-05,6.96E-06
924,-7.67E-07,4.81E-06,2.99E-05,8.46E-05,-1.13E-05,3.52E-06
925,-1.13E-05,5.47E-06,2.73E-05,4.87E-06,-1.22E-05,-2.05E-06
926,-7.85E-06,6.93E-06,2.09E-05,-4.75E-05,-1.34E-05,-1.15E-06
927,5.15E-06,8.85E-06,7.95E-06,-4.69E-05,-1.22E-05,4.60E-06
928,1.47E-05,1.01E-05,2.93E-06,1.28E-05,-9.21E-06,9.58E-06
929,1.31E-05,1.06E-05,8.74E-06,8.82E-05,-5.55E-06,1.10E-05
930,1.50E-06,1.04E-05,1.69E-05,8.97E-05,-2.85E-06,1.01E-05
931,-9.11E-06,1.09E-05,2.18E-05,1.18E-05,-3.09E-06,1.11E-05
932,-6.79E-06,1.24E-05,1.87E-05,-5.51E-05,-6.57E-06,1.59E-05
933,5.00E-06,1.27E-05,9.14E-06,-5.42E-05,-1.15E-05,2.12E-05
934,1.19E-05,1.06E-05,5.80E-06,1.47E-05,-1.61E-05,2.45E-05
935,8.34E-06,8.34E-06,1.25E-05,0.000106634,-1.82E-05,2.66E-05
936,-1.60E-06,6.81E-06,1.98E-05,0.000133439,-1.74E-05,2.52E-05
937,-1.01E-05,4.70E-06,2.39E-05,7.00E-05,-1.54E-05,1.91E-05
938,-8.07E-06,3.30E-06,2.26E-05,-5.95E-07,-1.47E-05,1.38E-05
939,4.27E-06,5.91E-06,1.41E-05,-1.89E-05,-1.68E-05,1.34E-05
940,1.39E-05,1.15E-05,9.51E-06,2.47E-05,-2.21E-05,1.56E-05
941,1.11E-05,1.67E-05,1.53E-05,0.000112034,-2.83E-05,1.85E-05
942,-3.82E-06,1.82E-05,2.20E-05,0.000153988,-3.05E-05,1.96E-05
943,-2.02E-05,1.49E-05,2.88E-05,9.72E-05,-2.71E-05,1.62E-05
944,-2.15E-05,1.06E-05,3.54E-05,2.40E-05,-2.16E-05,1.24E-05
945,-1.06E-05,1.11E-05,3.65E-05,1.53E-05,-1.82E-05,1.10E-05
946,-4.03E-06,1.47E-05,3.29E-05,3.93E-05,-1.65E-05,1.03E-05
947,-2.83E-06,1.56E-05,2.66E-05,3.52E-05,-1.30E-05,1.13E-05
948,-2.13E-06,1.34E-05,2.35E-05,2.65E-05,-5.98E-06,1.63E-05
949,-1.87E-06,1.23E-05,2.26E-05,7.11E-05,1.85E-06,2.39E-05
950,-6.01E-06,1.52E-05,2.05E-05,0.000132014,3.25E-06,2.74E-05
951,-1.84E-05,1.94E-05,2.32E-05,0.000116453,-3.47E-06,2.43E-05
952,-2.87E-05,1.97E-05,3.10E-05,4.24E-05,-1.03E-05,1.92E-05
953,-2.36E-05,1.65E-05,3.00E-05,-4.92E-06,-1.14E-05,1.75E-05
954,-8.22E-06,1.35E-05,1.84E-05,5.05E-06,-8.93E-06,1.88E-05
955,3.17E-06,1.36E-05,1.39E-05,7.15E-05,-7.40E-06,1.91E-05
956,3.45E-06,1.60E-05,2.06E-05,0.000144565,-7.73E-06,1.59E-05
957,-6.93E-06,1.63E-05,2.83E-05,0.000141687,-7.71E-06,9.94E-06
958,-1.65E-05,1.31E-05,3.18E-05,6.64E-05,-5.14E-06,6.72E-06
959,-1.14E-05,1.01E-05,2.98E-05,5.43E-06,-9.81E-07,1.09E-05
960,2.82E-06,1.05E-05,2.46E-05,4.01E-06,1.71E-06,1.82E-05
961,9.19E-06,1.35E-05,2.73E-05,5.81E-05,9.62E-07,2.11E-05
962,3.23E-06,1.73E-05,3.83E-05,0.000129777,-2.75E-06,1.78E-05
963,-7.67E-06,1.90E-05,4.60E-05,0.000138821,-7.92E-06,1.29E-05
964,-1.34E-05,1.73E-05,4.98E-05,6.18E-05,-1.27E-05,1.05E-05
965,-5.68E-06,1.55E-05,4.83E-05,-1.50E-05,-1.57E-05,1.10E-05
966,8.99E-06,1.69E-05,3.50E-05,-2.86E-05,-1.66E-05,1.24E-05
967,1.56E-05,2.02E-05,2.06E-05,2.21E-05,-1.57E-05,1.19E-05
968,1.34E-05,2.47E-05,1.97E-05,0.000109076,-1.34E-05,8.00E-06
969,5.34E-06,2.76E-05,2.78E-05,0.000141022,-9.25E-06,1.22E-06
970,-5.97E-06,2.43E-05,4.00E-05,7.11E-05,-4.29E-06,-2.35E-06
971,-6.52E-06,1.81E-05,4.98E-05,-4.71E-06,-1.87E-06,1.85E-06
972,4.72E-06,1.37E-05,4.64E-05,3.24E-06,-2.25E-06,7.92E-06
973,1.09E-05,1.17E-05,3.76E-05,5.26E-05,-4.36E-06,1.08E-05
974,9.02E-06,1.13E-05,3.86E-05,5.67E-05,-7.94E-06,1.29E-05
975,7.34E-06,1.06E-05,4.85E-05,3.34E-05,-1.03E-05,1.42E-05
976,6.53E-06,1.06E-05,5.23E-05,5.78E-05,-9.84E-06,1.33E-05
977,-1.29E-06,1.23E-05,4.60E-05,0.000105888,-7.86E-06,1.09E-05
978,-1.89E-05,1.34E-05,3.92E-05,8.56E-05,-5.88E-06,7.72E-06
979,-3.28E-05,1.26E-05,3.58E-05,7.87E-06,-5.33E-06,6.68E-06
980,-2.98E-05,1.20E-05,2.79E-05,-4.20E-05,-5.21E-06,1.02E-05
981,-1.60E-05,1.16E-05,1.73E-05,-3.19E-05,-4.42E-06,1.54E-05
982,-5.97E-06,1.16E-05,1.73E-05,3.39E-05,-5.42E-06,1.78E-05
983,-7.13E-06,1.33E-05,2.56E-05,0.00010749,-1.11E-05,1.61E-05
984,-1.77E-05,1.52E-05,3.43E-05,0.000111765,-1.99E-05,1.17E-05
985,-2.44E-05,1.58E-05,4.22E-05,4.60E-05,-2.61E-05,7.53E-06
986,-1.57E-05,1.56E-05,4.49E-05,-1.38E-05,-2.71E-05,6.20E-06
987,1.45E-06,1.51E-05,4.07E-05,-1.96E-05,-2.46E-05,7.21E-06
988,1.22E-05,1.45E-05,3.91E-05,3.74E-05,-1.93E-05,8.27E-06
989,1.19E-05,1.49E-05,4.42E-05,0.000121613,-1.23E-05,8.83E-06
990,4.27E-06,1.65E-05,4.91E-05,0.000144867,-7.08E-06,9.32E-06
991,-3.70E-06,1.81E-05,5.13E-05,7.78E-05,-3.12E-06,1.06E-05
992,-3.40E-06,1.74E-05,4.95E-05,2.73E-06,1.14E-06,1.27E-05
993,6.05E-06,1.48E-05,4.07E-05,-1.52E-05,3.27E-06,1.43E-05
994,1.22E-05,1.42E-05,3.48E-05,3.46E-05,1.85E-06,1.53E-05
995,5.84E-06,1.77E-05,4.12E-05,0.000124519,3.35E-07,1.63E-05
996,-9.25E-06,2.19E-05,4.90E-05,0.000158337,1.71E-06,1.37E-05
997,-2.13E-05,2.24E-05,5.26E-05,8.68E-05,3.83E-06,7.54E-06
998,-1.92E-05,1.94E-05,5.29E-05,2.23E-06,3.19E-06,6.58E-06
999,-1.11E-05,1.66E-05,4.32E-05,-6.69E-06,-1.44E-06,1.24E-05
1000,-1.05E-05,1.58E-05,3.01E-05,2.68E-05,-9.07E-06,1.70E-05
1001,-1.30E-05,1.51E-05,3.03E-05,3.38E-05,-1.51E-05,1.86E-05
1002,-1.46E-05,1.40E-05,4.08E-05,3.06E-05,-1.76E-05,1.99E-05
1003,-1.57E-05,1.48E-05,4.57E-05,7.02E-05,-1.95E-05,1.91E-05
1004,-1.74E-05,1.80E-05,4.18E-05,0.000123284,-1.95E-05,1.39E-05
1005,-2.60E-05,1.99E-05,3.98E-05,0.000109392,-1.39E-05,7.96E-06
1006,-3.74E-05,1.76E-05,4.33E-05,4.12E-05,-4.92E-06,7.50E-06
1007,-3.58E-05,1.16E-05,3.87E-05,-4.49E-06,3.04E-07,1.18E-05
1008,-2.11E-05,5.29E-06,2.65E-05,2.06E-06,-1.22E-06,1.46E-05
1009,-7.89E-06,1.59E-06,2.41E-05,6.43E-05,-4.94E-06,1.35E-05
1010,-4.89E-06,7.49E-07,3.09E-05,0.000139462,-5.49E-06,1.01E-05
1011,-1.24E-05,1.23E-06,3.66E-05,0.000144998,-1.84E-06,6.81E-06
1012,-2.06E-05,2.19E-06,3.85E-05,7.68E-05,3.63E-06,6.53E-06
1013,-1.62E-05,3.39E-06,3.49E-05,1.33E-05,7.48E-06,9.65E-06
1014,-1.26E-06,5.17E-06,2.75E-05,-2.36E-07,7.53E-06,1.28E-05
1015,9.10E-06,7.98E-06,2.70E-05,4.03E-05,4.33E-06,1.27E-05
1016,7.93E-06,1.03E-05,3.56E-05,0.000105859,9.82E-07,9.56E-06
1017,-2.55E-06,9.85E-06,4.38E-05,0.000123146,-7.69E-07,7.02E-06
1018,-1.59E-05,8.52E-06,4.77E-05,6.90E-05,-2.52E-06,7.33E-06
1019,-2.03E-05,9.83E-06,4.19E-05,1.43E-05,-4.43E-06,9.12E-06
1020,-1.19E-05,1.19E-05,2.41E-05,4.45E-06,-4.75E-06,9.96E-06
1021,-2.01E-06,1.20E-05,1.36E-05,4.56E-05,-4.27E-06,8.40E-06
1022,-2.78E-06,1.13E-05,2.31E-05,0.000122439,-6.05E-06,6.67E-06
1023,-1.84E-05,9.56E-06,3.48E-05,0.000148336,-1.04E-05,5.93E-06
1024,-3.74E-05,5.82E-06,4.03E-05,7.73E-05,-1.37E-05,4.10E-06
1025,-3.71E-05,2.16E-06,4.76E-05,-1.51E-06,-1.22E-05,3.84E-06
1026,-2.20E-05,1.57E-06,5.01E-05,-8.31E-06,-8.02E-06,6.23E-06
1027,-1.37E-05,5.05E-06,4.35E-05,1.79E-05,-5.70E-06,7.87E-06
1028,-9.91E-06,1.00E-05,4.24E-05,1.45E-05,-5.35E-06,1.09E-05
1029,-2.63E-06,1.12E-05,5.04E-05,8.99E-06,-5.14E-06,1.49E-05
1030,3.34E-06,9.24E-06,5.24E-05,5.90E-05,-5.70E-06,1.54E-05
1031,3.45E-07,8.17E-06,4.66E-05,0.000122272,-8.70E-06,1.21E-05
1032,-1.36E-05,8.62E-06,4.37E-05,0.00010332,-1.20E-05,9.37E-06
1033,-2.86E-05,9.36E-06,4.38E-05,2.30E-05,-1.49E-05,9.96E-06
1034,-3.24E-05,9.47E-06,3.74E-05,-2.99E-05,-1.82E-05,1.34E-05
1035,-2.48E-05,9.57E-06,2.80E-05,-2.42E-05,-1.92E-05,1.95E-05
1036,-1.51E-05,1.11E-05,2.90E-05,4.10E-05,-1.55E-05,2.54E-05
1037,-1.10E-05,1.37E-05,3.57E-05,0.000118393,-1.05E-05,2.58E-05
1038,-1.43E-05,1.46E-05,3.73E-05,0.000121658,-8.86E-06,1.79E-05
1039,-1.70E-05,1.24E-05,3.58E-05,4.87E-05,-1.02E-05,8.38E-06
1040,-9.28E-06,9.10E-06,3.26E-05,-1.65E-05,-1.20E-05,6.34E-06
1041,5.49E-06,8.33E-06,2.63E-05,-2.22E-05,-1.24E-05,1.13E-05
1042,1.44E-05,1.07E-05,2.44E-05,3.68E-05,-1.24E-05,1.62E-05
1043,1.03E-05,1.43E-05,2.93E-05,0.000122635,-1.39E-05,1.60E-05
1044,-4.21E-06,1.63E-05,3.30E-05,0.000145346,-1.55E-05,1.17E-05
1045,-1.79E-05,1.50E-05,3.62E-05,7.47E-05,-1.39E-05,7.90E-06
1046,-1.84E-05,1.25E-05,3.98E-05,-3.24E-06,-1.05E-05,8.39E-06
1047,-6.22E-06,1.09E-05,3.68E-05,-2.16E-05,-9.75E-06,1.16E-05
1048,5.87E-06,9.25E-06,3.12E-05,2.84E-05,-1.07E-05,1.33E-05
1049,8.28E-06,8.86E-06,3.04E-05,0.000117409,-9.24E-06,1.26E-05
1050,1.45E-07,1.06E-05,3.17E-05,0.000145428,-6.57E-06,1.09E-05
1051,-1.02E-05,1.22E-05,3.61E-05,6.97E-05,-5.70E-06,9.42E-06
1052,-9.37E-06,1.28E-05,4.10E-05,-7.05E-06,-4.54E-06,1.23E-05
1053,-1.21E-06,1.26E-05,3.78E-05,-3.66E-06,-3.74E-06,1.94E-05
1054,6.04E-07,1.42E-05,3.01E-05,3.03E-05,-6.95E-06,2.34E-05
1055,-1.10E-06,1.69E-05,3.05E-05,2.81E-05,-1.32E-05,2.26E-05
1056,2.38E-06,1.81E-05,3.97E-05,2.00E-05,-1.90E-05,2.03E-05
1057,8.66E-06,1.94E-05,4.39E-05,6.41E-05,-2.04E-05,1.77E-05
1058,9.76E-06,2.11E-05,3.92E-05,0.000123761,-1.72E-05,1.49E-05
1059,1.76E-06,2.07E-05,3.40E-05,0.00010751,-1.16E-05,1.26E-05
1060,-5.91E-06,1.72E-05,3.26E-05,3.30E-05,-6.37E-06,1.33E-05
1061,1.47E-06,1.38E-05,2.64E-05,-1.29E-05,-3.99E-06,1.80E-05
1062,2.01E-05,1.32E-05,1.68E-05,7.96E-07,-4.07E-06,2.40E-05
1063,3.35E-05,1.39E-05,1.83E-05,7.34E-05,-5.21E-06,2.82E-05
1064,3.27E-05,1.35E-05,2.89E-05,0.000152336,-5.22E-06,3.04E-05
1065,1.92E-05,1.00E-05,3.81E-05,0.000149728,-4.05E-06,3.00E-05
1066,4.94E-06,5.24E-06,4.18E-05,6.73E-05,-3.49E-06,2.88E-05
1067,2.97E-06,3.28E-06,3.78E-05,-2.48E-06,-4.62E-06,2.97E-05
1068,1.01E-05,4.66E-06,2.84E-05,-6.56E-06,-7.02E-06,3.24E-05
1069,1.43E-05,8.13E-06,2.40E-05,4.89E-05,-9.92E-06,3.36E-05
1070,1.12E-05,1.37E-05,2.69E-05,0.000119039,-1.42E-05,3.19E-05
1071,1.74E-06,1.84E-05,2.92E-05,0.000125879,-1.95E-05,2.82E-05
1072,-8.75E-06,1.76E-05,2.92E-05,5.41E-05,-2.29E-05,2.45E-05
1073,-9.99E-06,1.44E-05,2.65E-05,-8.52E-06,-2.30E-05,2.22E-05
1074,-3.09E-07,1.44E-05,1.85E-05,-1.03E-05,-2.21E-05,1.95E-05
1075,8.52E-06,1.65E-05,1.30E-05,3.76E-05,-2.06E-05,1.61E-05
1076,6.08E-06,1.93E-05,1.45E-05,0.000109046,-1.65E-05,1.38E-05
1077,-8.96E-06,2.24E-05,1.66E-05,0.000129491,-1.22E-05,1.25E-05
1078,-2.47E-05,2.29E-05,1.97E-05,6.51E-05,-1.14E-05,1.11E-05
1079,-2.22E-05,2.14E-05,2.25E-05,-1.03E-06,-1.22E-05,1.14E-05
1080,-8.02E-06,2.07E-05,1.74E-05,1.23E-06,-1.13E-05,1.37E-05
1081,-1.71E-06,2.06E-05,6.50E-06,3.47E-05,-9.26E-06,1.60E-05
1082,-1.15E-06,2.09E-05,7.25E-06,3.70E-05,-8.18E-06,1.77E-05
1083,4.59E-07,2.06E-05,2.37E-05,2.84E-05,-7.40E-06,1.65E-05
1084,1.08E-06,1.90E-05,3.59E-05,6.88E-05,-7.88E-06,1.21E-05
1085,-2.64E-06,1.60E-05,3.60E-05,0.000130504,-1.12E-05,7.32E-06
1086,-1.23E-05,1.21E-05,3.23E-05,0.000123836,-1.22E-05,2.99E-06
1087,-2.07E-05,8.06E-06,2.77E-05,6.06E-05,-5.06E-06,8.82E-07
1088,-1.71E-05,6.29E-06,1.52E-05,1.81E-05,4.01E-06,3.50E-06
1089,-7.88E-06,7.30E-06,4.96E-08,2.25E-05,6.59E-06,8.95E-06
1090,-5.43E-06,8.19E-06,-2.58E-06,7.76E-05,3.92E-06,1.12E-05
1091,-1.10E-05,7.95E-06,5.06E-06,0.000142036,-1.13E-06,7.08E-06
1092,-2.05E-05,8.18E-06,1.19E-05,0.000136014,-8.01E-06,1.30E-06
1093,-2.76E-05,9.25E-06,1.46E-05,5.87E-05,-1.45E-05,-2.33E-08
1094,-2.38E-05,9.91E-06,1.29E-05,-5.75E-06,-1.70E-05,3.30E-06
1095,-7.73E-06,9.66E-06,8.03E-06,-9.45E-06,-1.52E-05,7.74E-06
1096,8.94E-06,9.89E-06,9.95E-06,4.34E-05,-1.01E-05,1.16E-05
1097,1.28E-05,1.23E-05,1.98E-05,0.000112326,-5.82E-07,1.45E-05
1098,1.67E-06,1.45E-05,2.69E-05,0.000121037,1.20E-05,1.50E-05
1099,-1.22E-05,1.31E-05,2.85E-05,5.18E-05,2.09E-05,1.22E-05
1100,-1.54E-05,9.78E-06,2.36E-05,-1.53E-05,1.93E-05,9.03E-06
1101,-1.06E-05,9.57E-06,1.09E-05,-3.03E-05,8.83E-06,9.23E-06
1102,-9.41E-06,1.37E-05,4.65E-06,8.40E-06,-1.44E-06,1.33E-05
1103,-1.27E-05,1.80E-05,1.07E-05,8.26E-05,-4.81E-06,1.69E-05
1104,-1.84E-05,1.73E-05,1.69E-05,0.000104066,-2.62E-06,1.41E-05
1105,-2.41E-05,1.32E-05,2.18E-05,2.52E-05,-1.80E-06,5.94E-06
1106,-1.82E-05,1.20E-05,2.21E-05,-6.12E-05,-5.36E-06,1.03E-06
1107,-3.14E-06,1.34E-05,1.32E-05,-6.84E-05,-9.92E-06,2.83E-06
1108,2.49E-06,1.29E-05,5.03E-06,-3.25E-05,-1.30E-05,5.95E-06
1109,2.60E-06,1.20E-05,5.00E-06,-2.42E-05,-1.48E-05,7.50E-06
1110,9.59E-06,1.24E-05,8.42E-06,-2.79E-05,-1.54E-05,9.80E-06
1111,1.68E-05,1.44E-05,7.87E-06,1.30E-05,-1.40E-05,1.27E-05
1112,1.30E-05,1.90E-05,4.91E-06,6.94E-05,-1.14E-05,1.29E-05
1113,-6.06E-06,2.42E-05,4.98E-06,5.78E-05,-9.33E-06,8.20E-06
1114,-2.69E-05,2.60E-05,9.26E-06,-6.80E-06,-7.21E-06,1.80E-06
1115,-3.03E-05,2.37E-05,5.39E-06,-4.83E-05,-5.88E-06,1.29E-06
1116,-1.94E-05,2.00E-05,-8.48E-06,-3.79E-05,-6.96E-06,7.22E-06
1117,-1.08E-05,1.77E-05,-1.34E-05,3.10E-05,-8.84E-06,1.37E-05
1118,-1.11E-05,1.71E-05,-5.63E-06,0.000111617,-9.33E-06,1.55E-05
1119,-1.65E-05,1.67E-05,3.57E-06,0.000116328,-8.43E-06,1.24E-05
1120,-2.00E-05,1.51E-05,7.49E-06,4.45E-05,-7.99E-06,9.50E-06
1121,-1.68E-05,1.27E-05,3.84E-06,-1.79E-05,-9.92E-06,9.08E-06
1122,-8.33E-06,1.12E-05,-4.67E-06,-2.08E-05,-1.32E-05,8.64E-06
1123,-1.70E-06,1.03E-05,-5.77E-06,3.83E-05,-1.38E-05,7.83E-06
1124,-2.53E-06,8.97E-06,3.30E-06,0.000119207,-9.82E-06,6.15E-06
1125,-1.06E-05,8.25E-06,1.11E-05,0.00013689,-5.83E-06,4.71E-07
1126,-1.83E-05,9.99E-06,1.53E-05,6.88E-05,-6.15E-06,-4.32E-06
1127,-1.55E-05,1.30E-05,1.65E-05,-1.05E-07,-8.73E-06,5.19E-08
1128,-3.97E-06,1.46E-05,1.08E-05,-1.26E-05,-1.05E-05,7.99E-06
1129,3.56E-06,1.50E-05,5.93E-06,3.08E-05,-1.09E-05,7.09E-06
1130,2.55E-06,1.52E-05,7.60E-06,0.000104996,-1.10E-05,-1.21E-06
1131,-6.25E-06,1.34E-05,1.10E-05,0.000125378,-1.21E-05,-6.33E-06
1132,-1.72E-05,9.99E-06,1.93E-05,5.25E-05,-1.34E-05,-6.41E-06
1133,-1.33E-05,9.89E-06,2.79E-05,-1.74E-05,-1.46E-05,-3.22E-06
1134,1.65E-06,1.14E-05,2.55E-05,-1.12E-05,-2.00E-05,1.94E-06
1135,6.01E-06,1.07E-05,1.58E-05,2.03E-05,-2.99E-05,4.74E-06
1136,2.64E-07,9.81E-06,1.17E-05,1.85E-05,-3.64E-05,6.06E-06
1137,-3.05E-06,1.07E-05,1.90E-05,1.26E-05,-3.45E-05,9.03E-06
1138,3.99E-07,1.19E-05,3.03E-05,5.47E-05,-2.72E-05,1.12E-05
1139,9.20E-07,1.14E-05,3.45E-05,0.000108099,-1.84E-05,7.97E-06
1140,-1.11E-05,1.01E-05,3.21E-05,8.92E-05,-1.23E-05,1.28E-06
1141,-2.59E-05,9.69E-06,3.13E-05,2.07E-05,-9.61E-06,1.09E-06
1142,-2.69E-05,1.10E-05,2.54E-05,-1.76E-05,-5.87E-06,9.87E-06
1143,-1.52E-05,1.28E-05,1.10E-05,-5.62E-06,-8.48E-07,1.75E-05
1144,-3.65E-06,1.34E-05,4.68E-06,5.75E-05,1.95E-06,1.70E-05
1145,-5.86E-07,1.36E-05,9.65E-06,0.000134161,1.95E-06,1.10E-05
1146,-8.59E-06,1.23E-05,1.56E-05,0.000141504,8.28E-08,6.66E-06
1147,-2.01E-05,9.27E-06,1.92E-05,7.12E-05,-1.81E-06,8.49E-06
1148,-2.25E-05,7.23E-06,1.66E-05,5.17E-06,-1.43E-06,1.39E-05
1149,-1.48E-05,7.54E-06,6.07E-06,-1.72E-06,7.97E-07,1.68E-05
1150,-6.60E-06,8.61E-06,-3.20E-07,5.49E-05,2.34E-06,1.49E-05
1151,-4.80E-06,8.77E-06,6.51E-06,0.00013273,2.35E-06,1.12E-05
1152,-1.03E-05,7.64E-06,1.81E-05,0.000145624,7.45E-07,9.62E-06
1153,-1.75E-05,6.25E-06,2.69E-05,7.49E-05,-2.29E-06,1.11E-05
1154,-1.62E-05,5.64E-06,3.00E-05,5.27E-06,-5.49E-06,1.56E-05
1155,-6.32E-06,5.11E-06,2.47E-05,-1.12E-05,-6.96E-06,2.23E-05
1156,1.05E-06,3.76E-06,2.07E-05,3.14E-05,-6.10E-06,2.67E-05
1157,2.52E-07,3.74E-06,2.49E-05,0.000119132,-2.54E-06,2.71E-05
1158,-9.83E-06,4.84E-06,2.65E-05,0.000164015,2.23E-06,2.56E-05
1159,-2.30E-05,4.73E-06,2.61E-05,0.000103566,3.41E-06,2.10E-05
1160,-2.18E-05,5.84E-06,2.75E-05,1.66E-05,1.77E-06,1.71E-05
1161,-6.47E-06,8.37E-06,2.44E-05,2.43E-07,1.01E-06,1.88E-05
1162,3.90E-06,1.05E-05,1.79E-05,2.96E-05,-2.17E-07,2.21E-05
1163,6.93E-06,1.09E-05,1.64E-05,3.46E-05,-3.16E-06,2.46E-05
1164,9.93E-06,9.13E-06,2.21E-05,3.27E-05,-5.78E-06,2.80E-05
1165,1.26E-05,9.44E-06,2.63E-05,7.69E-05,-6.90E-06,3.12E-05
1166,1.20E-05,1.33E-05,2.74E-05,0.000129159,-7.29E-06,2.90E-05
1167,4.91E-06,1.63E-05,3.38E-05,0.000102413,-7.41E-06,2.04E-05
1168,-3.25E-06,1.57E-05,4.25E-05,1.99E-05,-6.85E-06,1.20E-05
1169,-1.11E-06,1.38E-05,3.77E-05,-3.04E-05,-7.08E-06,1.23E-05
1170,8.21E-06,1.27E-05,2.38E-05,-2.05E-05,-9.68E-06,1.84E-05
1171,1.45E-05,1.38E-05,2.16E-05,4.89E-05,-1.28E-05,2.02E-05
1172,1.45E-05,1.65E-05,3.28E-05,0.000131403,-1.34E-05,1.51E-05
1173,7.15E-06,1.64E-05,4.58E-05,0.000141656,-1.10E-05,8.25E-06
1174,-3.00E-06,1.25E-05,5.28E-05,7.35E-05,-7.25E-06,6.08E-06
1175,-5.35E-06,9.55E-06,5.00E-05,8.24E-06,-4.63E-06,1.03E-05
1176,1.37E-06,9.66E-06,3.96E-05,-2.45E-06,-5.57E-06,1.58E-05
1177,7.80E-06,1.11E-05,3.21E-05,4.63E-05,-8.15E-06,1.61E-05
1178,7.17E-06,1.16E-05,3.24E-05,0.000119694,-8.53E-06,1.10E-05
1179,-2.10E-06,1.11E-05,3.52E-05,0.000137624,-6.68E-06,5.67E-06
1180,-1.46E-05,1.12E-05,3.71E-05,7.50E-05,-4.87E-06,5.63E-06
1181,-1.83E-05,1.18E-05,3.36E-05,1.18E-05,-4.33E-06,1.10E-05
1182,-1.06E-05,1.22E-05,2.46E-05,3.12E-06,-5.18E-06,1.59E-05
1183,-2.89E-06,1.41E-05,2.26E-05,4.86E-05,-7.40E-06,1.69E-05
1184,-2.55E-06,1.59E-05,3.16E-05,0.000123404,-1.06E-05,1.70E-05
1185,-1.03E-05,1.36E-05,4.11E-05,0.000142155,-1.37E-05,1.48E-05
1186,-2.10E-05,8.87E-06,5.04E-05,6.62E-05,-1.41E-05,9.24E-06
1187,-2.16E-05,6.53E-06,5.74E-05,-1.07E-05,-1.17E-05,8.56E-06
1188,-1.07E-05,8.81E-06,5.35E-05,-2.90E-06,-9.89E-06,1.33E-05
1189,-2.27E-06,1.38E-05,4.46E-05,4.94E-05,-8.43E-06,1.59E-05
1190,6.01E-07,1.78E-05,4.50E-05,5.47E-05,-5.35E-06,1.55E-05
1191,2.89E-06,1.92E-05,5.36E-05,2.77E-05,-6.67E-06,1.47E-05
1192,4.20E-06,1.89E-05,5.64E-05,5.28E-05,-1.51E-05,1.48E-05
1193,-3.99E-07,1.89E-05,5.13E-05,0.000104163,-2.52E-05,1.73E-05
1194,-1.42E-05,1.99E-05,4.84E-05,8.16E-05,-3.05E-05,1.83E-05
1195,-2.46E-05,2.04E-05,5.03E-05,4.87E-06,-3.07E-05,1.61E-05
1196,-1.66E-05,1.85E-05,4.80E-05,-3.63E-05,-2.99E-05,1.36E-05
1197,1.99E-06,1.60E-05,4.09E-05,-2.17E-05,-2.66E-05,1.12E-05
1198,1.43E-05,1.66E-05,3.99E-05,4.35E-05,-1.59E-05,8.68E-06
1199,1.29E-05,1.86E-05,4.42E-05,0.000118456,2.05E-06,6.95E-06
1200,-1.18E-06,1.80E-05,4.77E-05,0.000123558,1.95E-05,5.91E-06
1201,-1.71E-05,1.59E-05,4.93E-05,5.52E-05,2.81E-05,6.13E-06
1202,-2.08E-05,1.45E-05,4.56E-05,-5.47E-06,2.47E-05,9.59E-06
1203,-1.19E-05,1.23E-05,3.64E-05,-9.41E-06,1.36E-05,1.52E-05
1204,-3.25E-06,1.05E-05,3.27E-05,4.44E-05,3.50E-06,1.89E-05
1205,-3.93E-06,1.13E-05,3.64E-05,0.000117275,-1.17E-06,1.79E-05
1206,-1.48E-05,1.28E-05,3.70E-05,0.000127752,-3.64E-06,1.25E-05
1207,-2.74E-05,1.33E-05,3.60E-05,5.68E-05,-6.29E-06,7.25E-06
1208,-2.71E-05,1.41E-05,3.60E-05,-1.12E-05,-7.46E-06,6.84E-06
1209,-1.18E-05,1.42E-05,3.05E-05,-2.31E-05,-8.05E-06,9.05E-06
1210,4.04E-06,1.40E-05,2.50E-05,2.02E-05,-1.00E-05,9.15E-06
1211,8.75E-06,1.71E-05,2.79E-05,9.56E-05,-1.10E-05,6.89E-06
1212,-8.26E-07,2.25E-05,3.24E-05,0.000120819,-7.23E-06,4.42E-06
1213,-1.44E-05,2.34E-05,3.61E-05,5.48E-05,-2.60E-06,3.68E-06
1214,-1.32E-05,1.89E-05,3.91E-05,-1.49E-05,-5.17E-06,9.14E-06
1215,-2.96E-06,1.54E-05,3.24E-05,-1.12E-05,-9.51E-06,1.61E-05
1216,-8.95E-07,1.63E-05,1.83E-05,2.21E-05,-8.41E-06,1.32E-05
1217,-1.71E-06,1.90E-05,1.71E-05,1.85E-05,-7.17E-06,4.98E-06
1218,1.65E-06,1.91E-05,3.38E-05,6.14E-06,-9.05E-06,1.37E-06
1219,4.82E-06,1.74E-05,4.73E-05,4.76E-05,-1.18E-05,2.10E-06
1220,5.66E-07,1.73E-05,4.60E-05,0.000110208,-1.48E-05,-3.21E-07
1221,-1.72E-05,1.59E-05,4.14E-05,9.83E-05,-1.89E-05,-5.53E-06
1222,-3.60E-05,1.09E-05,4.11E-05,2.32E-05,-2.23E-05,-5.73E-06
1223,-3.62E-05,5.85E-06,3.46E-05,-2.81E-05,-2.30E-05,4.07E-07
1224,-2.32E-05,3.66E-06,2.21E-05,-2.12E-05,-2.28E-05,8.14E-06
1225,-1.39E-05,5.27E-06,1.96E-05,4.62E-05,-2.36E-05,1.35E-05
1226,-1.39E-05,1.00E-05,2.74E-05,0.00012754,-2.44E-05,1.52E-05
1227,-1.91E-05,1.42E-05,3.49E-05,0.000136804,-2.37E-05,1.30E-05
1228,-2.06E-05,1.54E-05,3.89E-05,6.50E-05,-2.11E-05,1.03E-05
1229,-1.20E-05,1.45E-05,3.79E-05,-5.77E-06,-1.84E-05,1.27E-05
1230,1.57E-06,1.31E-05,3.13E-05,-1.87E-05,-1.73E-05,2.04E-05
1231,7.73E-06,1.31E-05,2.90E-05,3.61E-05,-1.65E-05,2.78E-05
1232,2.42E-06,1.47E-05,3.56E-05,0.000120404,-1.32E-05,3.03E-05
1233,-9.63E-06,1.59E-05,4.36E-05,0.000142683,-8.09E-06,2.66E-05
1234,-1.76E-05,1.37E-05,4.92E-05,7.55E-05,-3.24E-06,2.07E-05
1235,-1.13E-05,8.89E-06,4.82E-05,4.72E-06,-2.01E-07,1.84E-05
1236,3.45E-06,5.55E-06,3.74E-05,-1.02E-05,-8.31E-07,1.98E-05
1237,1.21E-05,6.73E-06,3.04E-05,3.80E-05,-6.31E-06,2.05E-05
1238,1.23E-05,1.23E-05,3.64E-05,0.000131476,-1.38E-05,1.84E-05
1239,6.20E-06,1.59E-05,4.38E-05,0.000177646,-1.82E-05,1.47E-05
1240,-3.07E-06,1.33E-05,4.90E-05,0.000117901,-1.80E-05,1.34E-05
1241,-3.18E-06,9.84E-06,5.28E-05,3.39E-05,-1.69E-05,1.61E-05
1242,5.88E-06,1.00E-05,4.87E-05,1.19E-05,-1.79E-05,1.93E-05
1243,1.22E-05,1.26E-05,3.86E-05,2.87E-05,-1.91E-05,1.95E-05
1244,1.53E-05,1.39E-05,3.52E-05,2.91E-05,-1.62E-05,1.66E-05
1245,1.55E-05,1.19E-05,4.24E-05,2.90E-05,-7.77E-06,1.32E-05
1246,1.11E-05,8.75E-06,4.59E-05,7.67E-05,4.09E-07,1.33E-05
1247,2.17E-06,7.71E-06,4.03E-05,0.000136337,1.23E-06,1.60E-05
1248,-1.09E-05,8.32E-06,3.70E-05,0.00011838,-5.08E-06,1.58E-05
1249,-1.82E-05,8.37E-06,3.82E-05,4.08E-05,-9.98E-06,1.33E-05
1250,-1.24E-05,7.70E-06,3.14E-05,-7.29E-06,-7.83E-06,1.33E-05
1251,-2.53E-06,7.36E-06,1.68E-05,4.99E-06,-3.28E-06,1.50E-05
1252,1.54E-06,8.43E-06,1.16E-05,7.62E-05,-6.75E-07,1.43E-05
1253,-7.16E-07,1.00E-05,1.91E-05,0.000160967,1.02E-07,1.04E-05
1254,-7.23E-06,1.01E-05,3.14E-05,0.000171793,-2.18E-07,6.03E-06
1255,-1.23E-05,9.41E-06,4.24E-05,9.60E-05,-1.38E-06,5.16E-06
1256,-7.36E-06,8.66E-06,4.49E-05,1.74E-05,-3.40E-06,8.26E-06
1257,5.44E-06,6.47E-06,3.80E-05,-2.04E-06,-5.93E-06,1.15E-05
1258,1.41E-05,4.05E-06,3.44E-05,4.40E-05,-8.25E-06,1.32E-05
1259,1.12E-05,4.79E-06,4.06E-05,0.000115649,-1.06E-05,1.45E-05
1260,-1.82E-06,8.44E-06,4.80E-05,0.00013287,-1.39E-05,1.38E-05
1261,-1.59E-05,1.16E-05,5.20E-05,7.15E-05,-1.75E-05,1.04E-05
1262,-1.98E-05,1.33E-05,5.02E-05,9.35E-06,-1.96E-05,8.42E-06
1263,-1.30E-05,1.47E-05,4.06E-05,3.60E-06,-1.84E-05,1.01E-05
1264,-5.18E-06,1.65E-05,3.36E-05,5.34E-05,-1.46E-05,1.20E-05
1265,-5.27E-06,1.86E-05,3.58E-05,0.000127474,-1.22E-05,1.19E-05
1266,-1.56E-05,1.90E-05,3.75E-05,0.000138356,-1.27E-05,1.09E-05
1267,-2.61E-05,1.66E-05,3.53E-05,4.92E-05,-1.03E-05,1.01E-05
1268,-2.05E-05,1.42E-05,3.18E-05,-4.25E-05,-1.23E-06,1.32E-05
1269,-6.55E-06,1.46E-05,2.65E-05,-5.30E-05,8.14E-06,2.10E-05
1270,-3.93E-06,1.57E-05,2.17E-05,-2.34E-05,1.06E-05,2.51E-05
1271,-7.47E-06,1.49E-05,2.20E-05,-1.75E-05,8.17E-06,2.30E-05
1272,-8.72E-06,1.41E-05,2.90E-05,-1.09E-05,5.82E-06,2.03E-05
1273,-1.07E-05,1.64E-05,3.40E-05,4.25E-05,3.02E-06,1.90E-05
1274,-1.75E-05,2.06E-05,3.22E-05,0.000101092,-1.42E-06,1.68E-05
1275,-3.02E-05,2.27E-05,2.89E-05,8.21E-05,-4.42E-06,1.23E-05
1276,-4.07E-05,2.07E-05,2.71E-05,6.02E-06,-2.98E-06,1.06E-05
1277,-4.07E-05,1.74E-05,1.88E-05,-4.81E-05,-8.95E-07,1.44E-05
1278,-3.43E-05,1.51E-05,4.74E-06,-4.98E-05,-2.74E-06,1.89E-05
1279,-2.84E-05,1.47E-05,8.70E-07,1.45E-05,-7.36E-06,2.03E-05
1280,-2.48E-05,1.63E-05,8.08E-06,0.000104022,-1.05E-05,1.81E-05
1281,-2.60E-05,1.82E-05,1.62E-05,0.000124873,-1.00E-05,1.27E-05
1282,-3.05E-05,1.96E-05,2.30E-05,6.12E-05,-7.99E-06,7.96E-06
1283,-3.00E-05,2.01E-05,2.63E-05,-6.23E-06,-7.30E-06,8.90E-06
1284,-2.26E-05,1.88E-05,2.39E-05,-1.95E-05,-8.02E-06,1.33E-05
1285,-1.53E-05,1.65E-05,2.48E-05,3.19E-05,-8.88E-06,1.50E-05
1286,-1.28E-05,1.56E-05,3.24E-05,0.000111865,-9.66E-06,1.19E-05
1287,-1.60E-05,1.57E-05,3.70E-05,0.000133936,-9.22E-06,6.19E-06
1288,-1.99E-05,1.39E-05,3.61E-05,7.11E-05,-6.62E-06,2.22E-06
1289,-1.54E-05,1.13E-05,3.02E-05,4.37E-06,-4.69E-06,4.44E-06
1290,-5.09E-06,1.13E-05,1.83E-05,-9.66E-06,-7.26E-06,1.11E-05
1291,-1.69E-06,1.21E-05,1.40E-05,3.16E-05,-1.19E-05,1.60E-05
1292,-5.28E-06,1.11E-05,2.33E-05,0.000108992,-1.14E-05,1.59E-05
1293,-1.08E-05,1.01E-05,3.18E-05,0.000138998,-5.82E-06,9.33E-06
1294,-1.68E-05,9.59E-06,3.80E-05,7.34E-05,-2.69E-06,9.15E-07
1295,-1.29E-05,9.68E-06,4.43E-05,-4.00E-06,-3.43E-06,1.39E-06
1296,7.16E-07,1.08E-05,4.26E-05,-1.06E-05,-3.07E-06,9.77E-06
1297,8.84E-06,1.16E-05,3.23E-05,1.91E-05,-9.41E-07,1.59E-05
1298,1.05E-05,1.20E-05,2.58E-05,1.88E-05,-7.82E-07,1.69E-05
1299,1.19E-05,1.25E-05,2.94E-05,1.18E-05,-3.50E-06,1.33E-05
1300,1.07E-05,1.29E-05,3.57E-05,5.80E-05,-6.19E-06,9.38E-06
1301,5.11E-06,1.37E-05,3.81E-05,0.000120024,-6.56E-06,9.36E-06
1302,-5.67E-06,1.32E-05,3.67E-05,0.000102614,-4.90E-06,1.09E-05
1303,-1.51E-05,1.14E-05,3.25E-05,1.76E-05,-4.29E-06,1.19E-05
1304,-1.20E-05,1.04E-05,2.08E-05,-4.93E-05,-8.01E-06,1.33E-05
1305,-3.84E-07,1.03E-05,4.55E-06,-6.10E-05,-1.39E-05,1.58E-05
1306,7.35E-06,1.11E-05,-1.07E-06,-3.72E-06,-1.67E-05,1.75E-05
1307,6.01E-06,1.20E-05,6.56E-06,8.32E-05,-1.58E-05,1.71E-05
1308,-2.84E-06,1.08E-05,1.70E-05,0.000104038,-1.40E-05,1.42E-05
1309,-1.09E-05,7.53E-06,2.19E-05,4.18E-05,-1.43E-05,1.13E-05
1310,-9.23E-06,5.02E-06,1.75E-05,-2.35E-05,-1.60E-05,1.26E-05
1311,-8.30E-08,4.07E-06,7.88E-06,-3.59E-05,-1.61E-05,1.83E-05
1312,5.64E-06,4.45E-06,3.87E-06,1.47E-05,-1.38E-05,2.25E-05
1313,2.17E-06,6.78E-06,7.57E-06,9.43E-05,-1.10E-05,1.90E-05
1314,-9.11E-06,1.01E-05,1.20E-05,0.000115671,-9.03E-06,8.89E-06
1315,-2.05E-05,1.17E-05,1.65E-05,4.70E-05,-7.14E-06,2.70E-06
1316,-2.02E-05,1.05E-05,1.79E-05,-2.64E-05,-6.97E-06,7.60E-06
1317,-8.51E-06,6.53E-06,1.09E-05,-3.38E-05,-1.18E-05,1.71E-05
1318,7.65E-07,2.85E-06,6.22E-06,2.84E-05,-1.82E-05,2.35E-05
1319,-1.29E-07,3.39E-06,1.13E-05,0.000119704,-2.05E-05,2.58E-05
1320,-9.92E-06,6.68E-06,1.58E-05,0.000144481,-1.94E-05,2.36E-05
1321,-2.04E-05,8.71E-06,2.14E-05,7.18E-05,-1.66E-05,1.71E-05
1322,-1.87E-05,8.20E-06,3.15E-05,-2.34E-07,-1.47E-05,1.15E-05
1323,-7.31E-06,6.25E-06,3.30E-05,-2.31E-06,-1.76E-05,1.02E-05
1324,-1.15E-07,6.14E-06,2.32E-05,2.22E-05,-2.20E-05,1.11E-05
1325,1.37E-06,9.37E-06,1.75E-05,1.99E-05,-2.22E-05,1.19E-05
1326,3.63E-06,1.27E-05,2.26E-05,2.02E-05,-1.76E-05,1.08E-05
1327,1.03E-05,1.45E-05,2.89E-05,7.23E-05,-1.14E-05,8.24E-06
1328,1.64E-05,1.48E-05,2.96E-05,0.000132491,-3.77E-06,4.60E-06
1329,1.28E-05,1.11E-05,2.87E-05,0.000110681,4.90E-06,-5.34E-07
1330,5.20E-06,6.12E-06,3.06E-05,2.85E-05,1.05E-05,-3.22E-06
1331,6.24E-06,5.71E-06,2.68E-05,-2.33E-05,1.01E-05,7.03E-07
1332,1.35E-05,8.33E-06,1.49E-05,-1.65E-05,4.55E-06,7.49E-06
1333,1.67E-05,1.02E-05,9.87E-06,4.65E-05,-3.96E-06,1.09E-05
1334,1.17E-05,1.06E-05,1.48E-05,0.000120892,-1.15E-05,9.62E-06
1335,8.66E-07,9.56E-06,2.18E-05,0.000127243,-1.40E-05,6.15E-06
1336,-7.12E-06,7.84E-06,2.54E-05,6.26E-05,-1.11E-05,5.07E-06
1337,-4.50E-06,7.58E-06,2.04E-05,2.21E-06,-5.86E-06,8.47E-06
1338,5.97E-06,9.44E-06,9.40E-06,-9.82E-06,-1.68E-06,1.30E-05
1339,1.35E-05,9.94E-06,6.21E-06,3.50E-05,-3.71E-07,1.61E-05
1340,1.16E-05,7.64E-06,1.32E-05,0.00011263,-2.91E-06,1.74E-05
1341,1.97E-06,5.92E-06,1.92E-05,0.000142318,-7.15E-06,1.42E-05
1342,-8.91E-06,5.44E-06,2.13E-05,8.58E-05,-9.07E-06,7.50E-06
1343,-1.07E-05,5.27E-06,1.93E-05,1.58E-05,-8.25E-06,4.07E-06
1344,-1.33E-06,6.57E-06,1.26E-05,-1.61E-06,-6.54E-06,6.91E-06
1345,4.89E-06,8.96E-06,1.13E-05,4.58E-05,-5.24E-06,1.17E-05
1346,1.23E-06,1.01E-05,2.04E-05,0.000133763,-5.41E-06,1.23E-05
1347,-5.95E-06,9.01E-06,2.85E-05,0.000165248,-7.71E-06,7.55E-06
1348,-1.07E-05,8.83E-06,3.32E-05,8.79E-05,-1.03E-05,4.34E-06
1349,-8.26E-06,1.13E-05,3.75E-05,-4.09E-06,-1.05E-05,7.87E-06
1350,-6.47E-06,1.32E-05,3.52E-05,-1.55E-05,-1.04E-05,1.23E-05
1351,-1.23E-05,1.28E-05,2.66E-05,2.10E-05,-1.24E-05,1.32E-05
1352,-1.40E-05,1.17E-05,2.31E-05,3.15E-05,-1.47E-05,1.48E-05
1353,-6.62E-06,1.19E-05,2.81E-05,3.65E-05,-1.68E-05,1.60E-05
1354,-1.26E-06,1.37E-05,3.04E-05,9.13E-05,-1.70E-05,1.16E-05
1355,-6.77E-06,1.58E-05,2.43E-05,0.00015434,-1.38E-05,3.35E-06
1356,-1.98E-05,1.68E-05,1.94E-05,0.000136005,-1.03E-05,-2.89E-06
1357,-2.53E-05,1.69E-05,2.11E-05,5.60E-05,-8.11E-06,-2.95E-06
1358,-1.51E-05,1.72E-05,1.67E-05,3.17E-07,-7.30E-06,2.81E-06
1359,-1.43E-06,1.95E-05,3.99E-06,-8.24E-07,-8.81E-06,1.05E-05
1360,1.60E-06,2.32E-05,-1.67E-07,5.81E-05,-1.12E-05,1.66E-05
1361,-6.23E-06,2.57E-05,6.67E-06,0.000137153,-1.29E-05,1.75E-05
1362,-1.73E-05,2.40E-05,1.45E-05,0.000150402,-1.33E-05,1.24E-05
1363,-2.31E-05,1.82E-05,1.93E-05,8.35E-05,-1.21E-05,6.96E-06
1364,-1.77E-05,1.25E-05,1.86E-05,1.30E-05,-1.08E-05,6.91E-06
1365,-5.04E-06,1.06E-05,1.03E-05,-3.33E-06,-1.16E-05,1.08E-05
1366,4.22E-06,1.20E-05,2.62E-06,4.93E-05,-1.42E-05,1.31E-05
1367,4.42E-06,1.34E-05,3.94E-06,0.000131738,-1.67E-05,1.06E-05
1368,-2.49E-06,1.27E-05,1.22E-05,0.000151199,-1.76E-05,4.51E-06
1369,-1.05E-05,1.05E-05,2.47E-05,7.99E-05,-1.53E-05,4.89E-07
1370,-1.25E-05,8.96E-06,3.17E-05,1.81E-06,-1.02E-05,5.47E-06
1371,-7.71E-06,9.45E-06,2.24E-05,-1.96E-05,-7.34E-06,1.57E-05
1372,-3.44E-06,1.22E-05,8.13E-06,2.40E-05,-1.01E-05,2.03E-05
1373,-4.09E-06,1.69E-05,5.16E-06,0.000107497,-1.50E-05,1.90E-05
1374,-1.21E-05,2.10E-05,8.61E-06,0.000140183,-1.66E-05,1.69E-05
1375,-2.44E-05,2.06E-05,1.33E-05,7.39E-05,-1.30E-05,1.44E-05
1376,-2.61E-05,1.65E-05,2.11E-05,-2.39E-06,-7.76E-06,1.25E-05
1377,-1.73E-05,1.34E-05,2.37E-05,-4.96E-06,-5.62E-06,1.43E-05
1378,-1.14E-05,1.37E-05,1.71E-05,2.30E-05,-6.57E-06,1.98E-05
1379,-7.41E-06,1.58E-05,1.64E-05,1.83E-05,-6.29E-06,2.35E-05
1380,-1.40E-06,1.64E-05,2.84E-05,1.24E-05,-4.67E-06,2.39E-05
1381,2.07E-06,1.54E-05,3.77E-05,6.40E-05,-5.23E-06,2.34E-05
1382,-4.64E-06,1.51E-05,3.56E-05,0.00013368,-7.57E-06,2.04E-05
1383,-2.18E-05,1.45E-05,3.18E-05,0.000124567,-7.04E-06,1.46E-05
1384,-3.64E-05,1.23E-05,3.14E-05,4.86E-05,-2.24E-06,1.09E-05
1385,-3.62E-05,9.89E-06,2.30E-05,-7.43E-06,2.37E-06,1.25E-05
1386,-2.46E-05,8.65E-06,7.07E-06,-9.92E-06,2.46E-06,1.57E-05
1387,-1.24E-05,9.07E-06,2.47E-06,4.88E-05,-1.68E-07,1.70E-05
1388,-7.03E-06,1.14E-05,1.15E-05,0.000130297,-1.51E-06,1.61E-05
1389,-1.17E-05,1.44E-05,2.27E-05,0.000144614,-1.69E-06,1.52E-05
1390,-1.87E-05,1.59E-05,3.08E-05,7.46E-05,-1.60E-06,1.64E-05
1391,-1.54E-05,1.56E-05,3.00E-05,-1.05E-07,-1.90E-06,1.91E-05
1392,-3.28E-06,1.42E-05,2.00E-05,-1.86E-05,-3.39E-06,2.04E-05
1393,5.22E-06,1.34E-05,1.48E-05,3.17E-05,-5.87E-06,1.93E-05
1394,6.32E-06,1.43E-05,2.11E-05,0.000113248,-7.74E-06,1.67E-05
1395,2.12E-06,1.36E-05,3.18E-05,0.000136827,-7.36E-06,1.26E-05
1396,-3.55E-06,9.50E-06,4.30E-05,7.14E-05,-6.02E-06,9.76E-06
1397,-1.19E-06,6.54E-06,4.76E-05,2.65E-07,-8.04E-06,1.13E-05
1398,1.02E-05,8.34E-06,3.93E-05,-1.14E-05,-1.43E-05,1.45E-05
1399,1.85E-05,1.25E-05,3.07E-05,3.20E-05,-1.93E-05,1.57E-05
1400,1.68E-05,1.43E-05,3.34E-05,0.000100165,-1.76E-05,1.59E-05
1401,4.35E-06,1.09E-05,3.91E-05,0.000118582,-1.16E-05,1.54E-05
1402,-1.28E-05,5.87E-06,4.20E-05,5.22E-05,-7.16E-06,1.40E-05
1403,-1.61E-05,3.99E-06,4.02E-05,-1.93E-05,-5.14E-06,1.48E-05
1404,-3.12E-06,6.27E-06,3.11E-05,-2.64E-05,-3.83E-06,1.62E-05
1405,8.52E-06,1.02E-05,2.20E-05,-3.69E-06,-5.48E-07,1.55E-05
1406,1.31E-05,1.08E-05,2.33E-05,-8.34E-06,5.42E-06,1.69E-05
1407,1.42E-05,7.24E-06,3.56E-05,-1.77E-05,9.56E-06,1.97E-05
1408,1.26E-05,5.64E-06,4.68E-05,2.47E-05,7.10E-06,2.01E-05
1409,6.50E-06,9.29E-06,4.75E-05,8.48E-05,3.33E-07,1.75E-05
1410,-5.64E-06,1.48E-05,4.29E-05,6.95E-05,-2.95E-06,1.37E-05
1411,-1.73E-05,1.65E-05,4.10E-05,-4.05E-06,-2.96E-06,1.42E-05
1412,-2.01E-05,1.48E-05,3.52E-05,-4.51E-05,-5.77E-06,1.91E-05
1413,-1.74E-05,1.44E-05,2.32E-05,-3.11E-05,-1.13E-05,2.15E-05
1414,-1.54E-05,1.66E-05,1.96E-05,3.11E-05,-1.49E-05,1.72E-05
1415,-1.46E-05,1.74E-05,2.65E-05,0.000100832,-1.48E-05,9.49E-06
1416,-1.71E-05,1.29E-05,3.56E-05,0.000103178,-1.42E-05,3.99E-06
1417,-2.09E-05,6.39E-06,4.40E-05,3.62E-05,-1.42E-05,4.79E-06
1418,-1.62E-05,4.35E-06,4.52E-05,-2.22E-05,-1.35E-05,1.14E-05
1419,-1.78E-06,7.22E-06,3.60E-05,-2.43E-05,-1.34E-05,1.86E-05
1420,9.40E-06,1.05E-05,2.87E-05,3.34E-05,-1.38E-05,2.28E-05
1421,7.81E-06,1.12E-05,3.27E-05,0.000115373,-1.36E-05,2.34E-05
1422,-4.20E-06,9.90E-06,4.02E-05,0.000139357,-1.34E-05,2.01E-05
1423,-1.55E-05,8.75E-06,4.32E-05,7.76E-05,-1.35E-05,1.54E-05
1424,-1.38E-05,8.68E-06,3.86E-05,8.86E-06,-1.47E-05,1.54E-05
1425,-2.49E-06,8.48E-06,2.74E-05,-5.37E-06,-2.05E-05,1.93E-05
1426,5.14E-06,7.95E-06,2.14E-05,3.92E-05,-3.03E-05,1.90E-05
1427,5.17E-06,8.24E-06,2.55E-05,0.000115007,-3.80E-05,1.31E-05
1428,-2.57E-06,8.88E-06,3.06E-05,0.000136515,-3.95E-05,6.80E-06
1429,-1.38E-05,8.91E-06,3.64E-05,6.73E-05,-3.63E-05,3.42E-06
1430,-1.24E-05,9.44E-06,4.23E-05,-4.01E-06,-3.00E-05,3.99E-06
1431,2.22E-07,1.22E-05,3.92E-05,-4.64E-06,-1.87E-05,6.46E-06
1432,5.55E-06,1.53E-05,3.22E-05,2.50E-05,-3.48E-06,8.76E-06
1433,5.37E-06,1.61E-05,3.37E-05,2.43E-05,1.06E-05,1.04E-05
1434,6.88E-06,1.61E-05,4.29E-05,1.66E-05,2.12E-05,1.22E-05
1435,5.46E-06,1.75E-05,4.91E-05,6.10E-05,2.52E-05,1.61E-05
1436,-2.67E-06,1.94E-05,4.80E-05,0.000126557,2.09E-05,1.85E-05
1437,-1.48E-05,1.96E-05,4.68E-05,0.000118763,1.32E-05,1.38E-05
1438,-2.08E-05,1.91E-05,4.78E-05,4.49E-05,8.14E-06,6.82E-06
1439,-1.43E-05,1.84E-05,4.17E-05,-1.02E-05,6.73E-06,6.34E-06
1440,-3.46E-06,1.73E-05,3.07E-05,-9.70E-06,7.37E-06,1.02E-05
1441,8.77E-07,1.74E-05,2.93E-05,5.33E-05,7.09E-06,1.21E-05
1442,-2.87E-06,1.92E-05,3.55E-05,0.000133745,3.18E-06,9.16E-06
1443,-1.31E-05,1.99E-05,3.84E-05,0.000142443,-1.98E-06,4.00E-06
1444,-2.39E-05,1.84E-05,3.74E-05,7.04E-05,-3.73E-06,2.87E-06
1445,-2.61E-05,1.71E-05,3.23E-05,1.82E-08,-2.75E-06,8.01E-06
1446,-2.03E-05,1.71E-05,2.47E-05,-1.34E-05,-3.17E-06,1.43E-05
1447,-1.72E-05,1.76E-05,2.41E-05,3.81E-05,-5.26E-06,1.59E-05
1448,-1.92E-05,1.79E-05,3.10E-05,0.000117131,-6.82E-06,1.46E-05
1449,-2.25E-05,1.68E-05,3.66E-05,0.000135202,-8.41E-06,1.38E-05
1450,-2.39E-05,1.29E-05,4.15E-05,6.34E-05,-1.19E-05,1.36E-05
1451,-1.85E-05,9.35E-06,4.39E-05,-1.23E-05,-1.57E-05,1.40E-05
1452,-6.62E-06,1.08E-05,3.78E-05,-2.52E-05,-1.80E-05,1.65E-05
1453,4.86E-06,1.62E-05,3.38E-05,2.64E-05,-1.95E-05,1.96E-05
1454,1.11E-05,2.03E-05,3.98E-05,0.000114915,-1.90E-05,2.00E-05
1455,8.15E-06,2.00E-05,4.34E-05,0.000148377,-1.40E-05,1.46E-05
1456,-2.79E-06,1.77E-05,4.32E-05,7.72E-05,-5.75E-06,6.21E-06
1457,-7.85E-06,1.64E-05,4.54E-05,-2.98E-06,-4.74E-07,3.77E-06
1458,-1.51E-06,1.58E-05,4.20E-05,-3.99E-06,-2.24E-06,7.57E-06
1459,5.70E-06,1.59E-05,3.12E-05,3.03E-05,-8.20E-06,1.21E-05
1460,1.03E-05,1.66E-05,2.51E-05,2.88E-05,-1.29E-05,1.49E-05
1461,1.50E-05,1.70E-05,2.73E-05,1.75E-05,-1.46E-05,1.44E-05
1462,1.57E-05,1.61E-05,3.06E-05,5.92E-05,-1.36E-05,1.42E-05
1463,8.17E-06,1.46E-05,3.20E-05,0.000118016,-1.12E-05,1.58E-05
1464,-6.53E-06,1.17E-05,3.26E-05,9.73E-05,-9.75E-06,1.55E-05
1465,-1.57E-05,7.56E-06,3.43E-05,1.11E-05,-1.02E-05,1.41E-05
1466,-7.99E-06,5.43E-06,2.92E-05,-4.55E-05,-1.07E-05,1.43E-05
1467,7.22E-06,6.86E-06,1.70E-05,-3.73E-05,-1.07E-05,1.36E-05
1468,1.55E-05,1.05E-05,1.23E-05,3.05E-05,-1.08E-05,1.03E-05
1469,1.37E-05,1.39E-05,1.74E-05,0.000106808,-9.86E-06,6.17E-06
1470,3.47E-06,1.49E-05,2.51E-05,0.000110187,-7.89E-06,2.70E-06
1471,-8.08E-06,1.37E-05,3.18E-05,3.93E-05,-7.04E-06,2.46E-06
1472,-9.92E-06,1.08E-05,3.18E-05,-2.60E-05,-9.09E-06,7.24E-06
1473,-2.02E-06,6.20E-06,2.25E-05,-3.73E-05,-1.30E-05,1.25E-05
1474,3.56E-06,2.51E-06,1.63E-05,1.24E-05,-1.62E-05,1.22E-05
1475,-5.39E-07,2.98E-06,2.25E-05,9.16E-05,-1.75E-05,8.14E-06
1476,-1.26E-05,5.89E-06,3.43E-05,0.000114754,-1.65E-05,5.48E-06
1477,-2.48E-05,6.89E-06,4.37E-05,5.31E-05,-1.29E-05,5.30E-06
1478,-2.69E-05,5.34E-06,4.49E-05,-7.94E-06,-8.04E-06,5.48E-06
1479,-1.83E-05,3.57E-06,3.33E-05,-8.05E-06,-3.22E-06,4.56E-06
1480,-1.05E-05,4.80E-06,2.21E-05,4.65E-05,-4.93E-07,4.38E-06
1481,-9.91E-06,1.03E-05,2.42E-05,0.000128604,-1.26E-06,5.87E-06
1482,-1.57E-05,1.63E-05,2.79E-05,0.000159047,-3.19E-06,5.54E-06
1483,-2.32E-05,1.79E-05,2.93E-05,9.59E-05,-2.48E-06,5.43E-06
1484,-2.02E-05,1.45E-05,3.36E-05,2.13E-05,1.59E-06,9.72E-06
1485,-9.16E-06,1.04E-05,3.37E-05,1.16E-05,2.72E-06,1.25E-05
1486,-4.84E-06,1.03E-05,2.94E-05,3.49E-05,-6.97E-07,1.05E-05
1487,-6.40E-06,1.42E-05,3.01E-05,3.63E-05,-3.45E-06,8.30E-06
1488,-6.35E-06,1.66E-05,3.65E-05,3.58E-05,-6.29E-06,8.37E-06
1489,-3.22E-06,1.61E-05,4.02E-05,8.19E-05,-9.86E-06,8.43E-06
1490,-3.76E-06,1.55E-05,3.88E-05,0.000140493,-1.22E-05,5.14E-06
1491,-1.61E-05,1.57E-05,3.89E-05,0.000123048,-1.18E-05,-5.41E-07
1492,-3.11E-05,1.50E-05,4.51E-05,4.56E-05,-9.49E-06,-3.78E-06
1493,-3.21E-05,1.26E-05,4.58E-05,-1.90E-06,-9.92E-06,-1.29E-06
1494,-2.04E-05,1.06E-05,3.55E-05,7.07E-06,-1.33E-05,4.32E-06
1495,-9.27E-06,1.14E-05,2.92E-05,6.80E-05,-1.55E-05,9.35E-06
1496,-5.90E-06,1.43E-05,3.26E-05,0.000137944,-1.45E-05,1.28E-05
1497,-1.02E-05,1.56E-05,3.85E-05,0.000133836,-1.19E-05,1.25E-05
1498,-1.47E-05,1.39E-05,4.26E-05,5.20E-05,-9.63E-06,9.34E-06
1499,-9.87E-06,1.15E-05,4.03E-05,-2.08E-05,-8.24E-06,8.04E-06
1500,2.42E-06,1.17E-05,3.23E-05,-3.30E-05,-7.38E-06,8.73E-06
1501,9.96E-06,1.46E-05,3.01E-05,1.78E-05,-5.94E-06,9.17E-06
1502,8.17E-06,1.71E-05,3.54E-05,9.88E-05,-3.62E-06,8.92E-06
1503,-6.92E-08,1.66E-05,3.80E-05,0.000128411,-2.67E-06,6.61E-06
1504,-8.80E-06,1.34E-05,3.82E-05,7.37E-05,-6.13E-06,3.15E-06
1505,-6.97E-06,9.83E-06,3.79E-05,7.14E-06,-1.30E-05,4.21E-06
1506,4.82E-06,7.45E-06,3.06E-05,-9.57E-06,-1.63E-05,1.05E-05
1507,1.04E-05,6.62E-06,2.31E-05,3.49E-05,-1.22E-05,1.43E-05
1508,4.19E-06,8.34E-06,2.48E-05,0.000118547,-6.79E-06,1.09E-05
1509,-8.72E-06,1.11E-05,2.97E-05,0.000151025,-5.47E-06,4.44E-06
1510,-2.03E-05,1.15E-05,3.54E-05,8.50E-05,-5.42E-06,2.26E-06
1511,-1.75E-05,1.04E-05,3.78E-05,1.07E-05,-5.56E-06,7.60E-06
1512,-5.95E-06,1.26E-05,3.12E-05,1.81E-05,-1.03E-05,1.41E-05
1513,-3.37E-06,1.60E-05,2.25E-05,6.57E-05,-1.76E-05,1.33E-05
1514,-8.69E-06,1.53E-05,1.97E-05,6.17E-05,-2.09E-05,9.46E-06
1515,-1.10E-05,1.21E-05,2.21E-05,2.70E-05,-2.05E-05,1.13E-05
1516,-7.15E-06,1.26E-05,2.12E-05,5.36E-05,-1.84E-05,1.65E-05
1517,-5.72E-06,1.78E-05,1.91E-05,0.00011901,-1.47E-05,1.74E-05
1518,-1.51E-05,2.12E-05,2.10E-05,0.000117816,-1.08E-05,1.38E-05
1519,-2.44E-05,1.95E-05,2.46E-05,4.96E-05,-8.12E-06,1.25E-05
1520,-1.72E-05,1.53E-05,2.09E-05,-5.22E-06,-5.92E-06,1.42E-05
1521,1.75E-07,1.12E-05,1.11E-05,-7.89E-06,-2.96E-06,1.52E-05
1522,9.85E-06,9.89E-06,1.15E-05,5.09E-05,-8.20E-08,1.47E-05
1523,4.74E-06,1.25E-05,2.16E-05,0.000125024,1.31E-06,1.39E-05
1524,-1.06E-05,1.55E-05,3.06E-05,0.000125324,-5.89E-07,1.30E-05
1525,-2.48E-05,1.55E-05,3.41E-05,4.88E-05,-5.68E-06,1.24E-05
1526,-2.69E-05,1.36E-05,2.95E-05,-1.39E-05,-1.03E-05,1.43E-05
1527,-1.72E-05,1.25E-05,1.83E-05,-1.10E-05,-1.13E-05,1.81E-05
1528,-6.39E-06,1.46E-05,1.25E-05,4.98E-05,-1.10E-05,2.08E-05
1529,-3.49E-06,1.81E-05,1.60E-05,0.000125126,-1.41E-05,2.23E-05
1530,-1.12E-05,1.95E-05,2.07E-05,0.000138498,-1.94E-05,2.29E-05
1531,-2.11E-05,1.71E-05,2.52E-05,7.04E-05,-2.19E-05,2.25E-05
1532,-1.85E-05,1.19E-05,2.59E-05,-2.14E-06,-2.00E-05,2.12E-05
1533,-3.29E-06,6.36E-06,1.74E-05,-2.26E-05,-1.73E-05,1.89E-05
1534,6.94E-06,4.37E-06,1.14E-05,1.77E-05,-1.55E-05,1.68E-05
1535,3.05E-06,8.20E-06,1.75E-05,9.88E-05,-1.41E-05,1.64E-05
1536,-1.12E-05,1.32E-05,2.28E-05,0.000131049,-1.22E-05,1.46E-05
1537,-2.46E-05,1.48E-05,2.24E-05,6.70E-05,-9.38E-06,1.09E-05
1538,-1.97E-05,1.49E-05,2.41E-05,-8.61E-06,-7.02E-06,1.06E-05
1539,-2.79E-06,1.48E-05,2.34E-05,-2.06E-05,-6.74E-06,1.55E-05
1540,4.79E-06,1.45E-05,1.49E-05,-4.33E-07,-7.91E-06,2.22E-05
1541,6.50E-06,1.33E-05,1.23E-05,1.99E-06,-7.39E-06,2.62E-05
1542,1.15E-05,1.01E-05,2.09E-05,4.93E-06,-5.77E-06,2.49E-05
1543,1.62E-05,8.13E-06,2.63E-05,5.21E-05,-5.51E-06,2.20E-05
1544,1.31E-05,9.69E-06,2.45E-05,0.000112684,-5.89E-06,2.24E-05
1545,8.60E-07,1.13E-05,2.39E-05,0.000102789,-7.54E-06,2.42E-05
1546,-8.09E-06,1.19E-05,2.63E-05,3.23E-05,-1.01E-05,2.46E-05
1547,-1.11E-06,1.25E-05,2.15E-05,-1.88E-05,-1.08E-05,2.47E-05
1548,1.36E-05,1.21E-05,7.49E-06,-1.91E-05,-9.71E-06,2.53E-05
1549,2.02E-05,1.08E-05,-1.26E-07,3.85E-05,-8.36E-06,2.50E-05
1550,1.57E-05,1.04E-05,2.01E-06,0.000114857,-7.22E-06,2.17E-05
1551,4.30E-06,1.11E-05,7.07E-06,0.000125285,-6.05E-06,1.60E-05
1552,-6.54E-06,1.13E-05,1.19E-05,5.68E-05,-3.68E-06,1.26E-05
1553,-8.26E-06,1.07E-05,1.17E-05,-1.03E-05,-6.06E-07,1.43E-05
1554,-2.12E-06,9.72E-06,7.50E-06,-2.02E-05,-1.98E-07,1.87E-05
1555,1.84E-06,8.27E-06,1.16E-05,3.42E-05,-3.97E-06,2.17E-05
1556,-6.91E-07,7.00E-06,2.45E-05,0.000115657,-9.20E-06,2.11E-05
1557,-7.51E-06,6.10E-06,3.30E-05,0.000134521,-1.24E-05,1.65E-05
1558,-1.29E-05,5.46E-06,3.58E-05,5.99E-05,-1.23E-05,1.14E-05
1559,-9.10E-06,6.59E-06,3.51E-05,-2.05E-05,-1.01E-05,1.12E-05
1560,2.94E-06,8.86E-06,2.62E-05,-3.47E-05,-7.14E-06,1.69E-05
1561,1.26E-05,1.03E-05,1.69E-05,1.81E-05,-8.86E-07,2.42E-05
1562,1.44E-05,1.18E-05,2.05E-05,0.000103515,8.07E-06,2.66E-05
1563,7.35E-06,1.34E-05,3.01E-05,0.000138484,1.31E-05,2.08E-05
1564,-4.34E-06,1.33E-05,3.76E-05,8.13E-05,1.16E-05,1.29E-05
1565,-3.73E-06,1.26E-05,4.47E-05,5.83E-06,5.57E-06,1.29E-05
1566,9.13E-06,1.27E-05,4.62E-05,-1.41E-05,-3.03E-07,1.72E-05
1567,1.46E-05,1.37E-05,3.90E-05,-2.72E-06,-2.14E-06,1.82E-05
1568,1.27E-05,1.58E-05,3.42E-05,-9.56E-06,-3.29E-06,1.67E-05
1569,1.16E-05,1.84E-05,3.89E-05,-7.17E-06,-6.42E-06,1.39E-05
1570,8.60E-06,1.95E-05,4.49E-05,5.30E-05,-8.05E-06,1.12E-05
1571,-2.04E-07,1.71E-05,4.38E-05,0.000120606,-5.87E-06,8.16E-06
1572,-1.35E-05,1.25E-05,3.89E-05,0.000104797,-4.22E-06,3.98E-06
1573,-2.06E-05,1.02E-05,3.65E-05,2.79E-05,-6.49E-06,2.61E-06
1574,-1.27E-05,1.14E-05,2.89E-05,-2.01E-05,-8.93E-06,6.58E-06
1575,1.38E-06,1.26E-05,1.42E-05,-1.04E-05,-8.73E-06,1.14E-05
1576,6.66E-06,1.36E-05,1.01E-05,5.45E-05,-8.78E-06,1.25E-05
1577,-1.01E-06,1.62E-05,1.91E-05,0.000129177,-1.20E-05,9.51E-06
1578,-1.74E-05,1.87E-05,2.78E-05,0.000130742,-1.74E-05,4.21E-06
1579,-3.18E-05,1.93E-05,3.28E-05,5.95E-05,-2.02E-05,8.22E-07
1580,-3.31E-05,1.87E-05,3.50E-05,3.18E-07,-1.74E-05,3.31E-06
1581,-2.29E-05,1.82E-05,3.25E-05,-1.50E-06,-1.29E-05,1.00E-05
1582,-1.31E-05,1.75E-05,2.94E-05,5.20E-05,-1.23E-05,1.52E-05
1583,-1.12E-05,1.51E-05,3.01E-05,0.000126714,-1.50E-05,1.63E-05
1584,-1.84E-05,1.03E-05,3.18E-05,0.000142876,-1.66E-05,1.33E-05
1585,-2.80E-05,6.02E-06,3.32E-05,7.33E-05,-1.64E-05,8.93E-06
1586,-2.69E-05,5.01E-06,2.98E-05,-2.34E-06,-1.53E-05,8.09E-06
1587,-1.62E-05,5.67E-06,1.74E-05,-1.95E-05,-1.27E-05,9.88E-06
1588,-9.86E-06,5.83E-06,8.30E-06,2.79E-05,-8.48E-06,9.08E-06
1589,-1.33E-05,6.47E-06,1.17E-05,0.000115126,-5.02E-06,5.79E-06
1590,-2.55E-05,8.24E-06,1.94E-05,0.000153105,-5.08E-06,4.48E-06
1591,-3.90E-05,8.01E-06,2.62E-05,9.22E-05,-7.90E-06,6.85E-06
1592,-3.85E-05,7.42E-06,2.99E-05,1.43E-05,-1.10E-05,1.07E-05
1593,-2.66E-05,9.04E-06,2.57E-05,2.00E-06,-1.37E-05,1.25E-05
1594,-1.85E-05,9.26E-06,1.72E-05,3.15E-05,-1.49E-05,1.08E-05
1595,-1.17E-05,8.04E-06,1.76E-05,4.13E-05,-1.42E-05,7.92E-06
1596,-3.48E-07,8.92E-06,3.00E-05,4.07E-05,-1.26E-05,6.22E-06
1597,7.53E-06,1.17E-05,4.09E-05,8.13E-05,-1.18E-05,7.63E-06
1598,3.24E-06,1.36E-05,4.28E-05,0.000134991,-1.20E-05,9.97E-06
1599,-1.31E-05,1.43E-05,4.13E-05,0.000113178,-1.19E-05,8.32E-06
1600,-2.58E-05,1.48E-05,3.96E-05,2.92E-05,-1.20E-05,4.69E-06
1601,-1.92E-05,1.51E-05,2.84E-05,-2.59E-05,-1.27E-05,5.05E-06
1602,-1.26E-06,1.51E-05,1.19E-05,-2.29E-05,-1.12E-05,8.47E-06
1603,8.66E-06,1.50E-05,7.90E-06,3.45E-05,-7.16E-06,9.84E-06
1604,3.69E-06,1.59E-05,1.46E-05,0.000102357,-4.31E-06,9.09E-06
1605,-9.74E-06,1.74E-05,1.95E-05,9.89E-05,-5.34E-06,7.93E-06
1606,-1.76E-05,1.83E-05,1.90E-05,2.34E-05,-8.48E-06,8.66E-06
1607,-1.10E-05,1.81E-05,1.39E-05,-3.64E-05,-9.50E-06,1.36E-05
1608,4.37E-06,1.69E-05,7.95E-06,-3.40E-05,-6.69E-06,2.07E-05
1609,1.42E-05,1.56E-05,8.84E-06,2.16E-05,-3.31E-06,2.46E-05
1610,1.08E-05,1.51E-05,1.62E-05,9.38E-05,-2.52E-06,2.26E-05
1611,-2.95E-06,1.52E-05,2.26E-05,0.000109959,-2.72E-06,1.47E-05
1612,-1.73E-05,1.53E-05,2.74E-05,4.32E-05,-1.58E-06,5.67E-06
1613,-2.07E-05,1.46E-05,2.69E-05,-3.10E-05,-2.07E-07,2.04E-06
1614,-1.10E-05,1.29E-05,1.65E-05,-4.73E-05,6.51E-07,2.80E-06
1615,-6.27E-07,1.22E-05,9.38E-06,2.52E-06,1.64E-06,2.99E-06
1616,-7.09E-07,1.41E-05,1.52E-05,9.14E-05,1.76E-06,2.19E-06
1617,-1.38E-05,1.74E-05,2.33E-05,0.000124367,5.11E-07,4.99E-07
1618,-3.02E-05,1.84E-05,2.95E-05,5.31E-05,-9.46E-07,-2.37E-06
1619,-3.01E-05,1.55E-05,3.47E-05,-2.66E-05,-1.53E-06,-1.33E-06
1620,-1.48E-05,1.23E-05,3.08E-05,-3.06E-05,-9.56E-07,3.15E-06
1621,-4.21E-06,1.10E-05,1.91E-05,-6.96E-07,-8.75E-07,7.06E-06
1622,-5.48E-07,1.01E-05,1.68E-05,2.34E-07,-2.47E-06,1.31E-05
1623,1.63E-06,8.60E-06,2.99E-05,-4.64E-06,-4.45E-06,1.78E-05
1624,3.69E-06,8.10E-06,4.03E-05,4.03E-05,-6.01E-06,1.81E-05
1625,1.42E-06,9.95E-06,3.78E-05,0.000101469,-7.11E-06,1.77E-05
1626,-1.29E-05,1.24E-05,3.25E-05,9.03E-05,-7.94E-06,1.62E-05
1627,-2.84E-05,1.41E-05,3.23E-05,2.14E-05,-8.47E-06,1.45E-05
1628,-2.60E-05,1.54E-05,2.91E-05,-2.29E-05,-8.83E-06,1.58E-05
1629,-9.13E-06,1.67E-05,2.22E-05,-1.59E-05,-9.45E-06,1.75E-05
1630,3.77E-06,1.92E-05,2.41E-05,4.43E-05,-8.92E-06,1.64E-05
1631,4.67E-06,2.18E-05,3.02E-05,0.000117996,-6.34E-06,1.30E-05
1632,-2.78E-06,2.21E-05,2.96E-05,0.000125122,-4.26E-06,9.35E-06
1633,-8.99E-06,1.97E-05,2.68E-05,5.75E-05,-5.87E-06,8.45E-06
1634,-6.46E-06,1.76E-05,2.52E-05,-8.49E-06,-1.04E-05,1.17E-05
1635,2.72E-06,1.88E-05,2.13E-05,-2.19E-05,-1.41E-05,1.65E-05
1636,1.04E-05,2.19E-05,1.85E-05,2.58E-05,-1.56E-05,1.89E-05
1637,1.17E-05,2.31E-05,1.94E-05,0.000102481,-1.61E-05,1.83E-05
1638,6.54E-06,1.97E-05,1.94E-05,0.000124293,-1.60E-05,1.52E-05
1639,6.72E-07,1.46E-05,2.04E-05,6.29E-05,-1.53E-05,9.74E-06
1640,3.77E-06,1.32E-05,2.20E-05,-2.83E-06,-1.45E-05,6.09E-06
1641,1.67E-05,1.46E-05,1.67E-05,-1.47E-05,-1.39E-05,7.82E-06
1642,2.90E-05,1.37E-05,1.20E-05,2.81E-05,-1.43E-05,1.15E-05
1643,2.97E-05,1.09E-05,1.66E-05,0.000102822,-1.84E-05,1.32E-05
1644,1.21E-05,8.01E-06,2.37E-05,0.000128823,-2.78E-05,1.20E-05
1645,-1.31E-05,4.56E-06,3.06E-05,6.41E-05,-3.81E-05,9.65E-06
1646,-2.16E-05,1.82E-06,3.34E-05,-3.40E-06,-4.49E-05,1.20E-05
1647,-1.42E-05,2.08E-06,2.37E-05,4.55E-06,-4.68E-05,1.70E-05
1648,-9.51E-06,5.66E-06,1.08E-05,4.36E-05,-4.50E-05,1.72E-05
1649,-8.46E-06,1.00E-05,9.97E-06,5.24E-05,-3.87E-05,1.39E-05
1650,-5.94E-06,1.20E-05,1.92E-05,5.46E-05,-2.31E-05,1.04E-05
1651,-6.68E-06,1.28E-05,2.44E-05,0.000100155,9.00E-07,8.28E-06
1652,-1.26E-05,1.55E-05,2.21E-05,0.000153353,2.60E-05,9.50E-06
1653,-2.08E-05,1.65E-05,2.25E-05,0.00013256,4.07E-05,1.06E-05
1654,-2.60E-05,1.37E-05,2.82E-05,5.70E-05,3.68E-05,9.87E-06
1655,-2.13E-05,1.08E-05,2.56E-05,6.03E-06,2.07E-05,1.27E-05
1656,-1.06E-05,1.13E-05,1.33E-05,6.57E-06,6.29E-06,2.01E-05
1657,-4.32E-06,1.49E-05,1.03E-05,6.88E-05,1.26E-07,2.54E-05
1658,-7.28E-06,1.82E-05,2.12E-05,0.000153752,-1.02E-06,2.51E-05
1659,-1.80E-05,1.76E-05,3.57E-05,0.000167747,-1.79E-06,2.12E-05
1660,-2.68E-05,1.26E-05,4.53E-05,9.72E-05,-4.51E-06,1.69E-05
1661,-2.25E-05,7.84E-06,4.41E-05,2.82E-05,-7.08E-06,1.49E-05
1662,-8.42E-06,7.57E-06,3.36E-05,1.54E-05,-6.03E-06,1.66E-05
1663,2.16E-06,1.10E-05,2.58E-05,6.08E-05,-3.35E-06,2.13E-05
1664,2.77E-06,1.34E-05,2.74E-05,0.000129195,-5.00E-06,2.58E-05
1665,-5.25E-06,1.29E-05,3.11E-05,0.000140605,-1.08E-05,2.44E-05
1666,-1.54E-05,1.24E-05,3.13E-05,6.94E-05,-1.36E-05,1.74E-05
1667,-1.70E-05,1.42E-05,2.62E-05,-4.97E-06,-9.88E-06,1.43E-05
1668,-9.56E-06,1.68E-05,1.63E-05,-2.42E-05,-4.93E-06,1.86E-05
1669,-5.97E-06,1.83E-05,1.13E-05,1.41E-05,-5.10E-06,2.18E-05
1670,-1.01E-05,1.76E-05,1.72E-05,9.29E-05,-8.07E-06,1.91E-05
1671,-1.69E-05,1.50E-05,2.46E-05,0.000130299,-6.58E-06,1.09E-05
1672,-2.29E-05,1.21E-05,2.99E-05,7.22E-05,-1.89E-06,1.72E-06
1673,-1.93E-05,1.07E-05,3.24E-05,-7.13E-07,4.06E-08,1.36E-06
1674,-8.20E-06,1.02E-05,2.53E-05,-4.21E-06,-2.05E-06,8.03E-06
1675,-6.03E-06,9.19E-06,1.53E-05,2.67E-05,-6.37E-06,1.21E-05
1676,-1.12E-05,8.75E-06,1.45E-05,2.93E-05,-9.41E-06,1.20E-05
1677,-1.17E-05,9.33E-06,2.14E-05,2.97E-05,-8.03E-06,8.73E-06
1678,-7.44E-06,1.24E-05,2.73E-05,8.77E-05,-3.45E-06,5.30E-06
1679,-8.84E-06,1.74E-05,2.99E-05,0.000162924,-1.68E-06,4.21E-06
1680,-2.13E-05,2.09E-05,3.39E-05,0.000153132,-4.92E-06,3.38E-06
1681,-3.13E-05,2.19E-05,3.69E-05,6.79E-05,-8.59E-06,4.52E-06
1682,-2.53E-05,2.12E-05,2.77E-05,4.44E-06,-9.50E-06,8.94E-06
1683,-1.22E-05,1.88E-05,1.05E-05,4.50E-06,-1.02E-05,1.19E-05
1684,-6.00E-06,1.60E-05,4.66E-06,6.89E-05,-1.33E-05,1.16E-05
1685,-7.39E-06,1.48E-05,1.24E-05,0.000150906,-1.63E-05,9.64E-06
1686,-1.46E-05,1.33E-05,2.10E-05,0.000162702,-1.56E-05,6.21E-06
1687,-2.18E-05,9.19E-06,2.40E-05,9.35E-05,-1.15E-05,3.04E-06
1688,-1.80E-05,5.60E-06,2.09E-05,2.50E-05,-7.86E-06,4.36E-06
1689,-3.43E-06,4.98E-06,1.60E-05,1.24E-05,-7.39E-06,1.07E-05
1690,8.61E-06,4.49E-06,1.87E-05,6.01E-05,-9.42E-06,1.67E-05
1691,9.09E-06,2.40E-06,2.84E-05,0.000131049,-1.13E-05,1.74E-05
1692,-1.40E-06,1.26E-06,3.34E-05,0.000144051,-1.24E-05,1.32E-05
1693,-1.32E-05,2.21E-06,3.13E-05,7.17E-05,-1.41E-05,8.33E-06
1694,-1.25E-05,3.20E-06,2.50E-05,-1.11E-05,-1.73E-05,7.41E-06
1695,5.74E-07,3.64E-06,1.80E-05,-4.34E-05,-2.02E-05,1.12E-05
1696,1.32E-05,5.40E-06,1.97E-05,-1.13E-05,-1.95E-05,1.54E-05
1697,1.72E-05,7.91E-06,3.13E-05,6.86E-05,-1.67E-05,1.65E-05
1698,7.40E-06,7.94E-06,4.04E-05,0.000104321,-1.57E-05,1.46E-05
1699,-9.00E-06,6.58E-06,4.35E-05,4.20E-05,-1.32E-05,1.14E-05
1700,-8.03E-06,7.89E-06,4.23E-05,-3.65E-05,-7.31E-06,1.12E-05
1701,7.83E-06,9.89E-06,3.65E-05,-4.52E-05,-4.92E-06,1.57E-05
1702,1.30E-05,9.14E-06,3.12E-05,-1.71E-05,-8.25E-06,1.87E-05
1703,8.41E-06,7.75E-06,3.13E-05,-2.13E-05,-1.13E-05,1.84E-05
1704,7.50E-06,6.67E-06,3.78E-05,-3.05E-05,-1.24E-05,1.84E-05
1705,9.02E-06,6.61E-06,4.24E-05,2.08E-05,-1.41E-05,1.84E-05
1706,4.39E-06,8.53E-06,4.23E-05,0.000100525,-1.66E-05,1.51E-05
1707,-1.15E-05,1.07E-05,4.47E-05,0.000110298,-1.78E-05,8.04E-06
1708,-2.44E-05,1.25E-05,4.82E-05,4.73E-05,-1.72E-05,3.32E-06
1709,-1.83E-05,1.30E-05,4.16E-05,-8.14E-06,-1.69E-05,5.73E-06
1710,-2.21E-06,1.14E-05,2.78E-05,-1.80E-05,-1.91E-05,1.12E-05
1711,6.39E-06,1.01E-05,2.29E-05,3.29E-05,-2.23E-05,1.23E-05
1712,3.67E-06,1.11E-05,2.78E-05,0.000111385,-2.30E-05,9.13E-06
1713,-6.45E-06,1.24E-05,3.42E-05,0.000130691,-2.01E-05,6.03E-06
1714,-1.61E-05,1.24E-05,3.93E-05,7.21E-05,-1.34E-05,5.64E-06
1715,-1.61E-05,1.33E-05,3.86E-05,1.04E-05,-3.73E-06,7.49E-06
1716,-9.53E-06,1.54E-05,2.99E-05,-3.03E-07,4.81E-06,9.45E-06
1717,-6.51E-06,1.74E-05,2.43E-05,4.72E-05,7.55E-06,1.05E-05
1718,-8.85E-06,1.98E-05,3.05E-05,0.00011961,4.41E-06,1.09E-05
1719,-1.40E-05,2.23E-05,4.14E-05,0.000137458,5.97E-07,9.12E-06
1720,-1.88E-05,2.24E-05,4.80E-05,7.34E-05,2.32E-07,7.01E-06
1721,-1.58E-05,1.94E-05,4.44E-05,7.94E-06,1.22E-06,9.89E-06
1722,-3.59E-06,1.51E-05,3.34E-05,2.17E-06,6.96E-07,1.57E-05
1723,7.78E-06,1.19E-05,3.07E-05,4.80E-05,-7.13E-07,1.74E-05
1724,8.56E-06,1.19E-05,3.78E-05,0.000118498,-2.94E-06,1.54E-05
1725,-4.17E-06,1.43E-05,4.15E-05,0.000141915,-7.06E-06,1.14E-05
1726,-2.12E-05,1.56E-05,4.34E-05,8.12E-05,-1.03E-05,5.40E-06
1727,-2.40E-05,1.59E-05,4.67E-05,1.31E-05,-8.41E-06,3.10E-06
1728,-1.17E-05,1.67E-05,4.57E-05,3.42E-06,-3.64E-06,7.88E-06
1729,-1.81E-06,1.56E-05,4.09E-05,2.09E-05,-2.18E-06,1.48E-05
1730,3.00E-06,1.28E-05,4.16E-05,1.80E-05,-5.58E-06,1.94E-05
1731,9.55E-06,1.20E-05,5.09E-05,1.69E-05,-1.08E-05,1.97E-05
1732,1.52E-05,1.40E-05,5.64E-05,6.58E-05,-1.38E-05,1.73E-05
1733,1.23E-05,1.74E-05,5.26E-05,0.000125336,-1.30E-05,1.31E-05
1734,-2.34E-06,1.86E-05,4.81E-05,0.00010839,-1.02E-05,6.78E-06
1735,-1.75E-05,1.64E-05,4.74E-05,3.10E-05,-9.12E-06,4.90E-06
1736,-1.73E-05,1.44E-05,4.04E-05,-1.86E-05,-1.02E-05,1.10E-05
1737,-2.79E-06,1.31E-05,2.67E-05,-1.09E-05,-1.10E-05,1.78E-05
1738,1.27E-05,1.17E-05,2.47E-05,4.87E-05,-1.09E-05,1.93E-05
1739,2.07E-05,1.22E-05,3.48E-05,0.000115809,-1.04E-05,1.73E-05
1740,1.82E-05,1.29E-05,4.39E-05,0.000113933,-1.03E-05,1.45E-05
1741,1.03E-05,1.02E-05,4.75E-05,4.13E-05,-1.03E-05,1.26E-05
1742,8.61E-06,6.41E-06,4.38E-05,-2.22E-05,-9.95E-06,1.35E-05
1743,1.46E-05,5.76E-06,3.47E-05,-2.73E-05,-9.68E-06,1.72E-05
1744,1.90E-05,7.91E-06,3.04E-05,2.68E-05,-9.98E-06,2.09E-05
1745,1.64E-05,9.58E-06,3.44E-05,0.000102764,-1.15E-05,2.14E-05
1746,6.44E-06,9.43E-06,3.91E-05,0.000119986,-1.26E-05,1.67E-05
1747,-6.02E-06,8.76E-06,4.09E-05,5.45E-05,-1.05E-05,9.62E-06
1748,-1.09E-05,1.03E-05,3.62E-05,-1.33E-05,-7.57E-06,8.59E-06
1749,-6.61E-06,1.26E-05,2.28E-05,-2.16E-05,-7.35E-06,1.64E-05
1750,-2.00E-06,1.31E-05,1.37E-05,3.00E-05,-8.46E-06,2.62E-05
1751,-2.69E-06,1.30E-05,1.90E-05,0.000112924,-9.29E-06,3.12E-05
1752,-1.07E-05,1.18E-05,2.80E-05,0.000140436,-8.74E-06,2.79E-05
1753,-2.13E-05,9.52E-06,3.59E-05,6.88E-05,-7.14E-06,2.02E-05
1754,-1.92E-05,7.57E-06,4.25E-05,-1.67E-05,-6.93E-06,1.73E-05
1755,-5.82E-06,6.41E-06,3.74E-05,-3.50E-05,-8.76E-06,1.87E-05
1756,8.86E-07,7.12E-06,2.25E-05,-1.60E-05,-9.17E-06,1.95E-05
1757,-1.91E-06,8.79E-06,1.69E-05,-1.68E-05,-6.73E-06,2.14E-05
1758,-6.14E-06,9.51E-06,2.43E-05,-1.66E-05,-4.70E-06,2.35E-05
1759,-7.49E-06,1.09E-05,3.19E-05,3.45E-05,-3.18E-06,2.19E-05
1760,-9.54E-06,1.41E-05,3.45E-05,9.94E-05,-6.04E-07,1.71E-05
1761,-1.84E-05,1.53E-05,3.51E-05,8.91E-05,2.47E-06,1.22E-05
1762,-2.77E-05,1.35E-05,3.49E-05,1.63E-05,3.58E-06,1.12E-05
1763,-2.29E-05,1.12E-05,2.77E-05,-3.56E-05,1.12E-06,1.56E-05
1764,-7.06E-06,9.36E-06,1.81E-05,-3.60E-05,-2.32E-06,2.06E-05
1765,2.85E-06,9.86E-06,2.06E-05,2.10E-05,-3.34E-06,2.18E-05
1766,2.82E-07,1.28E-05,3.04E-05,9.58E-05,-1.85E-06,1.87E-05
1767,-9.94E-06,1.44E-05,3.71E-05,0.000104898,-7.57E-07,1.22E-05
1768,-1.83E-05,1.28E-05,4.24E-05,3.76E-05,-9.39E-07,6.12E-06
1769,-1.60E-05,1.11E-05,4.33E-05,-2.85E-05,-1.90E-06,4.05E-06
1770,-5.96E-06,1.15E-05,3.42E-05,-4.14E-05,-3.35E-06,5.37E-06
1771,-5.43E-07,1.38E-05,2.61E-05,4.41E-06,-4.15E-06,8.52E-06
1772,-6.89E-06,1.60E-05,2.96E-05,7.95E-05,-3.72E-06,1.15E-05
1773,-2.41E-05,1.59E-05,3.69E-05,0.00010601,-4.72E-06,1.19E-05
1774,-4.05E-05,1.23E-05,4.15E-05,5.04E-05,-8.97E-06,9.80E-06
1775,-4.00E-05,8.82E-06,4.03E-05,-1.27E-05,-1.41E-05,7.79E-06
1776,-2.49E-05,1.06E-05,3.05E-05,-1.94E-05,-1.93E-05,7.96E-06
1777,-1.21E-05,1.53E-05,2.39E-05,3.34E-05,-2.57E-05,1.01E-05
1778,-9.06E-06,1.84E-05,2.82E-05,0.000120816,-2.95E-05,1.37E-05
1779,-1.72E-05,1.79E-05,3.21E-05,0.000159036,-2.62E-05,1.62E-05
1780,-3.01E-05,1.43E-05,3.43E-05,0.000102758,-1.89E-05,1.41E-05
1781,-2.73E-05,1.21E-05,3.83E-05,3.41E-05,-1.40E-05,1.03E-05
1782,-1.14E-05,1.23E-05,3.78E-05,3.07E-05,-9.95E-06,7.33E-06
1783,-6.25E-06,1.35E-05,3.17E-05,5.80E-05,-2.03E-06,4.36E-06
1784,-9.40E-06,1.39E-05,2.78E-05,5.49E-05,6.39E-06,3.98E-06
1785,-5.91E-06,1.21E-05,3.16E-05,4.48E-05,7.96E-06,5.29E-06
1786,3.85E-06,1.03E-05,3.80E-05,8.69E-05,1.48E-06,6.15E-06
1787,8.92E-06,9.53E-06,4.18E-05,0.000147264,-6.74E-06,6.33E-06
1788,6.07E-07,9.49E-06,4.60E-05,0.000134216,-1.17E-05,6.04E-06
1789,-1.35E-05,1.09E-05,5.06E-05,5.71E-05,-1.30E-05,7.72E-06
1790,-1.74E-05,1.36E-05,4.34E-05,5.42E-06,-1.16E-05,1.13E-05
1791,-9.06E-06,1.40E-05,2.69E-05,1.26E-05,-6.86E-06,1.48E-05
1792,-1.73E-07,1.14E-05,2.12E-05,7.51E-05,4.68E-07,1.82E-05
1793,3.11E-07,8.01E-06,2.74E-05,0.000146891,6.72E-06,2.02E-05
1794,-9.15E-06,6.70E-06,3.35E-05,0.000146345,7.55E-06,1.80E-05
1795,-1.89E-05,9.11E-06,3.64E-05,6.92E-05,2.92E-06,1.36E-05
1796,-1.59E-05,1.31E-05,3.38E-05,-8.10E-07,-3.15E-06,1.27E-05
1797,-2.06E-06,1.53E-05,2.38E-05,-1.22E-05,-7.27E-06,1.74E-05
1798,7.44E-06,1.58E-05,1.54E-05,3.40E-05,-8.51E-06,2.36E-05
1799,4.64E-06,1.55E-05,1.71E-05,0.000103468,-7.86E-06,2.44E-05
1800,-8.33E-06,1.45E-05,2.58E-05,0.000119911,-7.21E-06,1.61E-05
1801,-2.29E-05,1.27E-05,3.62E-05,5.54E-05,-7.26E-06,4.51E-06
1802,-2.58E-05,1.14E-05,3.89E-05,-1.52E-05,-7.49E-06,1.49E-07
1803,-1.44E-05,1.15E-05,2.81E-05,-3.12E-05,-8.02E-06,4.28E-06
1804,-2.73E-06,1.23E-05,1.74E-05,1.39E-05,-8.13E-06,8.55E-06
1805,-3.86E-07,1.26E-05,1.80E-05,9.79E-05,-8.68E-06,6.94E-06
1806,-9.75E-06,1.13E-05,2.09E-05,0.000131543,-1.21E-05,1.22E-06
1807,-2.52E-05,9.17E-06,2.14E-05,6.40E-05,-1.58E-05,-2.78E-06
1808,-2.62E-05,1.03E-05,2.10E-05,-2.13E-05,-1.50E-05,-5.84E-07
1809,-1.07E-05,1.40E-05,1.79E-05,-3.47E-05,-1.37E-05,4.90E-06
1810,-9.20E-07,1.50E-05,1.24E-05,-2.31E-06,-1.63E-05,7.71E-06
1811,-4.66E-07,1.39E-05,9.84E-06,1.27E-05,-1.71E-05,9.07E-06
1812,1.85E-07,1.29E-05,1.50E-05,2.12E-05,-1.40E-05,1.08E-05
1813,2.14E-06,1.35E-05,1.80E-05,7.33E-05,-1.09E-05,1.14E-05
1814,1.50E-06,1.57E-05,1.34E-05,0.000136499,-9.12E-06,1.05E-05
1815,-4.84E-06,1.63E-05,1.22E-05,0.000120596,-8.58E-06,8.07E-06
1816,-1.01E-05,1.31E-05,1.73E-05,3.58E-05,-8.68E-06,6.18E-06
1817,-5.98E-06,9.02E-06,1.51E-05,-2.83E-05,-8.63E-06,7.42E-06
1818,4.59E-06,7.74E-06,5.06E-06,-3.01E-05,-8.82E-06,1.00E-05
1819,1.37E-05,1.05E-05,4.94E-06,3.60E-05,-9.85E-06,1.19E-05
1820,1.42E-05,1.47E-05,1.65E-05,0.000125114,-1.07E-05,1.32E-05
1821,2.84E-06,1.66E-05,2.81E-05,0.000149264,-1.02E-05,1.33E-05
1822,-1.11E-05,1.64E-05,3.52E-05,9.20E-05,-9.22E-06,1.25E-05
1823,-1.18E-05,1.61E-05,3.57E-05,2.79E-05,-8.97E-06,1.28E-05
1824,1.53E-06,1.55E-05,3.01E-05,1.25E-05,-1.14E-05,1.44E-05
1825,1.24E-05,1.37E-05,2.70E-05,5.74E-05,-1.86E-05,1.53E-05
1826,9.88E-06,1.21E-05,3.02E-05,0.00012978,-2.81E-05,1.46E-05
1827,-5.72E-07,1.13E-05,3.48E-05,0.000146319,-3.40E-05,1.26E-05
1828,-8.25E-06,1.01E-05,3.96E-05,7.81E-05,-3.40E-05,1.13E-05
1829,-6.94E-06,9.36E-06,4.11E-05,4.85E-06,-2.98E-05,1.24E-05
1830,1.92E-06,8.88E-06,3.35E-05,-1.10E-05,-2.20E-05,1.62E-05
1831,9.74E-06,6.81E-06,2.55E-05,3.51E-05,-1.03E-05,1.96E-05
1832,9.74E-06,5.17E-06,2.64E-05,0.000119694,2.20E-06,1.88E-05
1833,9.25E-10,6.38E-06,2.99E-05,0.000151999,1.07E-05,1.26E-05
1834,-1.17E-05,8.63E-06,3.44E-05,8.24E-05,1.43E-05,4.69E-06
1835,-9.14E-06,8.88E-06,3.84E-05,4.32E-06,1.62E-05,2.71E-06
1836,1.49E-06,7.35E-06,3.36E-05,-1.05E-06,1.48E-05,8.21E-06
1837,3.66E-06,6.85E-06,2.21E-05,2.45E-05,1.06E-05,1.53E-05
1838,2.44E-06,7.17E-06,1.63E-05,1.88E-05,8.04E-06,1.96E-05
1839,4.07E-06,7.35E-06,1.90E-05,3.70E-06,6.44E-06,2.15E-05
1840,6.29E-06,7.51E-06,2.03E-05,3.76E-05,4.30E-06,2.23E-05
1841,6.59E-06,8.00E-06,2.11E-05,9.16E-05,3.54E-06,1.95E-05
1842,3.13E-07,9.43E-06,2.54E-05,7.86E-05,5.58E-06,1.34E-05
1843,-7.56E-06,1.20E-05,2.88E-05,1.07E-05,7.31E-06,1.03E-05
1844,-5.82E-06,1.35E-05,2.34E-05,-3.22E-05,6.47E-06,1.26E-05
1845,2.19E-06,1.21E-05,1.15E-05,-2.25E-05,3.86E-06,1.73E-05
1846,5.44E-06,1.11E-05,8.51E-06,4.67E-05,5.58E-07,2.12E-05
1847,-1.62E-06,1.40E-05,1.47E-05,0.000132574,-2.31E-06,2.20E-05
1848,-1.59E-05,1.80E-05,2.25E-05,0.000145166,-4.69E-06,1.81E-05
1849,-2.62E-05,1.88E-05,2.90E-05,7.80E-05,-6.70E-06,1.21E-05
1850,-2.35E-05,1.62E-05,2.80E-05,1.55E-05,-8.72E-06,9.41E-06
1851,-1.25E-05,1.37E-05,1.75E-05,8.27E-06,-1.10E-05,1.00E-05
1852,-6.08E-06,1.31E-05,1.23E-05,5.86E-05,-1.34E-05,1.05E-05
1853,-8.46E-06,1.36E-05,2.12E-05,0.000132145,-1.46E-05,1.04E-05
1854,-1.74E-05,1.38E-05,3.18E-05,0.000145786,-1.40E-05,9.74E-06
1855,-2.93E-05,1.38E-05,3.66E-05,7.13E-05,-1.36E-05,6.97E-06
1856,-3.44E-05,1.57E-05,3.49E-05,-7.70E-06,-1.46E-05,3.89E-06
1857,-2.71E-05,1.93E-05,2.46E-05,-2.49E-05,-1.62E-05,4.79E-06
1858,-1.57E-05,2.09E-05,1.56E-05,2.28E-05,-1.90E-05,9.07E-06
1859,-9.86E-06,2.06E-05,1.69E-05,0.000106596,-2.22E-05,1.18E-05
1860,-1.56E-05,1.94E-05,2.15E-05,0.000134566,-2.21E-05,8.60E-06
1861,-2.58E-05,1.73E-05,2.74E-05,6.06E-05,-1.88E-05,2.28E-06
1862,-2.05E-05,1.59E-05,3.26E-05,-2.30E-05,-1.45E-05,1.63E-06
1863,-3.81E-06,1.79E-05,2.74E-05,-3.21E-05,-1.06E-05,5.67E-06
1864,3.03E-06,2.10E-05,1.48E-05,-7.99E-06,-7.62E-06,8.05E-06
1865,1.45E-06,2.05E-05,1.04E-05,-1.10E-05,-6.62E-06,9.54E-06
1866,3.01E-06,1.81E-05,1.94E-05,-1.36E-05,-9.22E-06,1.19E-05
1867,7.02E-06,2.03E-05,2.85E-05,3.53E-05,-1.32E-05,1.37E-05
1868,5.06E-06,2.49E-05,2.83E-05,9.89E-05,-1.52E-05,1.45E-05
1869,-5.04E-06,2.43E-05,2.58E-05,8.78E-05,-1.48E-05,1.60E-05
1870,-1.18E-05,1.78E-05,2.61E-05,1.45E-05,-1.40E-05,2.00E-05
1871,-3.30E-06,1.03E-05,2.02E-05,-3.69E-05,-1.35E-05,2.50E-05
1872,1.34E-05,5.75E-06,5.07E-06,-3.57E-05,-1.25E-05,2.92E-05
1873,2.28E-05,7.31E-06,-2.91E-06,2.38E-05,-1.21E-05,3.12E-05
1874,2.13E-05,1.29E-05,2.77E-06,0.000100503,-1.33E-05,2.79E-05
1875,1.27E-05,1.43E-05,1.33E-05,0.000109023,-1.43E-05,1.86E-05
1876,2.72E-06,9.42E-06,2.17E-05,3.80E-05,-1.46E-05,9.64E-06
1877,-3.98E-07,5.39E-06,2.27E-05,-3.12E-05,-1.46E-05,8.51E-06
1878,5.70E-06,6.76E-06,1.54E-05,-4.11E-05,-1.44E-05,1.53E-05
1879,1.28E-05,1.07E-05,1.11E-05,1.48E-05,-1.59E-05,2.24E-05
1880,1.18E-05,1.33E-05,1.70E-05,9.82E-05,-1.94E-05,2.32E-05
1881,1.04E-06,1.32E-05,2.39E-05,0.000122599,-2.05E-05,1.88E-05
1882,-1.09E-05,1.09E-05,2.54E-05,5.54E-05,-1.76E-05,1.55E-05
1883,-1.13E-05,8.19E-06,2.13E-05,-2.12E-05,-1.55E-05,1.72E-05
1884,1.03E-06,8.57E-06,1.22E-05,-3.41E-05,-1.79E-05,1.98E-05
1885,1.13E-05,1.11E-05,9.77E-06,2.50E-05,-2.07E-05,1.99E-05
1886,7.92E-06,1.25E-05,1.90E-05,0.000120742,-1.64E-05,1.74E-05
1887,-6.77E-06,1.31E-05,2.64E-05,0.000156991,-3.95E-06,1.22E-05
1888,-2.16E-05,1.41E-05,2.89E-05,9.14E-05,1.03E-05,7.51E-06
1889,-2.23E-05,1.37E-05,3.21E-05,1.67E-05,1.80E-05,6.64E-06
1890,-1.21E-05,1.26E-05,2.99E-05,1.28E-05,1.42E-05,6.24E-06
1891,-7.27E-06,1.40E-05,1.79E-05,4.24E-05,4.66E-06,5.49E-06
1892,-7.94E-06,1.74E-05,1.04E-05,4.31E-05,-7.28E-07,7.60E-06
1893,-9.17E-06,1.78E-05,1.81E-05,3.75E-05,-7.34E-07,1.01E-05
1894,-1.11E-05,1.50E-05,3.03E-05,7.99E-05,-8.49E-07,9.05E-06
1895,-1.40E-05,1.41E-05,3.41E-05,0.000133901,-3.64E-06,5.09E-06
1896,-2.25E-05,1.48E-05,3.05E-05,0.000115766,-7.22E-06,1.43E-06
1897,-3.29E-05,1.38E-05,2.74E-05,4.38E-05,-1.03E-05,1.63E-06
1898,-3.02E-05,1.19E-05,2.09E-05,-7.27E-07,-1.30E-05,6.20E-06
1899,-1.48E-05,1.17E-05,8.86E-06,5.51E-06,-1.51E-05,1.18E-05
1900,-3.92E-06,1.49E-05,5.15E-06,6.37E-05,-1.57E-05,1.40E-05
1901,-8.00E-06,1.82E-05,1.30E-05,0.000136439,-1.51E-05,1.10E-05
1902,-2.19E-05,1.76E-05,2.19E-05,0.000140774,-1.41E-05,6.43E-06
1903,-3.02E-05,1.42E-05,2.42E-05,6.51E-05,-1.29E-05,4.82E-06
1904,-2.20E-05,1.23E-05,1.73E-05,-6.55E-06,-1.12E-05,6.75E-06
1905,-4.58E-06,1.28E-05,6.22E-06,-1.52E-05,-8.36E-06,9.24E-06
1906,4.84E-06,1.42E-05,3.36E-06,4.30E-05,-6.81E-06,9.56E-06
1907,2.13E-07,1.67E-05,1.08E-05,0.000125822,-8.89E-06,6.65E-06
1908,-1.28E-05,1.89E-05,1.82E-05,0.000145253,-1.25E-05,2.30E-06
1909,-2.33E-05,1.87E-05,2.24E-05,7.49E-05,-1.38E-05,9.75E-07
1910,-2.13E-05,1.84E-05,2.14E-05,1.69E-06,-1.14E-05,5.13E-06
1911,-1.03E-05,2.07E-05,1.24E-05,-9.84E-06,-8.19E-06,1.21E-05
1912,-2.65E-06,2.34E-05,5.69E-06,3.71E-05,-6.47E-06,1.55E-05
1913,-2.90E-06,2.31E-05,9.70E-06,0.000116516,-6.85E-06,1.26E-05
1914,-1.12E-05,1.92E-05,1.63E-05,0.000150555,-9.05E-06,6.98E-06
1915,-2.22E-05,1.37E-05,2.26E-05,9.39E-05,-1.13E-05,3.12E-06
1916,-2.08E-05,1.02E-05,3.06E-05,2.18E-05,-1.34E-05,4.43E-06
1917,-8.46E-06,1.12E-05,3.29E-05,1.00E-05,-1.48E-05,6.53E-06
1918,-1.65E-06,1.47E-05,2.81E-05,3.16E-05,-1.31E-05,4.57E-06
1919,-6.79E-07,1.67E-05,2.59E-05,3.01E-05,-9.64E-06,4.09E-06
1920,-7.81E-07,1.62E-05,3.15E-05,2.25E-05,-7.29E-06,6.97E-06
1921,-3.54E-06,1.70E-05,3.75E-05,6.91E-05,-6.10E-06,1.09E-05
1922,-8.43E-06,2.12E-05,3.81E-05,0.000138434,-7.04E-06,1.43E-05
1923,-1.73E-05,2.45E-05,3.85E-05,0.000132074,-1.07E-05,1.51E-05
1924,-2.52E-05,2.39E-05,4.10E-05,5.82E-05,-1.37E-05,1.43E-05
1925,-1.86E-05,2.10E-05,3.35E-05,2.90E-06,-1.21E-05,1.49E-05
1926,-2.33E-06,1.79E-05,1.76E-05,2.77E-06,-8.04E-06,1.85E-05
1927,6.90E-06,1.51E-05,1.30E-05,6.46E-05,-6.67E-06,2.13E-05
1928,5.15E-06,1.30E-05,2.33E-05,0.000143419,-8.05E-06,1.87E-05
1929,-3.79E-06,1.07E-05,3.61E-05,0.00015039,-9.31E-06,1.32E-05
1930,-1.25E-05,7.26E-06,4.31E-05,7.44E-05,-9.63E-06,1.24E-05
1931,-1.31E-05,3.99E-06,4.04E-05,-2.76E-06,-1.03E-05,1.73E-05
1932,-5.29E-06,4.06E-06,2.91E-05,-2.16E-05,-1.22E-05,2.17E-05
