Time_Index,DELTOID_Affected,DELTOID_NonAffected,BICEPS_Affected,BICEPS_NonAffected,FOREARM_Affected,FOREARM_NonAffected
1,-1.36E-05,1.02E-05,4.41E-05,-1.14E-05,-8.53E-06,6.65E-06
2,-3.96E-06,1.04E-05,3.69E-05,-1.20E-05,7.20E-06,1.45E-05
3,4.32E-06,1.23E-05,3.87E-05,5.54E-05,1.75E-05,1.75E-05
4,3.73E-06,1.37E-05,4.28E-05,0.000126923,1.52E-05,1.48E-05
5,-7.29E-06,1.19E-05,4.19E-05,0.000107559,5.55E-06,8.60E-06
6,-1.87E-05,8.00E-06,3.83E-05,2.04E-05,-2.14E-06,4.42E-06
7,-1.52E-05,6.79E-06,2.49E-05,-2.50E-05,-6.08E-06,5.56E-06
8,-1.36E-06,7.59E-06,6.14E-06,-1.34E-05,-9.49E-06,1.05E-05
9,6.40E-06,5.06E-06,4.88E-06,6.47E-05,-1.12E-05,1.24E-05
10,6.40E-06,2.05E-06,1.38E-05,0.000156655,-5.77E-06,8.19E-06
11,-5.21E-06,3.32E-06,1.61E-05,0.000153388,5.43E-06,3.62E-06
12,-2.16E-05,6.66E-06,2.19E-05,6.22E-05,1.64E-05,2.92E-06
13,-2.54E-05,8.68E-06,2.52E-05,1.76E-05,1.83E-05,5.44E-06
14,-1.63E-05,6.90E-06,2.00E-05,4.13E-05,9.88E-06,7.51E-06
15,-1.06E-05,7.21E-06,1.33E-05,5.61E-05,-2.17E-07,8.16E-06
16,-7.69E-06,1.05E-05,1.26E-05,3.58E-05,-1.11E-05,8.23E-06
17,-3.47E-06,1.34E-05,1.60E-05,5.30E-05,-1.86E-05,8.42E-06
18,-2.35E-06,1.56E-05,1.92E-05,0.000126909,-1.83E-05,9.46E-06
19,-8.71E-06,1.67E-05,2.02E-05,0.000169545,-1.50E-05,7.47E-06
20,-2.00E-05,1.56E-05,1.77E-05,0.000100112,-1.07E-05,3.67E-06
21,-2.45E-05,1.14E-05,1.18E-05,1.72E-05,-6.40E-06,3.02E-06
22,-1.27E-05,8.16E-06,-2.30E-06,-1.50E-05,-6.69E-06,7.51E-06
23,3.34E-06,7.44E-06,-9.32E-06,1.13E-05,-1.36E-05,1.39E-05
24,1.08E-05,9.56E-06,-2.06E-06,9.74E-05,-2.07E-05,1.87E-05
25,6.87E-06,1.17E-05,7.72E-06,0.00016641,-2.23E-05,1.99E-05
26,-6.44E-06,1.04E-05,1.85E-05,0.000133932,-1.81E-05,1.67E-05
27,-1.61E-05,6.44E-06,2.82E-05,4.84E-05,-1.37E-05,1.48E-05
28,-9.48E-06,3.00E-06,2.65E-05,8.33E-07,-1.31E-05,1.65E-05
29,7.46E-06,3.87E-06,1.64E-05,1.24E-05,-1.43E-05,1.83E-05
30,1.53E-05,1.02E-05,1.74E-05,8.88E-05,-1.48E-05,1.75E-05
31,8.14E-06,1.77E-05,2.45E-05,0.000157883,-1.49E-05,1.36E-05
32,-5.85E-06,1.93E-05,2.77E-05,0.000121468,-1.64E-05,6.96E-06
33,-1.18E-05,1.55E-05,2.88E-05,1.87E-05,-1.77E-05,2.45E-06
34,-2.75E-06,1.18E-05,2.26E-05,-3.06E-05,-1.53E-05,4.95E-06
35,9.11E-06,9.63E-06,1.23E-05,-2.53E-05,-1.08E-05,9.59E-06
36,9.45E-06,9.14E-06,1.13E-05,4.05E-05,-8.81E-06,1.02E-05
37,3.80E-06,9.36E-06,1.40E-05,0.00012422,-8.51E-06,8.55E-06
38,-6.52E-06,6.80E-06,1.56E-05,0.00010946,-8.39E-06,6.88E-06
39,-1.66E-05,2.63E-06,2.23E-05,3.95E-06,-5.58E-06,9.52E-06
40,-1.31E-05,5.25E-06,2.31E-05,-5.90E-05,-3.02E-06,1.78E-05
41,-8.48E-07,1.14E-05,1.76E-05,-4.72E-05,-4.92E-06,1.85E-05
42,1.08E-06,1.39E-05,1.53E-05,-1.89E-05,-8.32E-06,1.08E-05
43,-2.84E-06,1.22E-05,2.21E-05,-2.28E-05,-1.15E-05,8.05E-06
44,-5.15E-06,8.16E-06,3.04E-05,-6.43E-06,-1.18E-05,9.99E-06
45,-7.42E-06,7.32E-06,2.82E-05,6.36E-05,-1.21E-05,1.37E-05
46,-1.57E-05,9.62E-06,2.32E-05,0.000112821,-1.25E-05,1.35E-05
47,-3.34E-05,1.07E-05,2.45E-05,5.98E-05,-1.08E-05,9.00E-06
48,-4.35E-05,8.83E-06,2.73E-05,-4.54E-06,-7.95E-06,9.40E-06
49,-3.24E-05,7.14E-06,2.01E-05,-2.61E-05,-7.45E-06,1.51E-05
50,-1.24E-05,7.37E-06,1.29E-05,5.90E-08,-9.42E-06,1.81E-05
51,-2.64E-06,9.90E-06,1.63E-05,7.97E-05,-9.79E-06,1.58E-05
52,-8.77E-06,1.19E-05,2.12E-05,0.000143233,-9.93E-06,1.17E-05
53,-2.27E-05,1.17E-05,2.59E-05,0.000108844,-1.06E-05,8.76E-06
54,-2.82E-05,1.10E-05,3.13E-05,2.25E-05,-9.46E-06,9.03E-06
55,-1.98E-05,1.22E-05,2.80E-05,-2.16E-05,-5.27E-06,1.35E-05
56,-9.34E-06,1.50E-05,1.81E-05,1.51E-06,-1.66E-06,1.84E-05
57,-8.17E-06,1.72E-05,1.92E-05,9.14E-05,-1.64E-06,1.95E-05
58,-1.10E-05,1.75E-05,2.77E-05,0.000173041,-5.03E-06,1.83E-05
59,-1.34E-05,1.53E-05,3.09E-05,0.000146945,-7.09E-06,1.52E-05
60,-1.24E-05,1.30E-05,3.18E-05,4.30E-05,-6.21E-06,1.20E-05
61,-3.03E-06,1.25E-05,2.87E-05,-1.43E-05,-5.96E-06,1.22E-05
62,6.92E-06,1.45E-05,2.00E-05,-8.89E-06,-7.32E-06,1.43E-05
63,9.13E-06,1.71E-05,2.20E-05,6.45E-05,-8.12E-06,1.78E-05
64,1.03E-05,1.97E-05,3.00E-05,0.000151922,-7.42E-06,2.11E-05
65,3.45E-06,1.81E-05,3.16E-05,0.000140454,-8.34E-06,1.86E-05
66,-9.11E-06,1.27E-05,3.29E-05,4.06E-05,-1.28E-05,1.44E-05
67,-4.03E-06,1.15E-05,3.10E-05,-1.38E-05,-1.66E-05,1.47E-05
68,1.07E-05,1.37E-05,2.22E-05,8.70E-06,-1.67E-05,1.36E-05
69,1.75E-05,1.58E-05,1.18E-05,3.34E-05,-1.47E-05,1.24E-05
70,2.31E-05,1.61E-05,1.15E-05,1.09E-05,-1.43E-05,1.47E-05
71,2.46E-05,1.47E-05,1.62E-05,8.40E-06,-1.54E-05,1.63E-05
72,1.87E-05,1.58E-05,1.65E-05,7.49E-05,-1.66E-05,1.64E-05
73,5.00E-06,1.77E-05,1.44E-05,0.000131153,-1.44E-05,1.36E-05
74,-1.54E-05,1.69E-05,1.67E-05,7.58E-05,-7.64E-06,9.06E-06
75,-2.73E-05,1.28E-05,1.76E-05,-4.10E-06,-3.80E-06,7.42E-06
76,-1.91E-05,8.11E-06,3.53E-06,-4.27E-05,-3.09E-06,1.13E-05
77,-4.21E-06,3.55E-06,-1.11E-05,-2.22E-05,-2.68E-06,1.45E-05
78,2.93E-06,1.78E-06,-9.55E-06,6.38E-05,-2.84E-06,1.70E-05
79,1.02E-07,2.91E-06,4.25E-07,0.000137142,-4.32E-06,1.81E-05
80,-1.09E-05,3.71E-06,1.14E-05,0.00010778,-5.05E-06,1.62E-05
81,-2.09E-05,4.80E-06,1.93E-05,2.18E-05,-3.95E-06,1.41E-05
82,-1.98E-05,6.43E-06,1.77E-05,-2.70E-05,-5.64E-06,1.53E-05
83,-1.08E-05,9.32E-06,1.01E-05,-1.47E-05,-1.25E-05,1.89E-05
84,-3.94E-06,1.43E-05,9.73E-06,6.49E-05,-1.88E-05,1.95E-05
85,-3.07E-06,1.88E-05,1.29E-05,0.000141753,-1.90E-05,1.62E-05
86,-1.06E-05,1.89E-05,1.55E-05,0.000115827,-1.37E-05,1.21E-05
87,-1.93E-05,1.64E-05,2.33E-05,1.54E-05,-5.64E-06,1.24E-05
88,-1.55E-05,1.62E-05,2.56E-05,-4.04E-05,1.08E-06,1.71E-05
89,-2.39E-06,1.76E-05,1.76E-05,-3.50E-05,5.01E-07,2.21E-05
90,2.32E-06,1.74E-05,1.56E-05,4.18E-05,-5.11E-06,2.27E-05
91,-8.60E-07,1.81E-05,2.02E-05,0.000133958,-7.85E-06,1.98E-05
92,-8.43E-06,1.70E-05,2.57E-05,0.000121404,-8.33E-06,1.28E-05
93,-1.40E-05,1.31E-05,3.57E-05,2.37E-05,-8.42E-06,8.43E-06
94,-1.75E-07,1.07E-05,3.12E-05,-1.51E-05,-6.82E-06,1.45E-05
95,1.99E-05,1.24E-05,1.53E-05,3.02E-05,-7.70E-06,2.15E-05
96,2.52E-05,1.57E-05,9.22E-06,6.76E-05,-1.16E-05,2.08E-05
97,2.40E-05,1.53E-05,1.84E-05,3.92E-05,-1.54E-05,1.98E-05
98,1.86E-05,1.33E-05,3.35E-05,2.90E-05,-1.72E-05,2.05E-05
99,1.04E-05,1.43E-05,4.15E-05,8.92E-05,-1.50E-05,1.96E-05
100,4.77E-06,1.76E-05,4.34E-05,0.000131635,-1.23E-05,1.32E-05
101,-2.06E-06,1.80E-05,4.50E-05,6.44E-05,-1.12E-05,3.77E-06
102,-1.03E-05,1.41E-05,4.17E-05,-1.37E-05,-1.28E-05,-2.81E-08
103,-1.03E-05,1.15E-05,2.55E-05,-3.68E-05,-1.37E-05,8.28E-06
104,-3.95E-06,1.16E-05,1.27E-05,1.98E-06,-1.24E-05,1.76E-05
105,2.65E-06,1.25E-05,1.63E-05,9.68E-05,-9.95E-06,1.84E-05
106,4.05E-06,1.25E-05,2.43E-05,0.00016833,-7.93E-06,1.29E-05
107,-1.27E-06,1.15E-05,3.18E-05,0.000129729,-6.88E-06,7.39E-06
108,-6.54E-06,1.11E-05,3.79E-05,3.89E-05,-5.64E-06,7.04E-06
109,-4.95E-06,1.24E-05,3.19E-05,-5.54E-06,-2.60E-06,1.18E-05
110,1.27E-06,1.52E-05,1.85E-05,9.31E-06,8.08E-07,1.66E-05
111,3.64E-06,1.68E-05,1.86E-05,7.99E-05,-6.62E-08,1.52E-05
112,-3.07E-06,1.73E-05,2.66E-05,0.000148511,-3.39E-06,1.00E-05
113,-1.72E-05,1.57E-05,3.05E-05,0.000124088,-6.00E-06,7.27E-06
114,-2.61E-05,1.15E-05,3.51E-05,3.32E-05,-6.94E-06,1.11E-05
115,-1.87E-05,7.05E-06,3.16E-05,-5.61E-06,-6.39E-06,1.76E-05
116,-4.49E-07,4.65E-06,1.78E-05,1.38E-05,-3.06E-06,2.22E-05
117,6.09E-06,3.59E-06,1.73E-05,8.98E-05,1.37E-07,2.28E-05
118,-1.44E-06,2.97E-06,2.62E-05,0.000172793,-2.28E-06,1.88E-05
119,-1.37E-05,2.98E-06,3.15E-05,0.000160013,-8.74E-06,9.92E-06
120,-2.36E-05,1.37E-06,3.88E-05,6.32E-05,-1.19E-05,6.05E-06
121,-1.40E-05,1.92E-06,3.94E-05,8.81E-06,-9.45E-06,1.17E-05
122,4.57E-06,6.81E-06,3.42E-05,1.91E-05,-7.21E-06,1.26E-05
123,6.01E-06,1.19E-05,2.69E-05,3.18E-05,-7.62E-06,5.01E-06
124,-9.00E-07,1.41E-05,3.00E-05,6.11E-06,-7.24E-06,1.93E-06
125,-5.52E-06,1.42E-05,4.19E-05,7.24E-06,-7.24E-06,3.13E-06
126,-7.36E-06,1.64E-05,4.07E-05,6.78E-05,-8.49E-06,4.52E-06
127,-7.28E-06,1.93E-05,3.32E-05,0.000107686,-1.03E-05,4.67E-06
128,-1.26E-05,1.98E-05,3.71E-05,4.66E-05,-1.07E-05,2.76E-06
129,-1.85E-05,1.95E-05,4.25E-05,-2.81E-05,-8.53E-06,3.91E-06
130,-1.29E-05,1.84E-05,3.03E-05,-5.74E-05,-6.44E-06,1.11E-05
131,-2.85E-06,1.65E-05,1.87E-05,-2.53E-05,-6.25E-06,1.70E-05
132,1.05E-06,1.49E-05,2.13E-05,7.12E-05,-8.07E-06,1.66E-05
133,-3.61E-06,1.43E-05,2.97E-05,0.000149176,-1.05E-05,1.34E-05
134,-1.31E-05,1.32E-05,3.67E-05,0.00011665,-1.19E-05,1.02E-05
135,-1.83E-05,1.14E-05,3.97E-05,2.95E-05,-1.19E-05,1.01E-05
136,-1.11E-05,1.13E-05,3.59E-05,-1.22E-05,-9.81E-06,1.51E-05
137,1.54E-06,1.33E-05,2.81E-05,4.98E-06,-7.37E-06,2.20E-05
138,6.81E-06,1.49E-05,2.93E-05,7.83E-05,-9.01E-06,2.46E-05
139,2.72E-06,1.44E-05,3.66E-05,0.000144443,-1.41E-05,2.14E-05
140,-7.99E-06,1.20E-05,4.05E-05,0.00011252,-1.53E-05,1.59E-05
141,-1.87E-05,9.35E-06,3.88E-05,1.08E-05,-9.55E-06,1.38E-05
142,-1.85E-05,8.55E-06,2.80E-05,-3.89E-05,-4.82E-06,1.55E-05
143,-1.14E-05,7.57E-06,1.51E-05,-2.76E-05,-5.15E-06,1.68E-05
144,-8.43E-06,5.93E-06,1.96E-05,3.70E-05,-5.12E-06,1.82E-05
145,-1.16E-05,6.82E-06,3.09E-05,0.000108677,-7.64E-07,1.91E-05
146,-2.31E-05,6.31E-06,3.47E-05,9.41E-05,2.08E-06,1.56E-05
147,-3.52E-05,2.83E-06,3.65E-05,5.19E-06,3.95E-07,1.09E-05
148,-3.31E-05,3.57E-06,3.50E-05,-2.74E-05,-3.47E-06,9.62E-06
149,-2.13E-05,7.72E-06,2.67E-05,1.34E-05,-6.41E-06,9.12E-06
150,-1.90E-05,1.11E-05,2.11E-05,4.46E-05,-4.27E-06,9.26E-06
151,-1.66E-05,1.13E-05,3.29E-05,2.69E-05,2.34E-06,1.18E-05
152,-7.01E-06,1.03E-05,4.87E-05,3.44E-05,6.73E-06,1.20E-05
153,3.07E-06,1.24E-05,5.43E-05,9.97E-05,4.05E-06,1.09E-05
154,6.38E-06,1.59E-05,5.32E-05,0.00014136,-9.18E-07,7.81E-06
155,-6.05E-06,1.68E-05,5.35E-05,7.66E-05,-3.17E-06,5.00E-06
156,-2.00E-05,1.55E-05,5.30E-05,-4.08E-06,-2.01E-06,6.34E-06
157,-1.56E-05,1.34E-05,4.12E-05,-3.80E-05,1.17E-06,1.05E-05
158,-6.40E-07,1.23E-05,3.24E-05,-1.26E-05,3.58E-06,1.58E-05
159,6.45E-06,1.29E-05,3.77E-05,7.44E-05,2.89E-06,1.85E-05
160,2.42E-07,1.35E-05,4.62E-05,0.000139989,3.65E-07,1.57E-05
161,-1.15E-05,1.22E-05,5.11E-05,0.000102043,-3.90E-06,7.85E-06
162,-1.58E-05,9.48E-06,5.30E-05,1.64E-05,-8.84E-06,3.50E-06
163,-6.06E-06,6.35E-06,4.86E-05,-2.85E-05,-1.12E-05,5.71E-06
164,8.36E-06,3.98E-06,4.16E-05,-1.70E-05,-1.09E-05,9.37E-06
165,1.23E-05,4.52E-06,4.54E-05,5.38E-05,-1.02E-05,9.55E-06
166,3.31E-06,6.49E-06,5.38E-05,0.000120956,-1.01E-05,5.49E-06
167,-9.96E-06,7.31E-06,5.59E-05,8.97E-05,-9.36E-06,3.62E-07
168,-1.56E-05,8.80E-06,5.47E-05,-7.22E-06,-9.88E-06,-1.38E-06
169,-9.02E-06,1.27E-05,4.67E-05,-4.81E-05,-1.16E-05,3.28E-06
170,1.54E-06,1.58E-05,3.28E-05,-2.67E-05,-1.50E-05,9.80E-06
171,5.60E-06,1.83E-05,3.30E-05,5.10E-05,-1.82E-05,1.09E-05
172,1.43E-06,2.20E-05,4.36E-05,0.000133418,-1.87E-05,5.44E-06
173,-8.76E-06,2.26E-05,5.08E-05,0.000115179,-1.57E-05,-3.29E-06
174,-1.77E-05,1.91E-05,5.85E-05,1.27E-05,-1.27E-05,-5.86E-06
175,-1.53E-05,1.57E-05,5.69E-05,-3.76E-05,-6.28E-06,4.04E-06
176,-6.80E-06,1.22E-05,4.52E-05,-9.67E-06,4.34E-06,1.04E-05
177,-3.18E-06,7.22E-06,3.24E-05,2.36E-05,7.33E-06,8.00E-06
178,6.31E-08,5.90E-06,3.60E-05,1.54E-05,1.48E-06,7.24E-06
179,4.59E-06,1.15E-05,4.58E-05,3.04E-05,-7.25E-06,8.94E-06
180,5.46E-06,1.72E-05,4.76E-05,0.00010307,-1.12E-05,1.39E-05
181,-1.73E-06,1.95E-05,4.76E-05,0.000153246,-1.00E-05,1.29E-05
182,-1.72E-05,1.67E-05,4.64E-05,9.28E-05,-7.77E-06,4.45E-06
183,-2.94E-05,1.15E-05,4.16E-05,1.34E-05,-5.63E-06,-1.48E-06
184,-2.66E-05,9.75E-06,2.14E-05,-2.12E-05,-6.32E-06,3.01E-06
185,-1.45E-05,1.12E-05,5.59E-06,-6.28E-07,-1.07E-05,1.05E-05
186,-3.69E-06,1.39E-05,1.35E-05,8.07E-05,-1.54E-05,1.18E-05
187,-2.60E-06,1.59E-05,2.98E-05,0.000146546,-1.65E-05,7.26E-06
188,-8.05E-06,1.49E-05,3.90E-05,0.000113579,-1.46E-05,2.71E-06
189,-1.11E-05,1.10E-05,4.03E-05,3.20E-05,-1.03E-05,3.46E-06
190,-5.86E-06,7.33E-06,3.42E-05,-8.48E-06,-5.51E-06,7.87E-06
191,6.27E-06,6.62E-06,2.68E-05,1.01E-05,-3.94E-06,1.07E-05
192,1.52E-05,8.83E-06,3.17E-05,8.71E-05,-7.35E-06,1.00E-05
193,1.31E-05,1.25E-05,3.97E-05,0.000153283,-1.56E-05,8.95E-06
194,2.41E-06,1.54E-05,4.14E-05,0.000119839,-2.74E-05,6.93E-06
195,-6.22E-06,1.51E-05,4.35E-05,2.02E-05,-3.72E-05,5.46E-06
196,-2.78E-06,1.35E-05,4.11E-05,-2.74E-05,-4.12E-05,8.78E-06
197,1.20E-05,1.30E-05,2.80E-05,-1.61E-05,-4.36E-05,1.52E-05
198,1.94E-05,1.55E-05,2.21E-05,5.37E-05,-4.54E-05,1.72E-05
199,1.41E-05,1.79E-05,2.92E-05,0.000142382,-3.81E-05,1.67E-05
200,-5.04E-08,1.63E-05,3.53E-05,0.000133311,-2.03E-05,1.15E-05
201,-1.17E-05,1.56E-05,4.12E-05,2.92E-05,-4.29E-06,7.30E-06
202,-3.96E-06,1.47E-05,4.26E-05,-2.28E-05,3.29E-06,1.05E-05
203,5.68E-06,1.11E-05,3.51E-05,9.18E-06,1.03E-05,1.15E-05
204,1.42E-06,1.20E-05,2.21E-05,3.49E-05,1.63E-05,1.15E-05
205,-3.08E-06,1.55E-05,2.14E-05,4.14E-06,1.45E-05,1.58E-05
206,-6.87E-06,1.73E-05,3.18E-05,4.22E-06,7.13E-06,1.98E-05
207,-1.15E-05,1.74E-05,3.57E-05,7.56E-05,-2.04E-06,2.12E-05
208,-1.81E-05,1.69E-05,3.47E-05,0.000125694,-9.59E-06,2.02E-05
209,-3.16E-05,1.55E-05,2.77E-05,6.55E-05,-1.02E-05,1.95E-05
210,-4.16E-05,1.27E-05,2.11E-05,-8.21E-06,-7.91E-06,2.20E-05
211,-3.29E-05,1.07E-05,1.28E-05,-2.98E-05,-1.03E-05,2.55E-05
212,-1.82E-05,9.75E-06,6.26E-06,3.74E-06,-1.71E-05,2.68E-05
213,-1.27E-05,1.05E-05,8.23E-06,9.08E-05,-2.15E-05,2.88E-05
214,-1.87E-05,1.19E-05,1.37E-05,0.000161299,-1.73E-05,2.78E-05
215,-3.27E-05,1.26E-05,2.08E-05,0.000133033,-8.56E-06,2.19E-05
216,-4.22E-05,1.22E-05,2.65E-05,4.79E-05,-3.33E-06,1.77E-05
217,-3.59E-05,1.19E-05,2.31E-05,-6.15E-06,-5.27E-06,1.85E-05
218,-1.93E-05,1.17E-05,1.26E-05,-3.38E-06,-9.67E-06,2.02E-05
219,-5.61E-06,1.03E-05,1.32E-05,6.93E-05,-9.93E-06,1.96E-05
220,-5.35E-07,7.59E-06,2.44E-05,0.000150577,-4.41E-06,1.85E-05
221,-5.75E-06,5.12E-06,3.62E-05,0.000137962,3.16E-06,1.69E-05
222,-1.49E-05,4.11E-06,4.21E-05,4.93E-05,5.70E-06,1.44E-05
223,-1.36E-05,4.54E-06,3.35E-05,-2.76E-06,-1.41E-07,1.37E-05
224,-1.63E-06,6.94E-06,1.80E-05,-1.81E-06,-7.67E-06,1.82E-05
225,2.07E-06,9.81E-06,1.93E-05,6.73E-05,-1.14E-05,2.12E-05
226,-4.65E-07,1.27E-05,3.24E-05,0.000151987,-1.55E-05,1.96E-05
227,-7.42E-06,1.48E-05,3.55E-05,0.000135818,-2.14E-05,1.37E-05
228,-1.85E-05,1.40E-05,3.41E-05,3.35E-05,-2.11E-05,9.21E-06
229,-1.53E-05,1.47E-05,3.44E-05,-2.14E-05,-1.50E-05,1.31E-05
230,-6.40E-07,1.68E-05,3.22E-05,3.35E-06,-1.15E-05,2.24E-05
231,7.68E-06,1.64E-05,2.26E-05,2.96E-05,-6.38E-06,2.75E-05
232,1.52E-05,1.49E-05,2.01E-05,8.10E-06,2.51E-06,2.54E-05
233,2.03E-05,1.53E-05,3.03E-05,1.75E-05,6.86E-06,2.18E-05
234,2.01E-05,1.84E-05,3.57E-05,9.22E-05,3.48E-06,1.73E-05
235,1.37E-05,2.06E-05,3.16E-05,0.000148671,-5.97E-06,8.75E-06
236,-3.97E-06,1.90E-05,2.49E-05,9.34E-05,-1.51E-05,7.52E-07
237,-1.57E-05,1.40E-05,1.98E-05,1.26E-05,-1.81E-05,-5.71E-07
238,-7.12E-06,9.33E-06,1.12E-05,-2.36E-05,-1.43E-05,3.62E-06
239,7.29E-06,8.66E-06,7.28E-06,3.87E-06,-8.69E-06,7.78E-06
240,1.35E-05,1.24E-05,1.41E-05,9.65E-05,-5.03E-06,1.08E-05
241,1.23E-05,1.69E-05,1.99E-05,0.000163869,-5.77E-06,1.20E-05
242,-7.45E-08,1.79E-05,2.20E-05,0.000122445,-1.14E-05,1.16E-05
243,-1.66E-05,1.50E-05,2.20E-05,3.23E-05,-1.69E-05,1.21E-05
244,-1.79E-05,1.17E-05,1.40E-05,-9.74E-06,-1.81E-05,1.37E-05
245,-6.57E-06,1.07E-05,1.95E-06,9.33E-06,-1.54E-05,1.56E-05
246,1.18E-07,1.33E-05,2.70E-06,8.37E-05,-1.21E-05,1.66E-05
247,-3.81E-06,1.87E-05,1.28E-05,0.000147578,-9.18E-06,1.66E-05
248,-1.49E-05,2.30E-05,2.12E-05,0.000115295,-6.34E-06,1.39E-05
249,-2.28E-05,2.20E-05,2.67E-05,1.86E-05,-3.77E-06,1.14E-05
250,-1.37E-05,1.78E-05,2.46E-05,-3.31E-05,-3.83E-06,1.35E-05
251,3.45E-06,1.61E-05,1.51E-05,-2.86E-05,-5.15E-06,1.82E-05
252,1.17E-05,1.85E-05,1.55E-05,4.55E-05,-6.81E-06,2.03E-05
253,1.00E-05,2.07E-05,2.60E-05,0.000143297,-7.46E-06,1.69E-05
254,-4.33E-07,1.87E-05,2.92E-05,0.000142148,-5.54E-06,6.44E-06
255,-1.09E-05,1.35E-05,2.99E-05,4.66E-05,-4.86E-06,-1.49E-06
256,-4.25E-06,1.11E-05,3.09E-05,-1.18E-05,-6.72E-06,1.20E-06
257,8.56E-06,1.22E-05,2.61E-05,4.31E-06,-7.36E-06,4.80E-06
258,7.93E-06,1.64E-05,1.58E-05,2.87E-05,-4.27E-06,7.46E-06
259,3.43E-06,1.87E-05,1.78E-05,1.65E-05,-1.38E-06,1.39E-05
260,2.82E-06,1.68E-05,3.31E-05,3.28E-05,-2.24E-06,1.98E-05
261,4.56E-06,1.75E-05,3.99E-05,0.000105261,-4.55E-06,2.20E-05
262,9.64E-07,1.71E-05,3.94E-05,0.00015528,-7.38E-06,1.80E-05
263,-1.32E-05,1.36E-05,4.02E-05,9.90E-05,-9.09E-06,1.28E-05
264,-2.50E-05,1.05E-05,4.13E-05,2.76E-05,-1.04E-05,1.46E-05
265,-2.01E-05,1.14E-05,3.16E-05,-2.25E-06,-1.16E-05,2.43E-05
266,-5.30E-06,1.12E-05,1.93E-05,2.20E-05,-1.09E-05,2.94E-05
267,7.62E-06,9.38E-06,1.73E-05,0.000104723,-8.30E-06,2.49E-05
268,1.01E-05,8.52E-06,1.85E-05,0.000167909,-4.25E-06,1.55E-05
269,-8.76E-07,8.08E-06,1.93E-05,0.000128802,6.71E-07,9.10E-06
270,-1.26E-05,8.31E-06,1.99E-05,3.81E-05,3.10E-06,1.23E-05
271,-8.16E-06,9.24E-06,1.57E-05,-1.49E-05,-5.96E-07,2.18E-05
272,5.00E-06,1.01E-05,6.85E-06,-1.03E-05,-6.53E-06,2.76E-05
273,8.69E-06,1.03E-05,6.26E-06,6.27E-05,-7.83E-06,2.66E-05
274,2.30E-06,1.06E-05,1.23E-05,0.000141559,-4.68E-06,2.25E-05
275,-5.78E-06,9.51E-06,1.83E-05,0.0001266,-4.73E-07,1.63E-05
276,-9.04E-06,9.21E-06,2.50E-05,3.63E-05,3.16E-06,1.21E-05
277,-4.43E-06,9.52E-06,2.55E-05,-1.88E-05,4.84E-06,1.27E-05
278,1.74E-06,8.74E-06,1.72E-05,-2.08E-05,4.22E-06,1.33E-05
279,1.92E-06,6.53E-06,1.60E-05,4.71E-05,1.15E-06,1.26E-05
280,-1.64E-06,8.09E-06,1.89E-05,0.000133467,-3.14E-06,1.24E-05
281,-1.43E-05,1.19E-05,1.65E-05,0.00011922,-7.40E-06,8.18E-06
282,-2.64E-05,1.30E-05,2.05E-05,1.77E-05,-1.04E-05,4.70E-06
283,-1.83E-05,1.18E-05,2.44E-05,-2.77E-05,-1.26E-05,5.40E-06
284,-2.71E-06,9.54E-06,1.79E-05,3.18E-06,-1.42E-05,5.33E-06
285,1.54E-06,1.09E-05,1.05E-05,3.27E-05,-1.42E-05,5.83E-06
286,4.94E-06,1.36E-05,1.50E-05,2.43E-05,-1.26E-05,7.05E-06
287,5.77E-06,1.23E-05,2.55E-05,4.67E-05,-1.34E-05,7.12E-06
288,3.18E-07,1.05E-05,3.03E-05,0.000123749,-1.40E-05,8.97E-06
289,-6.90E-06,1.01E-05,3.08E-05,0.000166199,-1.35E-05,6.92E-06
290,-2.00E-05,8.54E-06,2.98E-05,9.89E-05,-1.12E-05,2.64E-06
291,-2.74E-05,9.00E-06,2.74E-05,2.18E-05,-9.72E-06,3.00E-06
292,-1.83E-05,1.29E-05,1.64E-05,-4.99E-06,-1.14E-05,8.04E-06
293,-7.07E-06,1.52E-05,8.09E-06,2.21E-05,-1.24E-05,1.40E-05
294,-3.11E-06,1.52E-05,1.51E-05,0.00010163,-1.29E-05,1.64E-05
295,-1.89E-06,1.45E-05,2.46E-05,0.000159675,-1.38E-05,1.42E-05
296,-4.91E-06,1.47E-05,2.89E-05,0.000117699,-1.32E-05,9.21E-06
297,-8.57E-06,1.43E-05,2.65E-05,2.86E-05,-1.10E-05,6.48E-06
298,-2.09E-06,1.19E-05,1.93E-05,-1.79E-05,-1.00E-05,8.73E-06
299,1.14E-05,8.99E-06,1.26E-05,-6.07E-06,-9.58E-06,1.36E-05
300,1.71E-05,8.37E-06,1.48E-05,6.40E-05,-8.16E-06,1.47E-05
301,9.85E-06,9.87E-06,1.71E-05,0.000129216,-6.36E-06,9.56E-06
302,-4.70E-06,1.08E-05,1.60E-05,9.61E-05,-5.79E-06,2.21E-06
303,-1.64E-05,9.87E-06,1.94E-05,-4.69E-06,-3.85E-06,1.23E-07
304,-1.56E-05,7.68E-06,1.74E-05,-4.87E-05,-1.92E-06,2.98E-06
305,-5.95E-06,8.44E-06,5.37E-06,-3.03E-05,-3.51E-06,7.29E-06
306,-9.54E-07,1.23E-05,2.66E-06,4.38E-05,-8.52E-06,1.25E-05
307,-4.12E-06,1.45E-05,1.16E-05,0.000129557,-1.37E-05,1.55E-05
308,-1.51E-05,1.41E-05,1.91E-05,0.000123464,-1.32E-05,1.09E-05
309,-2.45E-05,1.20E-05,2.75E-05,2.72E-05,-1.01E-05,6.84E-06
310,-1.79E-05,9.69E-06,2.94E-05,-2.93E-05,-1.08E-05,8.95E-06
311,-9.32E-06,8.89E-06,2.18E-05,-1.69E-05,-1.34E-05,7.77E-06
312,-1.24E-05,1.03E-05,1.56E-05,-2.11E-06,-1.40E-05,5.83E-06
313,-1.31E-05,1.17E-05,2.17E-05,-1.86E-05,-1.18E-05,7.67E-06
314,-7.77E-06,9.21E-06,3.32E-05,2.53E-06,-1.11E-05,1.21E-05
315,-3.60E-06,9.05E-06,3.52E-05,8.35E-05,-1.18E-05,1.35E-05
316,-5.35E-06,1.43E-05,3.27E-05,0.000131945,-1.17E-05,1.01E-05
317,-1.89E-05,1.63E-05,3.49E-05,6.83E-05,-8.38E-06,8.16E-06
318,-3.08E-05,1.27E-05,3.89E-05,-1.10E-05,-2.78E-06,8.22E-06
319,-2.45E-05,9.59E-06,3.19E-05,-4.43E-05,-3.77E-07,1.02E-05
320,-1.37E-05,8.60E-06,2.24E-05,-2.04E-05,-1.47E-06,1.16E-05
321,-1.10E-05,1.01E-05,2.57E-05,6.07E-05,-4.27E-06,1.20E-05
322,-1.20E-05,1.05E-05,3.37E-05,0.000124419,-8.75E-06,9.01E-06
323,-1.43E-05,7.88E-06,3.73E-05,9.05E-05,-1.43E-05,2.86E-06
324,-1.44E-05,7.67E-06,3.80E-05,8.44E-06,-1.79E-05,-1.68E-06
325,-6.82E-06,1.27E-05,3.76E-05,-3.32E-05,-1.73E-05,2.93E-07
326,3.72E-06,1.92E-05,3.52E-05,-1.54E-05,-1.41E-05,6.32E-06
327,9.33E-06,2.23E-05,3.69E-05,6.37E-05,-1.11E-05,1.13E-05
328,9.08E-06,2.19E-05,3.85E-05,0.000137151,-9.64E-06,1.32E-05
329,-1.93E-08,1.98E-05,4.06E-05,0.000107518,-9.33E-06,1.20E-05
330,-1.11E-05,1.88E-05,4.85E-05,4.23E-06,-1.02E-05,1.10E-05
331,-9.07E-06,1.93E-05,5.04E-05,-4.71E-05,-1.25E-05,1.35E-05
332,-1.44E-06,2.00E-05,4.02E-05,-3.53E-05,-1.39E-05,1.74E-05
333,-2.99E-06,2.10E-05,3.96E-05,4.02E-05,-1.64E-05,1.94E-05
334,-1.20E-05,2.41E-05,4.70E-05,0.000129969,-1.83E-05,1.94E-05
335,-2.22E-05,2.35E-05,4.52E-05,0.000124704,-1.25E-05,1.43E-05
336,-2.53E-05,1.72E-05,4.53E-05,3.06E-05,-1.21E-06,9.37E-06
337,-1.42E-05,1.15E-05,4.25E-05,-2.19E-05,6.97E-06,1.10E-05
338,-6.76E-06,1.14E-05,3.06E-05,-1.08E-05,5.76E-06,1.65E-05
339,-1.27E-05,1.48E-05,2.00E-05,-7.69E-06,-3.53E-06,2.13E-05
340,-1.50E-05,1.36E-05,2.66E-05,-3.61E-05,-1.29E-05,2.13E-05
341,-7.16E-06,9.92E-06,4.03E-05,-2.06E-05,-1.62E-05,1.61E-05
342,4.50E-06,1.15E-05,4.03E-05,6.75E-05,-1.32E-05,1.38E-05
343,4.04E-06,1.54E-05,3.45E-05,0.000135869,-8.96E-06,1.31E-05
344,-1.35E-05,1.56E-05,3.73E-05,8.66E-05,-7.27E-06,1.25E-05
345,-2.79E-05,1.20E-05,4.04E-05,5.27E-06,-9.60E-06,1.74E-05
346,-2.08E-05,1.08E-05,2.53E-05,-3.38E-05,-1.34E-05,2.47E-05
347,-1.05E-05,1.22E-05,1.29E-05,-1.94E-06,-1.44E-05,2.64E-05
348,-1.37E-05,1.38E-05,1.72E-05,0.000101547,-1.28E-05,2.24E-05
349,-2.30E-05,1.35E-05,2.46E-05,0.000182563,-1.03E-05,1.90E-05
350,-3.04E-05,1.16E-05,3.08E-05,0.00014684,-9.86E-06,1.75E-05
351,-2.86E-05,1.09E-05,3.50E-05,5.60E-05,-9.63E-06,2.01E-05
352,-1.53E-05,1.23E-05,3.00E-05,1.16E-05,-6.70E-06,2.47E-05
353,-3.14E-06,1.38E-05,1.84E-05,2.64E-05,-5.51E-06,2.45E-05
354,-3.10E-06,1.40E-05,1.81E-05,9.54E-05,-1.07E-05,1.85E-05
355,-7.52E-06,1.20E-05,2.69E-05,0.000159278,-1.58E-05,1.43E-05
356,-1.33E-05,7.87E-06,3.38E-05,0.000132283,-1.36E-05,1.33E-05
357,-1.99E-05,5.91E-06,3.53E-05,4.62E-05,-6.84E-06,1.41E-05
358,-1.50E-05,9.20E-06,2.65E-05,7.95E-06,-1.20E-06,1.77E-05
359,3.39E-06,1.35E-05,1.03E-05,1.54E-05,1.58E-06,2.23E-05
360,1.69E-05,1.41E-05,6.27E-06,7.61E-05,1.55E-06,2.51E-05
361,2.01E-05,1.36E-05,1.32E-05,0.000155257,-6.78E-07,2.27E-05
362,1.25E-05,1.15E-05,1.87E-05,0.000142931,-4.40E-06,1.49E-05
363,1.97E-07,8.75E-06,2.63E-05,4.85E-05,-7.39E-06,1.06E-05
364,3.09E-06,6.82E-06,3.45E-05,5.08E-06,-8.24E-06,1.67E-05
365,1.76E-05,5.98E-06,3.43E-05,2.81E-05,-7.46E-06,1.98E-05
366,2.38E-05,5.43E-06,2.52E-05,4.42E-05,-5.95E-06,1.31E-05
367,2.73E-05,5.35E-06,2.60E-05,1.81E-05,-5.29E-06,8.59E-06
368,3.03E-05,7.61E-06,3.65E-05,2.50E-05,-6.29E-06,9.53E-06
369,2.83E-05,9.62E-06,3.90E-05,9.77E-05,-8.02E-06,1.05E-05
370,1.71E-05,9.64E-06,3.53E-05,0.000151533,-7.90E-06,8.50E-06
371,-7.96E-06,4.25E-06,3.52E-05,9.30E-05,-7.37E-06,6.09E-06
372,-2.65E-05,-1.45E-06,3.67E-05,5.76E-06,-7.76E-06,9.39E-06
373,-2.07E-05,-2.27E-06,2.31E-05,-3.68E-05,-9.25E-06,1.65E-05
374,-6.53E-06,-9.78E-07,8.93E-06,-1.02E-05,-1.10E-05,1.82E-05
375,6.44E-07,2.25E-06,1.46E-05,8.29E-05,-1.29E-05,1.50E-05
376,4.51E-07,5.90E-06,2.71E-05,0.000150262,-1.36E-05,1.06E-05
377,-7.26E-06,7.05E-06,3.49E-05,0.000108724,-1.25E-05,7.10E-06
378,-1.74E-05,6.08E-06,3.49E-05,1.84E-05,-1.07E-05,6.23E-06
379,-2.06E-05,6.71E-06,2.47E-05,-2.92E-05,-8.19E-06,1.02E-05
380,-1.49E-05,9.12E-06,1.08E-05,-1.69E-05,-6.96E-06,1.61E-05
381,-7.17E-06,1.04E-05,8.41E-06,6.03E-05,-8.73E-06,1.73E-05
382,-4.57E-06,1.05E-05,1.48E-05,0.000139377,-1.12E-05,1.11E-05
383,-1.21E-05,9.97E-06,2.48E-05,0.00012259,-1.03E-05,1.86E-06
384,-2.26E-05,9.14E-06,3.24E-05,3.05E-05,-5.38E-06,-2.03E-06
385,-2.05E-05,9.87E-06,2.72E-05,-2.18E-05,-3.76E-07,6.12E-07
386,-7.16E-06,1.36E-05,1.48E-05,-1.48E-05,7.20E-08,2.78E-06
387,2.86E-06,1.82E-05,1.52E-05,6.07E-05,-1.97E-07,3.79E-06
388,4.12E-06,2.05E-05,2.39E-05,0.000148938,7.34E-07,6.68E-06
389,-6.26E-06,1.96E-05,2.59E-05,0.000131181,3.60E-07,8.10E-06
390,-1.39E-05,1.84E-05,2.94E-05,2.38E-05,-2.14E-06,6.83E-06
391,-3.76E-06,1.96E-05,3.08E-05,-3.07E-05,-2.59E-06,9.78E-06
392,6.62E-06,1.93E-05,2.54E-05,-8.88E-06,-3.17E-06,1.86E-05
393,-1.07E-06,1.67E-05,2.02E-05,1.05E-05,-5.60E-06,2.48E-05
394,-6.84E-06,1.43E-05,2.60E-05,-1.37E-05,-4.40E-06,2.77E-05
395,-1.97E-06,1.38E-05,3.85E-05,-8.13E-06,-3.14E-06,2.88E-05
396,-2.17E-06,1.52E-05,4.49E-05,6.13E-05,-5.83E-06,2.88E-05
397,-8.09E-06,1.80E-05,4.33E-05,0.0001177,-8.65E-06,2.55E-05
398,-1.77E-05,1.80E-05,4.19E-05,6.75E-05,-8.73E-06,1.91E-05
399,-2.02E-05,1.47E-05,4.43E-05,-8.36E-06,-7.70E-06,1.64E-05
400,-7.48E-06,1.22E-05,3.55E-05,-4.48E-05,-5.02E-06,1.81E-05
401,6.82E-06,1.35E-05,2.76E-05,-2.79E-05,-2.47E-06,1.74E-05
402,1.26E-05,1.75E-05,3.45E-05,5.32E-05,-2.09E-06,1.21E-05
403,1.14E-05,1.80E-05,4.20E-05,0.000126839,-3.42E-06,3.22E-06
404,2.78E-06,1.45E-05,4.44E-05,0.000103089,-6.51E-06,-4.74E-06
405,-8.50E-06,1.13E-05,4.59E-05,2.42E-05,-9.88E-06,-7.06E-06
406,-9.75E-06,1.04E-05,4.33E-05,-2.34E-05,-1.04E-05,-3.68E-06
407,-3.61E-06,1.02E-05,3.47E-05,-2.20E-05,-6.14E-06,1.93E-06
408,-1.61E-06,1.12E-05,3.48E-05,4.14E-05,-1.07E-06,4.89E-06
409,-4.70E-06,1.27E-05,4.36E-05,0.000112874,1.24E-06,2.72E-06
410,-1.14E-05,1.24E-05,4.78E-05,9.34E-05,7.36E-07,-3.79E-06
411,-1.78E-05,9.91E-06,4.33E-05,2.01E-06,-1.08E-06,-8.85E-06
412,-1.31E-05,6.57E-06,3.40E-05,-4.48E-05,-4.29E-06,-6.77E-06
413,-2.82E-06,3.00E-06,2.50E-05,-3.29E-05,-9.15E-06,1.74E-06
414,-7.89E-07,1.91E-06,2.35E-05,4.43E-05,-1.12E-05,7.61E-06
415,-5.51E-06,4.65E-06,2.82E-05,0.000131384,-7.96E-06,7.29E-06
416,-1.45E-05,8.18E-06,3.29E-05,0.000112673,-2.96E-06,1.60E-06
417,-2.10E-05,8.00E-06,4.09E-05,7.10E-06,1.29E-06,-1.70E-06
418,-1.45E-05,5.79E-06,4.32E-05,-4.08E-05,2.96E-06,5.70E-06
419,-5.42E-06,7.00E-06,3.60E-05,-2.87E-06,8.06E-09,1.38E-05
420,-1.00E-05,8.70E-06,2.64E-05,3.68E-05,-6.25E-06,1.65E-05
421,-1.36E-05,9.03E-06,2.60E-05,2.44E-05,-1.15E-05,1.63E-05
422,-8.66E-06,9.33E-06,3.38E-05,3.20E-05,-1.23E-05,1.56E-05
423,-4.43E-06,1.04E-05,3.77E-05,0.000102173,-1.16E-05,1.55E-05
424,-9.20E-06,1.32E-05,4.06E-05,0.000152399,-1.21E-05,1.14E-05
425,-2.45E-05,1.23E-05,4.49E-05,9.11E-05,-1.18E-05,5.86E-06
426,-3.07E-05,8.93E-06,4.60E-05,1.20E-05,-9.95E-06,5.43E-06
427,-1.77E-05,7.50E-06,2.94E-05,-1.76E-05,-8.45E-06,1.07E-05
428,-3.93E-06,9.02E-06,1.62E-05,1.13E-05,-9.07E-06,1.45E-05
429,-6.22E-07,1.21E-05,2.34E-05,9.38E-05,-1.05E-05,1.43E-05
430,-1.81E-06,1.52E-05,3.45E-05,0.000154083,-1.24E-05,1.21E-05
431,-5.91E-06,1.63E-05,4.14E-05,0.000116305,-1.73E-05,1.03E-05
432,-1.04E-05,1.53E-05,4.12E-05,3.22E-05,-2.42E-05,1.13E-05
433,-6.13E-06,1.55E-05,3.08E-05,-1.12E-05,-2.96E-05,1.49E-05
434,4.29E-06,1.74E-05,1.80E-05,4.99E-06,-3.07E-05,1.75E-05
435,1.11E-05,1.90E-05,1.76E-05,8.75E-05,-2.63E-05,1.66E-05
436,1.05E-05,1.91E-05,2.32E-05,0.000165088,-1.63E-05,1.46E-05
437,9.39E-08,1.90E-05,2.57E-05,0.000138685,-4.68E-06,1.37E-05
438,-1.39E-05,1.78E-05,2.68E-05,3.94E-05,4.98E-06,1.62E-05
439,-1.37E-05,1.48E-05,2.52E-05,-1.24E-05,1.02E-05,2.09E-05
440,3.49E-07,1.08E-05,1.66E-05,-4.39E-06,9.34E-06,2.21E-05
441,7.04E-06,1.06E-05,1.56E-05,6.48E-05,3.42E-06,2.07E-05
442,4.89E-06,1.30E-05,2.07E-05,0.000146255,-2.67E-06,2.13E-05
443,-5.37E-06,1.10E-05,2.13E-05,0.000131262,-5.13E-06,1.84E-05
444,-1.98E-05,7.67E-06,2.52E-05,3.47E-05,-2.05E-06,1.46E-05
445,-2.08E-05,7.70E-06,2.78E-05,-1.44E-05,9.33E-07,1.53E-05
446,-1.60E-05,9.67E-06,2.01E-05,5.34E-06,-2.59E-06,1.35E-05
447,-1.54E-05,1.28E-05,1.13E-05,2.89E-05,-7.26E-06,1.13E-05
448,-1.22E-05,1.43E-05,1.76E-05,7.76E-06,-1.10E-05,1.51E-05
449,-6.62E-06,1.50E-05,2.98E-05,8.28E-06,-1.31E-05,1.76E-05
450,-2.13E-06,1.55E-05,3.12E-05,7.22E-05,-1.50E-05,1.64E-05
451,-4.51E-06,1.52E-05,2.77E-05,0.000126444,-1.62E-05,1.36E-05
452,-1.57E-05,1.21E-05,2.75E-05,8.55E-05,-1.35E-05,9.82E-06
453,-2.45E-05,8.11E-06,2.47E-05,3.24E-05,-9.88E-06,8.27E-06
454,-1.73E-05,8.40E-06,1.32E-05,1.62E-05,-6.92E-06,1.31E-05
455,-1.83E-06,1.40E-05,7.72E-06,4.22E-05,-5.17E-06,2.01E-05
456,7.84E-06,1.94E-05,1.77E-05,0.000123135,-5.01E-06,2.29E-05
457,7.40E-06,1.83E-05,2.77E-05,0.000188666,-6.80E-06,1.98E-05
458,-2.83E-06,1.43E-05,3.26E-05,0.000148895,-9.02E-06,1.58E-05
459,-1.27E-05,1.39E-05,3.48E-05,5.04E-05,-1.03E-05,1.80E-05
460,-7.38E-06,1.64E-05,3.14E-05,-5.23E-06,-1.17E-05,2.44E-05
461,8.35E-06,1.73E-05,2.43E-05,6.04E-06,-1.50E-05,2.51E-05
462,1.76E-05,1.76E-05,2.56E-05,8.13E-05,-1.83E-05,1.77E-05
463,1.45E-05,1.98E-05,3.06E-05,0.000152409,-1.97E-05,9.68E-06
464,2.19E-06,2.26E-05,3.26E-05,0.000129094,-1.88E-05,6.26E-06
465,-7.21E-06,2.12E-05,3.56E-05,3.22E-05,-1.35E-05,8.87E-06
466,-2.06E-06,1.58E-05,3.10E-05,-2.82E-05,-6.54E-06,1.51E-05
467,6.64E-06,1.31E-05,1.82E-05,-3.32E-05,1.14E-06,2.06E-05
468,3.45E-06,1.44E-05,1.86E-05,3.03E-05,9.31E-06,2.18E-05
469,-7.58E-06,1.55E-05,2.85E-05,0.000114837,1.19E-05,1.77E-05
470,-2.13E-05,1.54E-05,3.41E-05,0.000105681,5.56E-06,8.05E-06
471,-3.17E-05,1.52E-05,4.01E-05,7.86E-06,-5.02E-06,1.61E-06
472,-2.51E-05,1.79E-05,4.14E-05,-4.45E-05,-1.06E-05,4.11E-06
473,-8.81E-06,1.64E-05,3.28E-05,-2.24E-05,-1.10E-05,7.35E-06
474,-1.19E-06,1.29E-05,1.93E-05,3.93E-06,-1.07E-05,1.00E-05
475,2.95E-06,1.44E-05,2.02E-05,-6.70E-06,-1.14E-05,1.43E-05
476,6.71E-06,1.56E-05,2.88E-05,1.29E-05,-1.40E-05,1.52E-05
477,4.99E-06,1.72E-05,2.93E-05,9.02E-05,-1.41E-05,1.19E-05
478,-6.58E-06,2.16E-05,2.61E-05,0.000139333,-1.17E-05,6.39E-06
479,-2.45E-05,2.38E-05,2.75E-05,8.49E-05,-1.17E-05,8.70E-07
480,-3.30E-05,2.08E-05,3.15E-05,1.71E-05,-1.70E-05,1.26E-06
481,-2.15E-05,1.71E-05,2.14E-05,-1.17E-05,-2.25E-05,7.85E-06
482,-3.38E-06,1.65E-05,7.59E-06,6.55E-06,-2.27E-05,1.49E-05
483,4.71E-06,2.01E-05,7.19E-06,8.66E-05,-1.76E-05,2.03E-05
484,-2.69E-06,2.36E-05,1.45E-05,0.000161435,-1.21E-05,2.09E-05
485,-1.92E-05,2.38E-05,2.36E-05,0.000138273,-1.02E-05,1.83E-05
486,-3.14E-05,2.11E-05,3.00E-05,5.84E-05,-1.22E-05,1.68E-05
487,-2.91E-05,1.61E-05,2.60E-05,1.38E-05,-1.43E-05,2.04E-05
488,-1.55E-05,1.14E-05,1.99E-05,2.99E-05,-1.06E-05,2.44E-05
489,-5.51E-06,1.04E-05,2.76E-05,0.000106113,4.37E-07,2.50E-05
490,-9.09E-06,1.26E-05,3.76E-05,0.000172856,1.33E-05,2.29E-05
491,-2.31E-05,1.23E-05,4.00E-05,0.000142516,1.84E-05,1.75E-05
492,-3.47E-05,8.72E-06,4.19E-05,4.58E-05,1.33E-05,1.39E-05
493,-3.25E-05,5.52E-06,3.96E-05,-1.05E-05,4.59E-06,1.58E-05
494,-1.90E-05,5.09E-06,3.12E-05,-1.30E-05,-1.48E-06,1.85E-05
495,-6.54E-06,8.12E-06,2.94E-05,5.60E-05,-1.13E-05,1.72E-05
496,2.06E-06,1.24E-05,3.00E-05,0.000142858,-2.43E-05,1.44E-05
497,-2.24E-06,1.42E-05,3.03E-05,0.000123905,-3.05E-05,9.92E-06
498,-1.64E-05,1.09E-05,3.84E-05,2.11E-05,-3.02E-05,6.91E-06
499,-1.57E-05,8.27E-06,3.70E-05,-2.56E-05,-2.49E-05,1.09E-05
500,-3.36E-06,8.59E-06,2.58E-05,-1.37E-06,-1.79E-05,1.13E-05
501,7.65E-08,9.93E-06,2.13E-05,2.38E-05,-9.90E-06,7.04E-06
502,-2.02E-06,9.60E-06,2.77E-05,5.64E-06,-1.71E-06,9.73E-06
503,-5.09E-06,9.33E-06,3.39E-05,1.33E-05,5.10E-06,1.30E-05
504,-7.71E-06,1.20E-05,3.30E-05,7.97E-05,1.17E-05,1.37E-05
505,-1.03E-05,1.46E-05,3.19E-05,0.00012106,1.26E-05,1.34E-05
506,-1.95E-05,1.52E-05,3.50E-05,5.84E-05,6.55E-06,1.10E-05
507,-2.91E-05,1.45E-05,3.74E-05,-1.76E-05,-2.48E-06,9.06E-06
508,-2.46E-05,1.47E-05,2.59E-05,-4.94E-05,-8.63E-06,1.07E-05
509,-1.31E-05,1.49E-05,1.48E-05,-2.54E-05,-1.21E-05,1.46E-05
510,-6.62E-06,1.66E-05,2.05E-05,6.29E-05,-1.38E-05,1.75E-05
511,-8.58E-06,1.84E-05,2.90E-05,0.000137694,-1.48E-05,1.61E-05
512,-1.74E-05,1.69E-05,3.27E-05,0.000105186,-1.55E-05,1.07E-05
513,-2.53E-05,1.38E-05,3.19E-05,1.59E-05,-1.41E-05,7.21E-06
514,-2.24E-05,1.35E-05,2.46E-05,-2.56E-05,-1.08E-05,8.28E-06
515,-1.20E-05,1.59E-05,1.52E-05,-8.33E-07,-8.59E-06,1.02E-05
516,-7.50E-06,1.71E-05,1.60E-05,7.57E-05,-8.98E-06,1.12E-05
517,-1.38E-05,1.51E-05,2.12E-05,0.000140383,-1.03E-05,1.19E-05
518,-2.55E-05,1.07E-05,2.35E-05,0.000117375,-1.05E-05,9.48E-06
519,-3.01E-05,7.46E-06,2.40E-05,3.75E-05,-8.18E-06,7.74E-06
520,-2.03E-05,7.41E-06,1.80E-05,5.40E-06,-6.63E-06,1.18E-05
521,-2.83E-06,1.12E-05,7.80E-06,1.76E-05,-9.65E-06,1.64E-05
522,7.37E-06,1.63E-05,1.05E-05,7.57E-05,-1.68E-05,1.64E-05
523,5.98E-06,1.97E-05,2.44E-05,0.000143903,-2.00E-05,1.61E-05
524,-5.23E-06,2.04E-05,3.25E-05,0.000124744,-1.49E-05,1.27E-05
525,-1.51E-05,1.94E-05,3.99E-05,3.16E-05,-6.80E-06,8.64E-06
526,-1.00E-05,1.90E-05,4.27E-05,-1.47E-05,-5.82E-06,1.21E-05
527,2.32E-06,1.73E-05,3.60E-05,2.63E-06,-1.19E-05,1.59E-05
528,7.48E-06,1.33E-05,2.80E-05,2.25E-05,-1.70E-05,1.71E-05
529,1.23E-05,1.19E-05,3.25E-05,6.99E-06,-1.89E-05,1.98E-05
530,2.11E-05,1.16E-05,4.25E-05,7.87E-06,-1.87E-05,2.09E-05
531,2.71E-05,1.08E-05,4.43E-05,6.06E-05,-1.72E-05,2.07E-05
532,2.32E-05,9.81E-06,4.00E-05,0.0001064,-1.36E-05,1.69E-05
533,9.13E-06,9.02E-06,3.62E-05,6.02E-05,-1.10E-05,8.25E-06
534,-9.39E-07,8.22E-06,3.60E-05,-8.46E-06,-1.29E-05,4.10E-06
535,4.49E-06,7.89E-06,2.71E-05,-4.66E-05,-1.50E-05,7.69E-06
536,1.53E-05,9.69E-06,1.65E-05,-2.64E-05,-1.33E-05,1.30E-05
537,2.05E-05,1.34E-05,1.70E-05,6.21E-05,-8.38E-06,1.43E-05
538,1.92E-05,1.56E-05,2.22E-05,0.0001348,-5.29E-06,1.04E-05
539,1.10E-05,1.32E-05,2.63E-05,0.00010373,-6.28E-06,4.33E-06
540,1.57E-06,8.44E-06,2.85E-05,2.19E-05,-7.79E-06,4.51E-06
541,2.62E-06,5.36E-06,2.38E-05,-1.36E-05,-8.36E-06,1.02E-05
542,1.22E-05,6.28E-06,1.25E-05,1.40E-05,-9.42E-06,1.19E-05
543,1.61E-05,1.03E-05,7.97E-06,9.71E-05,-1.20E-05,1.00E-05
544,8.77E-06,1.58E-05,1.03E-05,0.000166298,-1.35E-05,8.98E-06
545,-7.52E-06,1.85E-05,1.25E-05,0.000137931,-1.23E-05,9.12E-06
546,-2.19E-05,1.47E-05,1.52E-05,4.48E-05,-7.56E-06,8.59E-06
547,-1.92E-05,8.63E-06,1.48E-05,-5.85E-06,-2.28E-06,9.15E-06
548,-4.30E-06,5.22E-06,1.08E-05,-9.99E-07,-1.19E-06,1.25E-05
549,3.33E-06,7.30E-06,1.39E-05,7.73E-05,-3.74E-06,1.97E-05
550,-1.17E-06,1.30E-05,1.98E-05,0.000169794,-6.09E-06,2.51E-05
551,-1.33E-05,1.40E-05,1.97E-05,0.000151778,-6.51E-06,1.97E-05
552,-2.30E-05,9.12E-06,2.08E-05,4.74E-05,-7.94E-06,1.15E-05
553,-1.64E-05,3.68E-06,2.38E-05,1.40E-06,-6.79E-06,1.11E-05
554,1.78E-06,4.45E-06,1.95E-05,2.52E-05,-1.27E-06,1.31E-05
555,8.08E-06,1.07E-05,8.03E-06,4.15E-05,-5.77E-08,1.63E-05
556,8.75E-06,1.38E-05,5.50E-06,2.26E-05,-4.15E-06,1.93E-05
557,1.69E-05,9.81E-06,1.05E-05,3.90E-05,-9.30E-06,1.80E-05
558,2.63E-05,5.94E-06,1.49E-05,0.000111871,-1.16E-05,1.40E-05
559,2.24E-05,4.54E-06,1.77E-05,0.000153093,-1.02E-05,7.86E-06
560,2.59E-06,4.38E-06,2.25E-05,9.57E-05,-8.31E-06,3.56E-06
561,-8.65E-06,3.66E-06,2.91E-05,3.07E-05,-7.22E-06,4.63E-06
562,1.15E-06,1.48E-06,2.17E-05,-1.51E-06,-8.12E-06,9.71E-06
563,1.55E-05,-1.16E-06,1.09E-05,1.05E-05,-9.32E-06,1.48E-05
564,2.08E-05,-6.45E-07,1.43E-05,9.02E-05,-1.03E-05,1.63E-05
565,1.71E-05,2.95E-06,2.28E-05,0.000164549,-1.22E-05,1.34E-05
566,5.38E-06,5.55E-06,2.88E-05,0.000133393,-1.39E-05,9.48E-06
567,-5.93E-06,7.48E-06,2.97E-05,4.17E-05,-1.33E-05,1.08E-05
568,-6.58E-06,8.11E-06,2.47E-05,-1.48E-05,-1.14E-05,1.74E-05
569,-1.77E-06,7.74E-06,2.06E-05,-1.10E-05,-1.13E-05,2.10E-05
570,-2.79E-06,6.70E-06,2.72E-05,6.19E-05,-1.28E-05,1.82E-05
571,-8.70E-06,6.70E-06,3.60E-05,0.000141645,-1.40E-05,1.32E-05
572,-1.66E-05,7.30E-06,3.98E-05,0.000122518,-1.35E-05,9.07E-06
573,-2.50E-05,7.74E-06,4.44E-05,2.10E-05,-1.32E-05,6.75E-06
574,-2.26E-05,7.85E-06,4.58E-05,-3.90E-05,-1.39E-05,5.34E-06
575,-9.90E-06,8.92E-06,3.85E-05,-3.14E-05,-1.48E-05,3.29E-06
576,-4.67E-06,1.11E-05,3.64E-05,5.09E-05,-1.47E-05,3.61E-06
577,-1.07E-05,1.45E-05,3.96E-05,0.000142201,-1.46E-05,5.26E-06
578,-2.15E-05,1.57E-05,3.76E-05,0.000122515,-1.50E-05,3.44E-06
579,-2.84E-05,1.46E-05,3.78E-05,1.57E-05,-1.63E-05,9.87E-07
580,-2.31E-05,1.34E-05,3.75E-05,-4.11E-05,-1.40E-05,4.46E-06
581,-1.35E-05,1.00E-05,3.13E-05,-2.55E-05,-4.86E-06,1.06E-05
582,-7.64E-06,5.08E-06,2.30E-05,-2.70E-06,2.48E-07,1.61E-05
583,-6.00E-07,3.31E-06,2.47E-05,-1.11E-05,-1.35E-06,2.04E-05
584,5.32E-06,5.47E-06,3.19E-05,6.20E-06,-4.64E-06,2.06E-05
585,6.40E-06,9.69E-06,3.43E-05,7.63E-05,-8.40E-06,1.72E-05
586,2.23E-07,1.40E-05,3.28E-05,0.000122005,-1.39E-05,1.38E-05
587,-1.34E-05,1.32E-05,3.38E-05,6.61E-05,-1.79E-05,1.37E-05
588,-1.99E-05,8.90E-06,3.66E-05,-2.61E-07,-1.69E-05,1.47E-05
589,-1.09E-05,6.35E-06,2.41E-05,-2.39E-05,-1.21E-05,1.70E-05
590,1.18E-06,7.71E-06,7.60E-06,4.13E-06,-5.09E-06,1.75E-05
591,5.69E-06,1.21E-05,7.83E-06,8.50E-05,3.52E-06,1.70E-05
592,4.42E-07,1.60E-05,1.61E-05,0.000142386,1.06E-05,1.60E-05
593,-1.29E-05,1.54E-05,2.29E-05,9.56E-05,1.11E-05,1.37E-05
594,-2.46E-05,1.27E-05,2.61E-05,2.28E-06,5.11E-06,1.32E-05
595,-2.06E-05,1.08E-05,2.18E-05,-4.43E-05,-2.64E-06,1.58E-05
596,-5.54E-06,9.87E-06,1.50E-05,-3.02E-05,-7.80E-06,1.69E-05
597,3.92E-06,1.12E-05,1.98E-05,4.29E-05,-7.11E-06,1.41E-05
598,2.25E-06,1.52E-05,3.17E-05,0.000113147,-2.81E-06,1.12E-05
599,-7.15E-06,1.71E-05,4.01E-05,8.84E-05,-2.12E-06,9.52E-06
600,-1.31E-05,1.62E-05,4.38E-05,-6.13E-06,-7.87E-06,1.05E-05
601,-6.01E-06,1.63E-05,3.77E-05,-5.30E-05,-1.78E-05,1.31E-05
602,2.38E-06,1.64E-05,2.84E-05,-4.30E-05,-2.48E-05,1.53E-05
603,-1.67E-06,1.58E-05,3.13E-05,2.35E-05,-2.48E-05,1.60E-05
604,-1.10E-05,1.55E-05,3.87E-05,0.000103182,-1.99E-05,1.38E-05
605,-2.04E-05,1.32E-05,3.93E-05,8.72E-05,-1.13E-05,8.47E-06
606,-2.67E-05,9.65E-06,4.26E-05,-1.59E-05,-1.43E-06,3.53E-06
607,-2.25E-05,1.05E-05,4.48E-05,-6.84E-05,8.09E-06,2.25E-06
608,-1.74E-05,1.53E-05,3.71E-05,-3.76E-05,1.55E-05,2.72E-06
609,-1.88E-05,1.90E-05,2.79E-05,-2.85E-06,1.66E-05,3.55E-06
610,-1.88E-05,1.92E-05,3.12E-05,-2.54E-05,1.23E-05,6.88E-06
611,-1.60E-05,1.87E-05,3.83E-05,-3.08E-05,6.94E-06,1.05E-05
612,-1.42E-05,1.95E-05,3.88E-05,2.97E-05,3.15E-06,1.07E-05
613,-2.08E-05,1.94E-05,3.71E-05,8.14E-05,-3.54E-07,6.59E-06
614,-3.56E-05,1.82E-05,3.73E-05,3.41E-05,-1.62E-06,4.52E-07
615,-4.41E-05,1.75E-05,3.84E-05,-3.26E-05,-1.99E-06,4.40E-07
616,-3.17E-05,1.82E-05,2.98E-05,-5.90E-05,-2.39E-06,8.35E-06
617,-1.24E-05,1.95E-05,2.02E-05,-2.45E-05,-2.13E-06,1.49E-05
618,-4.45E-06,2.25E-05,1.94E-05,7.85E-05,-3.89E-06,1.85E-05
619,-7.55E-06,2.48E-05,2.19E-05,0.000164723,-7.08E-06,2.13E-05
620,-1.66E-05,2.23E-05,2.52E-05,0.000140629,-8.77E-06,2.34E-05
621,-2.61E-05,1.75E-05,3.03E-05,5.50E-05,-9.46E-06,2.47E-05
622,-2.55E-05,1.49E-05,2.87E-05,7.70E-06,-1.26E-05,2.59E-05
623,-1.26E-05,1.59E-05,2.01E-05,2.29E-05,-1.70E-05,2.68E-05
624,7.73E-07,1.83E-05,2.14E-05,0.000101467,-1.97E-05,2.66E-05
625,5.99E-06,2.01E-05,2.99E-05,0.000177113,-2.13E-05,2.27E-05
626,9.90E-07,1.91E-05,3.62E-05,0.000157298,-2.26E-05,1.44E-05
627,-8.43E-06,1.53E-05,3.81E-05,6.75E-05,-1.99E-05,1.02E-05
628,-1.08E-05,1.32E-05,2.97E-05,1.72E-05,-1.33E-05,1.66E-05
629,-4.04E-06,1.53E-05,1.87E-05,1.60E-05,-5.03E-06,2.45E-05
630,2.87E-06,1.78E-05,2.43E-05,7.64E-05,2.70E-06,2.25E-05
631,5.57E-06,1.99E-05,4.01E-05,0.000148843,4.18E-06,1.61E-05
632,-4.34E-06,1.97E-05,4.74E-05,0.000126808,-9.18E-08,1.12E-05
633,-1.73E-05,1.66E-05,4.90E-05,2.57E-05,-3.98E-06,9.97E-06
634,-1.17E-05,1.27E-05,4.80E-05,-2.33E-05,-5.89E-06,1.30E-05
635,3.54E-07,9.47E-06,4.34E-05,4.14E-06,-3.82E-06,1.33E-05
636,6.78E-07,9.12E-06,3.91E-05,2.96E-05,-4.44E-07,9.41E-06
637,-1.77E-06,1.08E-05,4.28E-05,9.87E-06,1.26E-06,9.25E-06
638,3.11E-06,1.45E-05,5.19E-05,1.88E-05,-6.68E-07,1.20E-05
639,1.13E-05,1.91E-05,5.37E-05,9.16E-05,-4.49E-06,1.31E-05
640,1.25E-05,2.12E-05,4.66E-05,0.000144189,-3.61E-06,1.15E-05
641,-1.49E-06,1.61E-05,4.02E-05,9.92E-05,1.44E-06,6.64E-06
642,-1.92E-05,1.00E-05,4.03E-05,4.04E-05,3.03E-06,4.63E-06
643,-1.87E-05,1.07E-05,3.15E-05,1.36E-05,-4.02E-06,1.06E-05
644,-7.10E-06,1.50E-05,1.94E-05,2.36E-05,-1.20E-05,1.78E-05
645,-2.71E-07,1.68E-05,1.90E-05,8.94E-05,-1.26E-05,2.12E-05
646,-3.93E-06,1.48E-05,2.23E-05,0.000153576,-7.04E-06,2.14E-05
647,-1.55E-05,1.23E-05,2.43E-05,0.000134989,-1.42E-06,1.78E-05
648,-2.24E-05,1.11E-05,2.84E-05,6.38E-05,1.51E-06,1.27E-05
649,-1.39E-05,9.61E-06,2.93E-05,1.95E-05,-1.05E-06,1.15E-05
650,1.36E-08,6.90E-06,2.25E-05,2.87E-05,-9.92E-06,1.41E-05
651,5.76E-06,5.28E-06,2.06E-05,9.96E-05,-1.92E-05,1.62E-05
652,2.80E-06,6.40E-06,2.51E-05,0.000171364,-2.34E-05,1.51E-05
653,-5.83E-06,7.07E-06,3.33E-05,0.000148158,-2.44E-05,1.36E-05
654,-1.58E-05,4.96E-06,4.39E-05,4.90E-05,-2.44E-05,1.52E-05
655,-1.80E-05,3.29E-06,4.39E-05,-4.30E-06,-2.24E-05,1.88E-05
656,-8.53E-06,3.06E-06,3.15E-05,1.23E-05,-1.86E-05,2.08E-05
657,1.06E-06,3.77E-06,3.04E-05,9.01E-05,-1.50E-05,1.91E-05
658,3.96E-06,4.72E-06,4.09E-05,0.000173386,-1.43E-05,1.43E-05
659,-4.02E-06,4.52E-06,4.36E-05,0.000160754,-1.45E-05,6.36E-06
660,-1.21E-05,3.19E-06,4.22E-05,6.49E-05,-1.44E-05,1.51E-06
661,-3.22E-06,2.26E-06,4.05E-05,1.45E-05,-1.45E-05,6.59E-06
662,1.07E-05,2.66E-06,3.29E-05,3.43E-05,-1.27E-05,1.39E-05
663,1.52E-05,1.76E-06,2.15E-05,5.45E-05,-1.12E-05,1.53E-05
664,1.78E-05,-1.73E-06,1.86E-05,4.05E-05,-1.23E-05,1.57E-05
665,1.87E-05,-1.15E-06,2.43E-05,5.91E-05,-1.58E-05,1.75E-05
666,1.61E-05,3.93E-06,2.94E-05,0.000134129,-1.86E-05,1.86E-05
667,8.81E-06,9.96E-06,2.95E-05,0.000170545,-1.60E-05,1.30E-05
668,-7.35E-06,1.20E-05,2.69E-05,9.62E-05,-1.13E-05,3.52E-06
669,-2.29E-05,8.43E-06,2.66E-05,1.66E-05,-9.88E-06,-5.81E-07
670,-2.07E-05,6.22E-06,1.93E-05,-9.57E-06,-1.28E-05,1.28E-06
671,-5.58E-06,9.45E-06,1.02E-05,2.35E-05,-1.57E-05,3.34E-06
672,7.18E-06,1.26E-05,1.14E-05,0.000114435,-1.61E-05,4.43E-06
673,7.55E-06,1.02E-05,1.85E-05,0.000183962,-1.51E-05,5.99E-06
674,-4.67E-06,6.03E-06,2.48E-05,0.000147607,-1.36E-05,7.35E-06
675,-1.78E-05,7.28E-06,2.80E-05,5.44E-05,-1.19E-05,8.21E-06
676,-1.91E-05,1.32E-05,2.33E-05,2.07E-06,-1.07E-05,1.01E-05
677,-1.10E-05,1.61E-05,1.26E-05,1.74E-05,-9.25E-06,1.28E-05
678,-4.83E-06,1.51E-05,1.00E-05,9.57E-05,-7.91E-06,1.52E-05
679,-6.47E-06,1.46E-05,1.23E-05,0.000166532,-8.38E-06,1.61E-05
680,-1.55E-05,1.52E-05,1.57E-05,0.000140546,-1.11E-05,1.14E-05
681,-2.32E-05,1.43E-05,2.50E-05,5.01E-05,-1.49E-05,5.76E-06
682,-1.74E-05,1.37E-05,2.77E-05,3.25E-06,-1.61E-05,6.99E-06
683,-1.51E-06,1.38E-05,2.00E-05,3.76E-06,-1.25E-05,1.09E-05
684,6.16E-06,1.39E-05,2.25E-05,6.21E-05,-7.47E-06,1.13E-05
685,2.30E-06,1.50E-05,3.50E-05,0.000147161,-4.73E-06,1.02E-05
686,-9.61E-06,1.39E-05,4.26E-05,0.000142415,-3.85E-06,7.10E-06
687,-1.74E-05,9.90E-06,4.71E-05,5.06E-05,-5.29E-06,5.07E-06
688,-6.94E-06,7.59E-06,4.62E-05,6.88E-06,-9.13E-06,6.66E-06
689,1.01E-05,9.60E-06,3.90E-05,3.25E-05,-1.16E-05,7.63E-06
690,1.48E-05,1.34E-05,3.30E-05,5.02E-05,-1.07E-05,7.69E-06
691,1.52E-05,1.52E-05,3.75E-05,1.59E-05,-9.27E-06,8.20E-06
692,1.80E-05,1.48E-05,4.71E-05,1.09E-05,-9.74E-06,8.83E-06
693,1.83E-05,1.69E-05,4.88E-05,7.08E-05,-9.72E-06,8.25E-06
694,1.34E-05,2.02E-05,4.63E-05,0.0001059,-6.92E-06,6.67E-06
695,-1.59E-06,2.21E-05,4.72E-05,3.88E-05,-4.51E-06,5.72E-06
696,-1.42E-05,2.20E-05,5.13E-05,-3.62E-05,-3.52E-06,8.39E-06
697,-7.43E-06,1.99E-05,4.20E-05,-6.39E-05,-4.77E-06,1.24E-05
698,4.98E-06,1.98E-05,2.89E-05,-3.93E-05,-4.97E-06,1.29E-05
699,4.99E-06,2.11E-05,2.84E-05,4.23E-05,-3.80E-06,1.30E-05
700,-6.62E-06,2.27E-05,3.42E-05,0.000105651,-2.84E-06,1.29E-05
701,-1.86E-05,2.28E-05,4.04E-05,6.76E-05,-1.05E-06,1.22E-05
702,-2.34E-05,2.23E-05,4.27E-05,-2.67E-05,1.71E-06,1.47E-05
703,-1.72E-05,2.16E-05,3.65E-05,-8.45E-05,4.19E-06,1.99E-05
704,-8.12E-06,2.07E-05,2.62E-05,-7.42E-05,4.04E-06,2.10E-05
705,-7.64E-06,1.98E-05,2.57E-05,1.06E-05,-6.65E-07,1.85E-05
706,-1.22E-05,1.95E-05,3.04E-05,9.92E-05,-7.42E-06,1.62E-05
707,-1.59E-05,1.91E-05,3.44E-05,8.86E-05,-1.14E-05,1.43E-05
708,-1.88E-05,1.82E-05,3.54E-05,-7.31E-07,-1.20E-05,1.38E-05
709,-1.52E-05,1.84E-05,2.65E-05,-5.35E-05,-9.99E-06,1.73E-05
710,-4.67E-06,1.82E-05,9.01E-06,-5.06E-05,-8.35E-06,2.18E-05
711,-2.05E-06,1.85E-05,5.39E-06,2.14E-05,-9.62E-06,2.20E-05
712,-5.77E-06,1.92E-05,1.52E-05,0.000115684,-1.24E-05,1.75E-05
713,-1.29E-05,1.82E-05,2.14E-05,0.000112088,-1.28E-05,1.07E-05
714,-2.36E-05,1.46E-05,2.90E-05,1.76E-05,-1.25E-05,8.85E-06
715,-2.41E-05,1.15E-05,2.61E-05,-2.47E-05,-1.60E-05,1.43E-05
716,-1.79E-05,9.05E-06,1.21E-05,3.02E-06,-2.00E-05,1.86E-05
717,-1.75E-05,6.38E-06,4.31E-06,2.20E-05,-1.83E-05,1.83E-05
718,-1.58E-05,3.41E-06,1.09E-05,7.08E-07,-1.39E-05,1.93E-05
719,-1.20E-05,4.61E-06,2.23E-05,3.81E-06,-1.14E-05,2.01E-05
720,-9.89E-06,1.17E-05,2.42E-05,7.18E-05,-7.68E-06,1.80E-05
721,-1.11E-05,1.49E-05,2.14E-05,0.000127947,1.48E-07,1.36E-05
722,-2.07E-05,1.07E-05,2.32E-05,8.40E-05,2.98E-06,7.87E-06
723,-2.88E-05,5.52E-06,2.63E-05,1.47E-05,-2.42E-06,7.64E-06
724,-1.81E-05,4.55E-06,1.61E-05,-2.11E-05,-8.84E-06,1.42E-05
725,-2.98E-06,5.30E-06,2.88E-06,-2.40E-06,-1.10E-05,1.90E-05
726,2.69E-06,8.22E-06,1.06E-06,8.11E-05,-1.08E-05,1.80E-05
727,5.28E-08,1.13E-05,9.10E-06,0.000151376,-1.02E-05,1.27E-05
728,-6.57E-06,1.05E-05,2.11E-05,0.000115681,-9.75E-06,8.50E-06
729,-1.00E-05,8.14E-06,2.78E-05,2.29E-05,-9.28E-06,8.00E-06
730,-4.18E-06,7.43E-06,2.31E-05,-3.41E-05,-8.92E-06,1.08E-05
731,3.56E-06,1.06E-05,1.60E-05,-3.26E-05,-1.05E-05,1.37E-05
732,3.04E-06,1.56E-05,2.04E-05,3.18E-05,-1.12E-05,1.28E-05
733,-3.26E-06,1.91E-05,2.79E-05,0.000102401,-8.62E-06,8.51E-06
734,-1.21E-05,1.97E-05,2.93E-05,8.23E-05,-5.70E-06,4.35E-06
735,-2.01E-05,2.09E-05,2.80E-05,-1.24E-05,-5.52E-06,5.10E-06
736,-1.82E-05,2.30E-05,2.24E-05,-6.39E-05,-5.53E-06,1.09E-05
737,-6.35E-06,2.38E-05,1.35E-05,-5.06E-05,-3.91E-06,1.51E-05
738,2.14E-06,2.47E-05,1.42E-05,2.78E-05,-1.74E-06,1.57E-05
739,1.38E-06,2.47E-05,1.75E-05,0.000123591,1.05E-06,1.53E-05
740,-1.32E-05,2.04E-05,1.95E-05,0.000120969,2.93E-06,1.02E-05
741,-2.99E-05,1.21E-05,2.89E-05,1.92E-05,-1.71E-06,4.97E-06
742,-2.49E-05,7.23E-06,3.62E-05,-4.37E-05,-7.98E-06,6.88E-06
743,-5.88E-06,8.42E-06,3.23E-05,-2.60E-05,-8.77E-06,9.98E-06
744,-1.25E-06,9.48E-06,1.81E-05,-2.48E-06,-6.54E-06,1.22E-05
745,-6.40E-06,9.49E-06,1.48E-05,-2.97E-05,-6.74E-06,1.69E-05
746,-7.36E-06,1.03E-05,2.28E-05,-2.72E-05,-9.26E-06,2.20E-05
747,-4.51E-06,1.26E-05,2.47E-05,4.97E-05,-1.01E-05,2.31E-05
748,-4.95E-06,1.56E-05,2.41E-05,0.000116634,-6.86E-06,1.68E-05
749,-1.83E-05,1.57E-05,2.48E-05,7.75E-05,-3.95E-06,8.28E-06
750,-3.16E-05,1.28E-05,2.04E-05,1.52E-05,-3.30E-06,5.98E-06
751,-2.83E-05,9.77E-06,1.51E-06,-7.80E-06,-2.32E-06,9.98E-06
752,-1.42E-05,8.60E-06,-1.34E-05,2.22E-05,-6.16E-07,1.31E-05
753,7.09E-07,7.24E-06,-7.30E-06,0.000108434,-1.23E-06,1.47E-05
754,8.39E-06,7.81E-06,7.32E-06,0.00017857,-4.84E-06,1.52E-05
755,4.69E-06,8.76E-06,1.85E-05,0.00014952,-6.99E-06,1.35E-05
756,-3.29E-06,8.76E-06,2.28E-05,6.58E-05,-6.95E-06,1.07E-05
757,-1.46E-06,9.29E-06,1.55E-05,1.63E-05,-7.98E-06,1.13E-05
758,9.27E-06,9.71E-06,7.86E-07,1.92E-05,-9.93E-06,1.66E-05
759,1.59E-05,8.13E-06,-3.44E-06,7.53E-05,-1.06E-05,2.01E-05
760,1.50E-05,5.48E-06,4.15E-06,0.000129113,-1.10E-05,1.75E-05
761,1.06E-05,4.20E-06,1.57E-05,0.000102587,-1.06E-05,1.03E-05
762,5.52E-06,4.73E-06,2.76E-05,1.89E-05,-8.77E-06,6.37E-06
763,4.59E-06,6.45E-06,2.84E-05,-2.28E-05,-6.78E-06,1.07E-05
764,9.91E-06,9.01E-06,1.89E-05,-1.65E-05,-8.25E-06,1.86E-05
765,1.62E-05,1.25E-05,2.23E-05,4.86E-05,-1.16E-05,2.34E-05
766,1.86E-05,1.38E-05,3.50E-05,0.000127583,-1.12E-05,2.11E-05
767,1.23E-05,1.13E-05,4.05E-05,0.000114407,-7.80E-06,1.21E-05
768,1.55E-06,1.00E-05,4.12E-05,1.79E-05,-4.94E-06,6.79E-06
769,4.33E-06,1.25E-05,3.98E-05,-3.06E-05,-3.20E-06,1.20E-05
770,1.51E-05,1.27E-05,4.03E-05,-7.61E-06,-3.76E-06,1.73E-05
771,1.38E-05,1.11E-05,3.60E-05,1.97E-05,-4.34E-06,1.71E-05
772,1.26E-05,9.80E-06,3.34E-05,1.19E-05,-5.21E-06,1.79E-05
773,1.36E-05,9.85E-06,3.83E-05,2.53E-05,-7.96E-06,2.05E-05
774,7.87E-06,1.21E-05,3.94E-05,9.43E-05,-1.32E-05,2.15E-05
775,-3.81E-06,1.59E-05,3.77E-05,0.000148907,-1.86E-05,1.74E-05
776,-1.84E-05,1.55E-05,3.77E-05,0.000113683,-2.11E-05,1.22E-05
777,-2.70E-05,1.34E-05,3.48E-05,6.48E-05,-2.02E-05,1.02E-05
778,-2.32E-05,1.50E-05,1.72E-05,4.54E-05,-1.49E-05,1.23E-05
779,-1.42E-05,1.94E-05,4.96E-07,6.95E-05,-8.20E-06,1.32E-05
780,-6.79E-06,2.16E-05,2.63E-06,0.000156125,-3.32E-06,1.05E-05
781,-5.90E-06,1.96E-05,1.23E-05,0.000236381,-8.29E-07,5.11E-06
782,-1.43E-05,1.42E-05,1.80E-05,0.000215644,-4.15E-07,-1.57E-06
783,-2.42E-05,8.25E-06,2.24E-05,0.00012894,-3.04E-06,-2.31E-06
784,-2.26E-05,4.29E-06,2.25E-05,6.33E-05,-7.97E-06,3.60E-06
785,-7.24E-06,2.66E-06,1.56E-05,5.31E-05,-1.12E-05,7.64E-06
786,8.93E-06,3.19E-06,1.31E-05,0.00011468,-8.27E-06,5.69E-06
787,1.44E-05,5.64E-06,1.74E-05,0.000186658,-5.54E-07,8.07E-07
788,6.02E-06,8.74E-06,2.56E-05,0.000168803,5.65E-06,-2.00E-06
789,-7.27E-06,8.90E-06,3.45E-05,7.44E-05,5.16E-06,1.54E-06
790,-9.64E-06,7.05E-06,3.29E-05,1.96E-05,-9.74E-07,9.48E-06
791,-7.21E-07,4.84E-06,2.27E-05,2.77E-05,-5.84E-06,1.53E-05
792,2.11E-06,4.21E-06,2.13E-05,0.000100379,-4.52E-06,1.69E-05
793,-3.16E-06,6.28E-06,2.62E-05,0.000179168,-5.92E-07,1.93E-05
794,-8.41E-06,9.04E-06,2.36E-05,0.000155706,-3.97E-07,1.79E-05
795,-9.90E-06,8.86E-06,2.51E-05,4.55E-05,-6.29E-06,1.32E-05
796,9.75E-07,9.70E-06,3.13E-05,-1.79E-05,-1.44E-05,1.08E-05
797,1.33E-05,1.31E-05,2.72E-05,1.61E-06,-1.89E-05,1.11E-05
798,8.14E-06,1.54E-05,1.74E-05,2.90E-05,-2.02E-05,1.53E-05
799,-3.15E-06,1.57E-05,1.68E-05,1.10E-05,-1.71E-05,2.08E-05
800,-8.81E-06,1.67E-05,2.65E-05,1.94E-05,-1.26E-05,2.34E-05
801,-6.25E-06,1.80E-05,3.26E-05,8.99E-05,-1.03E-05,2.13E-05
802,-7.68E-06,1.61E-05,3.28E-05,0.000138817,-1.21E-05,1.43E-05
803,-2.41E-05,1.18E-05,3.33E-05,7.95E-05,-1.61E-05,3.53E-06
804,-3.82E-05,8.82E-06,3.73E-05,1.78E-06,-1.66E-05,-3.74E-07
805,-2.88E-05,8.95E-06,3.15E-05,-3.44E-05,-1.31E-05,7.72E-06
806,-1.02E-05,1.05E-05,2.45E-05,-1.65E-05,-9.14E-06,1.58E-05
807,-1.84E-06,1.28E-05,2.92E-05,5.73E-05,-8.18E-06,1.57E-05
808,-3.55E-06,1.56E-05,3.32E-05,0.000110524,-9.89E-06,9.28E-06
809,-1.16E-05,1.63E-05,3.58E-05,6.50E-05,-1.13E-05,3.62E-06
810,-2.02E-05,1.51E-05,3.84E-05,-2.45E-05,-1.00E-05,5.41E-06
811,-1.85E-05,1.33E-05,3.40E-05,-6.97E-05,-8.23E-06,1.36E-05
812,-1.09E-05,1.22E-05,2.41E-05,-5.66E-05,-8.32E-06,2.03E-05
813,-1.15E-05,1.39E-05,2.53E-05,1.46E-05,-1.05E-05,1.92E-05
814,-1.83E-05,1.62E-05,3.23E-05,8.39E-05,-1.35E-05,1.31E-05
815,-2.60E-05,1.55E-05,3.41E-05,6.54E-05,-1.59E-05,8.46E-06
816,-3.21E-05,1.37E-05,3.38E-05,-1.74E-05,-1.58E-05,8.53E-06
817,-2.61E-05,1.47E-05,3.44E-05,-5.61E-05,-1.53E-05,1.07E-05
818,-9.67E-06,1.57E-05,3.44E-05,-4.43E-05,-1.64E-05,1.15E-05
819,-1.80E-07,1.66E-05,4.10E-05,2.59E-05,-1.87E-05,1.20E-05
820,2.46E-06,2.02E-05,4.62E-05,0.000115321,-1.95E-05,1.24E-05
821,-1.49E-06,2.40E-05,4.27E-05,0.000108645,-1.69E-05,7.61E-06
822,-8.80E-06,2.10E-05,4.65E-05,3.94E-06,-1.34E-05,3.31E-06
823,-5.28E-06,1.54E-05,5.16E-05,-6.22E-05,-1.24E-05,9.43E-06
824,4.99E-06,1.43E-05,4.66E-05,-4.13E-05,-1.40E-05,1.71E-05
825,3.15E-06,1.81E-05,3.58E-05,-8.06E-06,-1.31E-05,1.85E-05
826,-2.21E-06,2.08E-05,3.45E-05,-1.94E-05,-9.54E-06,1.82E-05
827,-2.35E-06,1.97E-05,4.33E-05,-5.68E-06,-1.05E-05,1.79E-05
828,2.52E-07,1.87E-05,4.66E-05,6.54E-05,-1.77E-05,1.92E-05
829,-2.35E-07,2.08E-05,4.54E-05,0.000112847,-2.62E-05,2.00E-05
830,-9.08E-06,2.16E-05,4.58E-05,5.00E-05,-2.85E-05,1.71E-05
831,-1.60E-05,1.73E-05,4.59E-05,-3.46E-05,-2.01E-05,1.66E-05
832,-9.46E-06,1.20E-05,3.46E-05,-6.75E-05,-6.92E-06,2.00E-05
833,-1.77E-07,9.70E-06,2.41E-05,-3.01E-05,3.12E-06,2.15E-05
834,1.17E-06,1.40E-05,2.95E-05,7.27E-05,8.63E-06,1.97E-05
835,-2.74E-06,1.91E-05,3.59E-05,0.000155673,1.40E-05,1.48E-05
836,-1.10E-05,1.82E-05,3.84E-05,0.000126207,1.81E-05,7.32E-06
837,-2.05E-05,1.28E-05,3.99E-05,3.76E-05,1.54E-05,2.55E-06
838,-2.41E-05,9.10E-06,3.40E-05,-1.01E-05,7.71E-06,5.72E-06
839,-2.01E-05,9.70E-06,2.25E-05,-1.91E-07,2.00E-06,1.27E-05
840,-1.36E-05,1.16E-05,2.50E-05,6.57E-05,-8.14E-07,1.38E-05
841,-7.56E-06,1.36E-05,3.80E-05,0.000133467,-3.78E-06,8.31E-06
842,-8.19E-06,1.54E-05,4.77E-05,0.000117614,-1.01E-05,2.97E-06
843,-1.46E-05,1.51E-05,5.20E-05,3.26E-05,-1.92E-05,3.99E-06
844,-1.38E-05,1.18E-05,4.56E-05,-1.76E-05,-2.59E-05,1.16E-05
845,-5.09E-06,9.05E-06,3.30E-05,-1.40E-05,-2.82E-05,1.82E-05
846,-6.27E-06,9.85E-06,3.03E-05,5.58E-05,-2.57E-05,1.93E-05
847,-1.65E-05,1.31E-05,3.30E-05,0.000139242,-1.74E-05,1.77E-05
848,-2.59E-05,1.37E-05,3.47E-05,0.000127498,-2.43E-06,1.41E-05
849,-3.16E-05,1.11E-05,4.47E-05,3.59E-05,1.17E-05,9.53E-06
850,-2.47E-05,1.02E-05,5.18E-05,-1.27E-05,1.80E-05,9.84E-06
851,-1.13E-05,1.08E-05,4.42E-05,7.54E-06,1.28E-05,1.60E-05
852,-7.25E-06,1.14E-05,3.15E-05,3.28E-05,-1.45E-06,2.23E-05
853,-3.38E-06,1.05E-05,2.91E-05,1.98E-05,-1.32E-05,2.41E-05
854,3.28E-06,7.81E-06,3.84E-05,3.22E-05,-1.48E-05,2.17E-05
855,8.55E-06,7.15E-06,4.93E-05,0.000101084,-6.11E-06,1.90E-05
856,9.44E-06,8.00E-06,5.15E-05,0.000148182,1.86E-06,1.53E-05
857,-4.43E-06,8.20E-06,4.66E-05,8.46E-05,1.17E-06,9.69E-06
858,-1.90E-05,7.66E-06,4.21E-05,2.99E-06,-2.92E-06,8.47E-06
859,-1.41E-05,7.80E-06,3.20E-05,-3.01E-05,-6.02E-06,1.33E-05
860,1.00E-06,7.04E-06,2.50E-05,-4.31E-06,-9.87E-06,1.78E-05
861,1.17E-05,7.65E-06,3.01E-05,8.21E-05,-1.25E-05,1.85E-05
862,9.04E-06,1.02E-05,3.60E-05,0.000150688,-9.55E-06,1.61E-05
863,-4.88E-06,1.21E-05,3.85E-05,0.000117067,-2.00E-06,1.03E-05
864,-1.38E-05,1.26E-05,3.84E-05,3.04E-05,3.07E-06,5.66E-06
865,-5.71E-06,1.08E-05,3.17E-05,-1.95E-05,9.23E-07,6.22E-06
866,6.99E-06,7.73E-06,2.23E-05,-1.50E-05,-6.21E-06,8.89E-06
867,9.06E-06,6.95E-06,2.48E-05,4.98E-05,-1.08E-05,1.03E-05
868,2.39E-06,9.26E-06,3.36E-05,0.000119165,-8.45E-06,9.07E-06
869,-9.59E-06,1.00E-05,3.85E-05,0.000103086,-5.47E-06,5.41E-06
870,-2.11E-05,7.42E-06,4.04E-05,1.89E-05,-6.18E-06,4.01E-06
871,-2.07E-05,4.88E-06,3.32E-05,-2.61E-05,-7.43E-06,6.87E-06
872,-7.36E-06,5.41E-06,2.05E-05,-1.74E-05,-5.81E-06,1.14E-05
873,2.39E-06,5.27E-06,2.27E-05,6.08E-05,-4.09E-06,1.52E-05
874,2.93E-06,5.45E-06,3.58E-05,0.00016113,-6.66E-06,1.47E-05
875,-2.73E-06,5.09E-06,4.04E-05,0.000159673,-1.11E-05,9.21E-06
876,-1.03E-05,2.31E-06,4.05E-05,5.66E-05,-1.26E-05,7.01E-06
877,-8.53E-06,5.54E-06,4.17E-05,-4.96E-06,-1.35E-05,1.35E-05
878,-4.45E-06,1.20E-05,3.55E-05,1.19E-05,-1.53E-05,1.79E-05
879,-8.67E-06,1.26E-05,2.29E-05,2.86E-05,-1.49E-05,1.77E-05
880,-9.92E-06,1.10E-05,2.24E-05,4.84E-06,-1.29E-05,1.81E-05
881,-3.41E-06,1.12E-05,3.07E-05,1.74E-05,-1.25E-05,2.13E-05
882,1.67E-06,1.45E-05,3.77E-05,9.65E-05,-1.49E-05,2.52E-05
883,-4.01E-06,1.71E-05,4.02E-05,0.000150688,-1.93E-05,2.43E-05
884,-1.95E-05,1.64E-05,3.88E-05,9.74E-05,-1.94E-05,1.76E-05
885,-2.99E-05,1.55E-05,3.81E-05,2.92E-05,-1.37E-05,1.20E-05
886,-2.02E-05,1.57E-05,2.71E-05,1.63E-06,-7.14E-06,1.31E-05
887,-5.38E-06,1.42E-05,1.37E-05,2.77E-05,-3.80E-06,1.65E-05
888,1.03E-06,1.23E-05,1.35E-05,0.000118244,-3.24E-06,1.68E-05
889,-1.78E-06,1.10E-05,1.95E-05,0.000194087,-3.60E-06,1.29E-05
890,-1.39E-05,7.61E-06,2.23E-05,0.000160405,-5.95E-06,7.29E-06
891,-2.49E-05,4.88E-06,2.23E-05,6.66E-05,-8.42E-06,3.90E-06
892,-2.10E-05,7.55E-06,2.10E-05,1.33E-05,-6.60E-06,5.44E-06
893,-7.93E-06,1.38E-05,2.19E-05,2.17E-05,-2.61E-06,9.75E-06
894,1.04E-06,1.80E-05,2.98E-05,9.18E-05,-4.83E-07,1.29E-05
895,5.03E-06,2.02E-05,3.62E-05,0.0001594,5.92E-07,1.28E-05
896,2.40E-06,2.04E-05,3.71E-05,0.000129519,4.68E-07,9.99E-06
897,-5.71E-06,1.75E-05,3.57E-05,2.78E-05,-7.97E-07,8.06E-06
898,-7.05E-06,1.24E-05,2.53E-05,-2.61E-05,-2.60E-07,9.79E-06
899,1.24E-06,8.28E-06,9.73E-06,-1.71E-05,1.08E-06,1.36E-05
900,7.55E-06,7.37E-06,9.91E-06,5.46E-05,-1.17E-06,1.71E-05
901,7.76E-06,1.12E-05,2.22E-05,0.000140267,-6.22E-06,1.65E-05
902,-1.23E-06,1.37E-05,3.11E-05,0.000133653,-9.74E-06,1.12E-05
903,-9.84E-06,1.09E-05,3.88E-05,4.06E-05,-1.08E-05,6.89E-06
904,-1.18E-06,1.06E-05,4.11E-05,-1.50E-05,-1.19E-05,9.38E-06
905,1.18E-05,1.52E-05,3.32E-05,3.10E-06,-1.14E-05,1.37E-05
906,1.50E-05,1.80E-05,2.61E-05,3.01E-05,-9.59E-06,1.44E-05
907,1.82E-05,1.75E-05,2.85E-05,9.23E-06,-1.06E-05,1.40E-05
908,1.70E-05,1.73E-05,3.39E-05,6.07E-06,-1.52E-05,1.29E-05
909,8.28E-06,1.81E-05,3.48E-05,6.74E-05,-1.96E-05,1.20E-05
910,-3.39E-06,1.82E-05,3.17E-05,0.00011657,-2.11E-05,1.14E-05
911,-1.64E-05,1.55E-05,3.13E-05,6.70E-05,-2.07E-05,1.16E-05
912,-2.38E-05,1.22E-05,3.45E-05,-1.21E-06,-2.02E-05,1.41E-05
913,-1.64E-05,1.07E-05,2.29E-05,-3.26E-05,-2.00E-05,1.68E-05
914,-3.32E-06,9.58E-06,7.65E-06,-1.03E-05,-1.86E-05,1.86E-05
915,3.45E-06,9.75E-06,7.61E-06,7.33E-05,-1.51E-05,1.99E-05
916,2.32E-06,1.10E-05,1.55E-05,0.000139446,-1.29E-05,1.82E-05
917,-6.01E-06,1.18E-05,2.26E-05,0.000103403,-1.18E-05,1.33E-05
918,-1.42E-05,1.17E-05,2.55E-05,1.48E-05,-8.59E-06,9.72E-06
919,-1.26E-05,1.19E-05,1.90E-05,-3.66E-05,-4.27E-06,9.74E-06
920,-2.32E-06,1.32E-05,7.69E-06,-2.45E-05,-2.28E-06,1.16E-05
921,6.85E-06,1.51E-05,7.55E-06,5.56E-05,-1.79E-06,1.40E-05
922,7.56E-06,1.62E-05,1.22E-05,0.000133473,-2.30E-06,1.58E-05
923,-5.65E-06,1.53E-05,1.63E-05,0.000117801,-5.29E-06,1.50E-05
924,-1.86E-05,1.33E-05,2.30E-05,3.59E-05,-1.05E-05,1.27E-05
925,-1.14E-05,1.03E-05,2.22E-05,-1.02E-05,-1.64E-05,1.17E-05
926,7.54E-06,6.33E-06,1.29E-05,-1.09E-05,-2.05E-05,1.13E-05
927,1.58E-05,2.54E-06,1.36E-05,5.06E-05,-2.16E-05,1.14E-05
928,1.20E-05,2.48E-06,2.00E-05,0.000130951,-2.02E-05,1.03E-05
929,1.54E-06,6.87E-06,2.05E-05,0.000123468,-1.81E-05,5.81E-06
930,-9.01E-06,9.76E-06,2.46E-05,3.84E-05,-1.53E-05,4.68E-06
931,-1.52E-06,1.08E-05,2.93E-05,-1.08E-05,-1.19E-05,9.29E-06
932,1.35E-05,1.14E-05,2.12E-05,-1.80E-06,-7.49E-06,1.16E-05
933,1.18E-05,1.20E-05,9.81E-06,9.09E-06,-5.29E-06,1.26E-05
934,8.22E-06,1.34E-05,9.66E-06,-1.26E-05,-2.23E-06,1.33E-05
935,5.55E-06,1.37E-05,1.63E-05,1.37E-06,3.85E-06,1.36E-05
936,-1.49E-06,1.46E-05,2.06E-05,7.65E-05,5.80E-06,1.53E-05
937,-1.01E-05,1.51E-05,2.33E-05,0.000122921,9.40E-07,1.26E-05
938,-2.33E-05,1.32E-05,2.60E-05,6.19E-05,-4.75E-06,5.76E-06
939,-3.19E-05,1.00E-05,2.39E-05,-1.18E-05,-4.20E-06,2.55E-06
940,-2.32E-05,8.35E-06,1.04E-05,-4.19E-05,1.21E-06,5.29E-06
941,-9.66E-06,8.56E-06,-3.97E-07,-1.77E-05,5.86E-06,9.84E-06
942,-5.43E-06,1.12E-05,5.77E-06,6.61E-05,4.55E-06,1.36E-05
943,-1.07E-05,1.37E-05,1.67E-05,0.000136365,-2.34E-06,1.45E-05
944,-2.04E-05,1.27E-05,2.20E-05,0.000105897,-1.01E-05,1.18E-05
945,-2.65E-05,1.13E-05,2.19E-05,1.74E-05,-1.39E-05,7.69E-06
946,-2.21E-05,1.21E-05,1.69E-05,-3.38E-05,-1.33E-05,6.44E-06
947,-1.25E-05,1.52E-05,1.01E-05,-1.70E-05,-1.17E-05,9.26E-06
948,-8.98E-06,1.93E-05,1.44E-05,6.78E-05,-1.17E-05,1.45E-05
949,-1.17E-05,2.38E-05,2.53E-05,0.000141844,-1.20E-05,1.60E-05
950,-1.86E-05,2.53E-05,3.19E-05,0.000108565,-1.04E-05,9.39E-06
951,-2.44E-05,2.20E-05,3.32E-05,7.17E-06,-7.57E-06,3.87E-06
952,-2.12E-05,1.85E-05,2.51E-05,-3.78E-05,-6.59E-06,8.04E-06
953,-9.83E-06,1.75E-05,9.15E-06,-1.73E-05,-5.93E-06,1.55E-05
954,-3.24E-06,1.93E-05,5.72E-06,6.18E-05,-2.35E-06,1.79E-05
955,-4.76E-06,2.29E-05,1.24E-05,0.000144858,8.70E-07,1.59E-05
956,-1.45E-05,2.24E-05,1.73E-05,0.000131337,-3.68E-07,1.13E-05
957,-2.35E-05,1.70E-05,2.83E-05,3.32E-05,-1.79E-06,8.64E-06
958,-1.62E-05,1.45E-05,3.38E-05,-2.36E-05,-1.51E-06,1.39E-05
959,-5.00E-06,1.45E-05,2.40E-05,-1.59E-06,-4.22E-06,2.19E-05
960,-2.65E-06,1.14E-05,1.14E-05,3.49E-05,-8.41E-06,2.26E-05
961,1.30E-06,7.64E-06,1.32E-05,2.55E-05,-1.34E-05,1.89E-05
962,6.14E-06,6.55E-06,2.52E-05,3.11E-05,-1.61E-05,1.61E-05
963,6.50E-06,1.02E-05,3.13E-05,9.67E-05,-1.39E-05,1.49E-05
964,-3.57E-06,1.60E-05,2.89E-05,0.000148151,-1.01E-05,1.21E-05
965,-2.00E-05,1.66E-05,2.76E-05,8.48E-05,-8.08E-06,8.74E-06
966,-2.25E-05,1.44E-05,2.85E-05,-5.15E-06,-7.44E-06,1.05E-05
967,-3.08E-06,1.37E-05,2.01E-05,-4.22E-05,-6.68E-06,1.68E-05
968,1.44E-05,1.36E-05,1.30E-05,-1.46E-05,-6.77E-06,2.00E-05
969,1.57E-05,1.40E-05,1.52E-05,8.00E-05,-7.72E-06,1.74E-05
970,4.91E-06,1.59E-05,1.63E-05,0.00016116,-9.36E-06,1.46E-05
971,-1.08E-05,1.77E-05,1.83E-05,0.000135848,-1.06E-05,1.40E-05
972,-1.87E-05,1.95E-05,2.20E-05,4.86E-05,-1.08E-05,1.48E-05
973,-1.25E-05,1.97E-05,1.73E-05,-3.72E-06,-9.87E-06,1.63E-05
974,-2.54E-06,1.75E-05,5.94E-06,3.85E-06,-1.01E-05,1.67E-05
975,-9.77E-07,1.54E-05,7.51E-06,7.37E-05,-1.17E-05,1.62E-05
976,-6.09E-06,1.71E-05,1.99E-05,0.000141515,-1.37E-05,1.40E-05
977,-1.64E-05,2.00E-05,2.76E-05,0.000119874,-1.45E-05,9.02E-06
978,-2.78E-05,2.01E-05,2.90E-05,3.36E-05,-1.37E-05,6.02E-06
979,-2.78E-05,1.87E-05,2.30E-05,-9.57E-06,-1.17E-05,8.24E-06
980,-1.50E-05,1.76E-05,1.14E-05,1.99E-06,-1.08E-05,1.28E-05
981,-6.02E-06,1.59E-05,8.70E-06,7.21E-05,-1.23E-05,1.34E-05
982,-3.60E-06,1.16E-05,1.63E-05,0.000160103,-1.39E-05,8.68E-06
983,-8.39E-06,7.86E-06,2.34E-05,0.000157704,-1.27E-05,1.97E-06
984,-1.69E-05,8.74E-06,2.84E-05,6.06E-05,-9.65E-06,1.25E-06
985,-1.42E-05,1.49E-05,2.60E-05,-1.48E-06,-6.73E-06,6.44E-06
986,-5.19E-06,1.90E-05,1.70E-05,1.27E-05,-6.58E-06,9.66E-06
987,-2.16E-06,1.87E-05,8.26E-06,4.09E-05,-1.00E-05,1.24E-05
988,3.88E-06,1.63E-05,1.37E-05,3.18E-05,-1.27E-05,1.58E-05
989,1.03E-05,1.39E-05,2.83E-05,4.13E-05,-1.28E-05,1.62E-05
990,8.64E-06,1.58E-05,3.50E-05,0.000109009,-1.05E-05,1.14E-05
991,-6.84E-07,1.77E-05,3.39E-05,0.000160589,-8.06E-06,6.39E-06
992,-1.73E-05,1.53E-05,3.07E-05,0.000108621,-5.24E-06,3.15E-06
993,-2.43E-05,1.04E-05,3.08E-05,3.24E-05,-2.85E-06,4.35E-06
994,-1.15E-05,5.91E-06,2.33E-05,-9.25E-06,-1.96E-06,1.13E-05
995,7.38E-06,2.76E-06,1.61E-05,2.35E-06,-1.97E-06,1.87E-05
996,1.70E-05,3.83E-06,2.17E-05,8.01E-05,-3.54E-06,2.11E-05
997,1.14E-05,7.68E-06,3.12E-05,0.000150989,-5.68E-06,1.68E-05
998,-5.46E-06,8.71E-06,3.94E-05,0.000122416,-6.67E-06,9.48E-06
999,-1.81E-05,6.84E-06,4.14E-05,3.89E-05,-5.57E-06,5.56E-06
1000,-1.50E-05,5.60E-06,3.31E-05,-5.85E-06,-4.26E-06,6.84E-06
1001,-3.44E-06,7.82E-06,2.32E-05,5.96E-06,-3.89E-06,1.13E-05
1002,3.92E-06,1.08E-05,2.69E-05,7.20E-05,-5.24E-06,1.76E-05
1003,1.85E-06,1.10E-05,3.43E-05,0.000133874,-9.33E-06,2.05E-05
1004,-9.44E-06,8.09E-06,3.52E-05,0.000103452,-1.21E-05,1.79E-05
1005,-2.14E-05,4.49E-06,3.40E-05,4.81E-06,-9.52E-06,1.44E-05
1006,-2.06E-05,3.85E-06,3.04E-05,-4.47E-05,-4.17E-06,1.63E-05
1007,-9.97E-06,8.30E-06,2.49E-05,-3.76E-05,-7.22E-07,2.21E-05
1008,-1.24E-06,1.66E-05,2.81E-05,2.50E-05,-2.37E-07,2.41E-05
1009,3.22E-06,2.16E-05,3.97E-05,0.000109757,5.53E-07,1.86E-05
1010,-5.48E-06,1.90E-05,4.78E-05,0.000116049,1.43E-06,7.88E-06
1011,-2.45E-05,1.38E-05,5.10E-05,3.69E-05,4.04E-07,4.34E-07
1012,-2.86E-05,1.28E-05,4.69E-05,-1.10E-05,-2.39E-06,3.49E-06
1013,-2.14E-05,1.64E-05,3.88E-05,8.27E-06,-6.07E-06,5.81E-06
1014,-2.05E-05,1.88E-05,2.95E-05,2.39E-05,-1.00E-05,5.45E-06
1015,-1.64E-05,1.68E-05,2.76E-05,-3.61E-06,-1.36E-05,9.03E-06
1016,-7.75E-06,1.44E-05,3.78E-05,1.87E-06,-1.44E-05,1.56E-05
1017,-6.57E-07,1.34E-05,4.54E-05,7.26E-05,-1.23E-05,2.09E-05
1018,-1.11E-06,1.33E-05,4.74E-05,0.000127692,-9.12E-06,2.00E-05
1019,-1.24E-05,1.33E-05,4.95E-05,7.78E-05,-6.07E-06,1.40E-05
1020,-2.15E-05,1.22E-05,4.96E-05,7.81E-06,-7.27E-06,7.67E-06
1021,-1.30E-05,1.13E-05,3.37E-05,-1.96E-05,-1.25E-05,8.83E-06
1022,2.92E-06,1.08E-05,2.01E-05,1.32E-05,-1.68E-05,1.39E-05
1023,9.35E-06,1.10E-05,2.65E-05,0.000109559,-1.41E-05,1.55E-05
1024,7.83E-06,1.26E-05,3.65E-05,0.000186204,-5.41E-06,1.07E-05
1025,2.64E-06,1.42E-05,4.15E-05,0.000153211,2.01E-06,3.31E-06
1026,-1.87E-06,1.58E-05,4.07E-05,6.18E-05,4.31E-06,5.58E-07
1027,3.22E-07,1.63E-05,3.55E-05,4.73E-06,1.79E-06,2.92E-06
1028,6.58E-06,1.48E-05,3.25E-05,3.72E-06,-3.55E-06,6.32E-06
1029,1.10E-05,1.25E-05,4.39E-05,7.07E-05,-8.73E-06,8.84E-06
1030,1.29E-05,1.31E-05,5.81E-05,0.000149063,-1.12E-05,9.02E-06
1031,9.64E-06,1.48E-05,6.18E-05,0.000139509,-1.10E-05,5.39E-06
1032,4.44E-06,1.36E-05,5.75E-05,5.24E-05,-1.03E-05,3.18E-06
1033,7.32E-06,9.29E-06,4.66E-05,-3.37E-06,-1.12E-05,5.65E-06
1034,1.42E-05,7.91E-06,3.37E-05,-6.54E-06,-1.22E-05,1.10E-05
1035,1.74E-05,1.18E-05,3.36E-05,5.84E-05,-1.24E-05,1.54E-05
1036,1.77E-05,1.52E-05,4.35E-05,0.000147869,-1.13E-05,1.69E-05
1037,6.49E-06,1.48E-05,5.15E-05,0.00014455,-8.40E-06,1.23E-05
1038,-8.14E-06,1.51E-05,5.72E-05,4.35E-05,-6.20E-06,6.41E-06
1039,-1.18E-07,1.59E-05,5.27E-05,-1.89E-05,-7.11E-06,7.99E-06
1040,1.52E-05,1.66E-05,3.98E-05,2.02E-06,-1.11E-05,9.22E-06
1041,1.21E-05,1.87E-05,3.10E-05,3.15E-05,-1.81E-05,9.80E-06
1042,1.93E-06,1.91E-05,3.59E-05,1.54E-05,-2.59E-05,1.07E-05
1043,-2.48E-06,1.70E-05,4.39E-05,2.64E-05,-3.19E-05,8.91E-06
1044,-3.69E-06,1.32E-05,4.43E-05,9.15E-05,-3.53E-05,9.32E-06
1045,-8.37E-06,1.08E-05,4.33E-05,0.000130025,-3.78E-05,8.94E-06
1046,-2.07E-05,1.03E-05,4.44E-05,6.61E-05,-3.43E-05,4.28E-06
1047,-3.29E-05,1.08E-05,4.57E-05,-1.10E-05,-2.44E-05,3.55E-06
1048,-3.31E-05,1.00E-05,3.77E-05,-3.61E-05,-1.32E-05,1.12E-05
1049,-2.65E-05,9.75E-06,2.93E-05,-2.16E-07,-3.66E-06,1.86E-05
1050,-2.02E-05,1.22E-05,2.99E-05,8.92E-05,1.87E-06,2.21E-05
1051,-1.75E-05,1.42E-05,3.13E-05,0.000149556,-2.75E-07,2.02E-05
1052,-2.13E-05,1.34E-05,3.13E-05,0.000102304,-9.72E-06,1.57E-05
1053,-2.47E-05,1.05E-05,3.24E-05,3.55E-06,-1.32E-05,1.33E-05
1054,-1.88E-05,7.20E-06,2.78E-05,-4.83E-05,-3.35E-06,1.38E-05
1055,-8.91E-06,5.77E-06,1.80E-05,-3.26E-05,1.10E-05,1.48E-05
1056,-4.26E-06,7.26E-06,2.16E-05,4.36E-05,1.82E-05,1.64E-05
1057,-5.46E-06,9.17E-06,3.49E-05,0.000114687,1.87E-05,1.69E-05
1058,-1.19E-05,8.99E-06,4.38E-05,9.87E-05,1.54E-05,1.16E-05
1059,-1.60E-05,6.28E-06,4.54E-05,1.89E-05,1.22E-05,6.29E-06
1060,-8.57E-06,3.80E-06,3.73E-05,-2.21E-05,1.30E-05,9.58E-06
1061,1.26E-06,4.28E-06,2.46E-05,-1.21E-05,1.51E-05,1.71E-05
1062,3.70E-06,8.49E-06,2.68E-05,5.97E-05,1.33E-05,2.08E-05
1063,5.27E-06,1.38E-05,3.73E-05,0.000145032,6.46E-06,1.86E-05
1064,2.13E-06,1.50E-05,3.90E-05,0.000130282,-1.59E-06,1.23E-05
1065,-6.98E-06,1.14E-05,3.86E-05,2.29E-05,-4.62E-06,1.03E-05
1066,-7.06E-06,6.16E-06,3.97E-05,-3.40E-05,-2.07E-06,1.51E-05
1067,-4.32E-07,2.85E-06,3.71E-05,-9.46E-06,5.23E-07,1.85E-05
1068,1.02E-07,1.21E-06,2.91E-05,1.09E-05,3.38E-07,1.66E-05
1069,6.71E-07,3.44E-07,3.16E-05,-8.68E-06,-1.65E-06,1.53E-05
1070,3.62E-06,1.06E-06,4.00E-05,8.82E-06,-6.20E-06,1.81E-05
1071,5.10E-06,5.79E-06,3.97E-05,9.08E-05,-1.28E-05,2.36E-05
1072,4.51E-07,1.16E-05,3.81E-05,0.000145244,-1.87E-05,2.29E-05
1073,-1.36E-05,1.19E-05,4.13E-05,8.28E-05,-2.19E-05,1.57E-05
1074,-2.68E-05,9.05E-06,4.51E-05,2.82E-06,-2.04E-05,1.20E-05
1075,-2.39E-05,7.30E-06,3.49E-05,-2.52E-05,-1.93E-05,1.36E-05
1076,-1.09E-05,7.77E-06,2.26E-05,4.82E-06,-2.08E-05,1.42E-05
1077,-2.12E-06,9.45E-06,2.28E-05,9.06E-05,-2.01E-05,1.20E-05
1078,-3.89E-06,1.14E-05,2.85E-05,0.000155565,-1.37E-05,1.03E-05
1079,-1.55E-05,1.09E-05,3.24E-05,0.000116094,-5.89E-06,8.97E-06
1080,-2.62E-05,9.06E-06,3.32E-05,2.59E-05,-3.81E-06,8.63E-06
1081,-2.14E-05,7.48E-06,2.63E-05,-2.10E-05,-7.59E-06,9.30E-06
1082,-5.90E-06,6.44E-06,1.54E-05,-7.33E-06,-1.13E-05,9.49E-06
1083,6.38E-07,4.66E-06,1.76E-05,6.73E-05,-1.15E-05,9.90E-06
1084,-5.68E-06,2.07E-06,2.68E-05,0.000140952,-8.30E-06,9.06E-06
1085,-1.61E-05,4.79E-08,3.24E-05,0.000122257,-3.75E-06,5.90E-06
1086,-2.08E-05,6.84E-07,3.65E-05,3.38E-05,-2.78E-06,4.83E-06
1087,-1.26E-05,3.63E-06,3.50E-05,-1.84E-05,-6.69E-06,7.56E-06
1088,2.19E-06,5.49E-06,2.12E-05,-2.01E-05,-1.10E-05,1.17E-05
1089,7.04E-06,6.89E-06,1.23E-05,4.35E-05,-1.28E-05,1.48E-05
1090,2.99E-06,8.49E-06,1.59E-05,0.000127867,-1.27E-05,1.27E-05
1091,-1.04E-05,8.59E-06,2.50E-05,0.000112565,-1.14E-05,4.65E-06
1092,-2.55E-05,6.38E-06,3.72E-05,8.11E-06,-1.10E-05,1.86E-08
1093,-2.01E-05,6.04E-06,4.38E-05,-4.44E-05,-1.14E-05,5.50E-06
1094,-4.20E-06,9.65E-06,4.23E-05,-1.60E-05,-1.02E-05,1.25E-05
1095,8.13E-06,1.42E-05,3.89E-05,2.12E-05,-1.01E-05,1.51E-05
1096,1.71E-05,1.46E-05,4.25E-05,1.19E-05,-1.28E-05,1.63E-05
1097,1.86E-05,1.27E-05,4.90E-05,2.87E-05,-1.51E-05,1.77E-05
1098,1.46E-05,1.29E-05,4.70E-05,0.000106289,-1.86E-05,2.02E-05
1099,5.76E-06,1.57E-05,3.96E-05,0.000155439,-2.17E-05,2.07E-05
1100,-1.07E-05,1.59E-05,3.63E-05,8.89E-05,-1.94E-05,1.86E-05
1101,-2.32E-05,1.42E-05,3.51E-05,2.62E-07,-1.49E-05,1.93E-05
1102,-1.73E-05,1.22E-05,2.29E-05,-4.39E-05,-1.31E-05,2.31E-05
1103,-5.42E-06,1.11E-05,9.17E-06,-2.32E-05,-1.23E-05,2.48E-05
1104,1.82E-08,1.35E-05,9.48E-06,6.52E-05,-1.10E-05,2.33E-05
1105,-2.61E-06,1.71E-05,1.48E-05,0.000131617,-9.95E-06,1.88E-05
1106,-9.83E-06,1.81E-05,1.97E-05,8.95E-05,-9.13E-06,1.36E-05
1107,-1.44E-05,1.74E-05,2.34E-05,-6.46E-06,-8.84E-06,1.13E-05
1108,-9.38E-06,1.69E-05,1.81E-05,-5.59E-05,-8.66E-06,1.35E-05
1109,-1.09E-07,1.67E-05,3.78E-06,-4.01E-05,-9.60E-06,1.70E-05
1110,2.77E-06,1.85E-05,-1.67E-06,3.93E-05,-1.18E-05,2.01E-05
1111,-3.79E-06,1.92E-05,4.39E-06,0.000114144,-1.46E-05,2.21E-05
1112,-1.70E-05,1.38E-05,1.48E-05,9.04E-05,-1.60E-05,2.02E-05
1113,-2.80E-05,5.92E-06,2.40E-05,-6.08E-06,-1.42E-05,1.84E-05
1114,-2.89E-05,3.66E-06,2.07E-05,-5.22E-05,-1.15E-05,2.17E-05
1115,-2.24E-05,5.43E-06,9.11E-06,-2.67E-05,-9.84E-06,2.53E-05
1116,-1.84E-05,6.98E-06,9.35E-06,6.35E-05,-9.00E-06,2.38E-05
1117,-1.74E-05,7.56E-06,1.80E-05,0.000149529,-9.91E-06,1.94E-05
1118,-2.01E-05,7.70E-06,1.68E-05,0.000128123,-1.38E-05,1.35E-05
1119,-2.48E-05,6.38E-06,1.54E-05,1.90E-05,-1.58E-05,9.80E-06
1120,-1.71E-05,7.96E-06,1.81E-05,-4.34E-05,-1.21E-05,1.34E-05
1121,-6.25E-06,1.53E-05,1.94E-05,-2.25E-05,-7.91E-06,1.79E-05
1122,-6.84E-06,2.09E-05,1.95E-05,1.73E-06,-7.23E-06,1.86E-05
1123,-6.44E-06,1.84E-05,2.25E-05,-1.87E-05,-7.69E-06,1.69E-05
1124,-6.03E-06,1.26E-05,2.96E-05,-1.88E-06,-6.82E-06,1.19E-05
1125,-7.89E-06,1.04E-05,3.34E-05,8.37E-05,-5.96E-06,9.89E-06
1126,-1.20E-05,1.21E-05,3.38E-05,0.000146986,-5.15E-06,8.28E-06
1127,-2.36E-05,1.23E-05,3.54E-05,0.00010045,-5.97E-06,5.47E-06
1128,-3.65E-05,1.07E-05,3.59E-05,2.78E-05,-1.06E-05,7.52E-06
1129,-3.19E-05,1.07E-05,2.46E-05,-7.47E-06,-1.47E-05,1.39E-05
1130,-1.40E-05,1.37E-05,1.41E-05,1.25E-05,-1.44E-05,1.86E-05
1131,1.63E-06,1.76E-05,1.67E-05,9.31E-05,-1.07E-05,1.89E-05
1132,3.47E-06,1.73E-05,2.32E-05,0.00015657,-7.20E-06,1.62E-05
1133,-6.76E-06,1.34E-05,2.82E-05,0.000121946,-5.33E-06,1.12E-05
1134,-1.47E-05,1.17E-05,3.11E-05,3.75E-05,-3.27E-06,8.24E-06
1135,-1.19E-05,1.32E-05,2.59E-05,-9.92E-06,-6.46E-07,9.57E-06
1136,-4.90E-06,1.30E-05,1.43E-05,-2.40E-06,-3.93E-07,1.23E-05
1137,-3.93E-06,1.18E-05,1.22E-05,6.56E-05,-3.65E-06,1.25E-05
1138,-7.29E-06,1.39E-05,1.90E-05,0.000134787,-6.62E-06,9.60E-06
1139,-1.60E-05,1.77E-05,2.41E-05,0.000111864,-6.93E-06,3.58E-06
1140,-2.58E-05,1.91E-05,2.61E-05,1.47E-05,-6.39E-06,-1.03E-06
1141,-2.48E-05,1.78E-05,2.12E-05,-4.23E-05,-5.71E-06,1.12E-06
1142,-1.45E-05,1.72E-05,1.08E-05,-3.84E-05,-4.20E-06,8.10E-06
1143,-8.21E-06,1.84E-05,1.09E-05,3.59E-05,-4.71E-06,1.44E-05
1144,-8.06E-06,1.89E-05,1.48E-05,0.000128862,-9.22E-06,1.54E-05
1145,-2.01E-05,1.85E-05,1.78E-05,0.000127682,-1.42E-05,1.03E-05
1146,-3.50E-05,1.98E-05,2.62E-05,3.80E-05,-1.23E-05,7.69E-06
1147,-3.18E-05,2.25E-05,2.96E-05,-1.54E-05,-3.62E-06,1.46E-05
1148,-1.74E-05,2.31E-05,2.21E-05,-1.17E-06,-1.27E-06,1.79E-05
1149,-1.11E-05,2.18E-05,1.15E-05,2.34E-05,-7.32E-06,1.65E-05
1150,-9.00E-06,1.86E-05,1.53E-05,1.73E-05,-1.29E-05,1.91E-05
1151,-7.89E-06,1.51E-05,2.49E-05,3.29E-05,-1.40E-05,1.93E-05
1152,-7.60E-06,1.25E-05,2.52E-05,0.000106852,-1.18E-05,1.49E-05
1153,-6.74E-06,1.33E-05,2.17E-05,0.000164692,-1.00E-05,8.45E-06
1154,-1.22E-05,1.60E-05,2.15E-05,0.00011679,-9.06E-06,7.37E-06
1155,-1.69E-05,1.58E-05,2.01E-05,4.99E-05,-9.27E-06,1.07E-05
1156,-7.22E-06,1.30E-05,5.83E-06,2.85E-05,-1.19E-05,1.51E-05
1157,7.22E-06,1.09E-05,-8.92E-06,6.10E-05,-1.55E-05,1.68E-05
1158,1.44E-05,1.37E-05,-9.04E-06,0.000147279,-1.83E-05,1.48E-05
1159,1.30E-05,1.93E-05,-5.90E-07,0.000211414,-1.83E-05,1.08E-05
1160,4.40E-06,2.01E-05,1.02E-05,0.000170691,-1.33E-05,6.53E-06
1161,-1.91E-06,1.60E-05,1.76E-05,7.55E-05,-7.36E-06,6.36E-06
1162,1.99E-06,1.37E-05,1.33E-05,1.85E-05,-6.26E-06,9.43E-06
1163,1.17E-05,1.46E-05,3.63E-06,2.02E-05,-8.41E-06,1.14E-05
1164,1.78E-05,1.54E-05,5.48E-06,8.39E-05,-7.98E-06,9.79E-06
1165,1.71E-05,1.43E-05,1.27E-05,0.000156977,-4.86E-06,6.72E-06
1166,9.57E-06,1.28E-05,1.61E-05,0.000148472,-2.37E-06,5.41E-06
1167,2.42E-06,1.20E-05,1.85E-05,6.64E-05,-2.21E-07,6.56E-06
1168,3.97E-06,9.88E-06,1.49E-05,1.48E-05,3.31E-06,6.85E-06
1169,9.83E-06,5.23E-06,6.07E-06,1.44E-05,3.87E-06,8.02E-06
1170,1.21E-05,2.96E-06,8.71E-06,7.83E-05,-1.84E-06,9.97E-06
1171,1.21E-05,6.56E-06,1.97E-05,0.000164931,-1.01E-05,6.99E-06
1172,5.22E-06,1.06E-05,2.47E-05,0.000159745,-1.72E-05,-1.24E-06
1173,-6.04E-06,1.05E-05,2.89E-05,5.87E-05,-1.92E-05,-2.84E-06
1174,-3.14E-06,1.04E-05,2.81E-05,-5.91E-06,-1.65E-05,4.19E-06
1175,9.95E-06,1.04E-05,1.94E-05,5.10E-06,-1.08E-05,6.72E-06
1176,1.01E-05,1.04E-05,1.25E-05,2.86E-05,-3.66E-06,4.89E-06
1177,2.35E-06,9.99E-06,1.47E-05,1.43E-05,8.79E-07,5.32E-06
1178,-4.81E-06,1.18E-05,2.14E-05,2.48E-05,-1.38E-06,7.40E-06
1179,-1.19E-05,1.71E-05,2.42E-05,9.83E-05,-9.06E-06,1.15E-05
1180,-1.80E-05,2.04E-05,2.40E-05,0.000150691,-1.31E-05,1.45E-05
1181,-2.72E-05,1.81E-05,2.53E-05,9.03E-05,-1.14E-05,1.45E-05
1182,-3.12E-05,1.30E-05,2.48E-05,8.63E-06,-8.95E-06,1.46E-05
1183,-1.72E-05,9.99E-06,1.22E-05,-2.32E-05,-8.31E-06,1.67E-05
1184,1.62E-06,9.58E-06,7.20E-07,8.13E-07,-8.69E-06,1.53E-05
1185,7.95E-06,1.26E-05,5.96E-06,8.03E-05,-8.44E-06,1.26E-05
1186,9.54E-07,1.67E-05,1.76E-05,0.000143571,-6.41E-06,1.11E-05
1187,-1.03E-05,1.75E-05,2.60E-05,0.000109409,-3.83E-06,1.04E-05
1188,-1.40E-05,1.50E-05,3.08E-05,2.10E-05,-2.52E-06,1.24E-05
1189,-4.94E-06,1.21E-05,3.02E-05,-3.46E-05,-2.34E-06,1.51E-05
1190,7.34E-06,1.06E-05,2.46E-05,-2.75E-05,-2.36E-06,1.41E-05
1191,1.14E-05,1.10E-05,2.50E-05,4.97E-05,-2.89E-06,1.16E-05
1192,8.91E-06,1.27E-05,2.92E-05,0.000125422,-4.78E-06,1.21E-05
1193,3.85E-06,1.32E-05,3.34E-05,0.000105047,-6.63E-06,9.97E-06
1194,7.19E-08,1.17E-05,4.14E-05,2.06E-05,-6.82E-06,7.15E-06
1195,4.38E-06,1.14E-05,4.23E-05,-2.11E-05,-6.65E-06,8.15E-06
1196,1.41E-05,1.28E-05,3.10E-05,-1.83E-05,-6.54E-06,1.23E-05
1197,1.89E-05,1.31E-05,2.33E-05,3.79E-05,-4.88E-06,1.78E-05
1198,1.75E-05,1.23E-05,2.57E-05,0.00011565,-1.74E-06,2.01E-05
1199,9.81E-06,1.07E-05,3.06E-05,0.000109967,-2.44E-07,1.22E-05
1200,1.50E-06,7.96E-06,3.87E-05,1.64E-05,5.39E-08,3.60E-06
1201,9.45E-06,5.29E-06,4.11E-05,-4.21E-05,1.23E-06,4.02E-06
1202,2.40E-05,4.80E-06,2.64E-05,-2.76E-05,-8.42E-07,1.19E-05
1203,2.14E-05,7.47E-06,1.02E-05,-4.61E-06,-2.57E-06,1.84E-05
1204,1.39E-05,1.20E-05,1.19E-05,-2.00E-05,-2.12E-06,2.04E-05
1205,1.23E-05,1.75E-05,2.16E-05,-7.98E-06,-3.14E-06,1.96E-05
1206,1.39E-05,2.19E-05,2.59E-05,7.00E-05,-6.53E-06,1.54E-05
1207,8.42E-06,2.27E-05,2.29E-05,0.000136493,-7.68E-06,1.24E-05
1208,-9.72E-06,1.93E-05,2.29E-05,9.56E-05,-3.93E-06,1.02E-05
1209,-2.29E-05,1.55E-05,2.80E-05,1.80E-05,-8.42E-07,1.21E-05
1210,-1.70E-05,1.36E-05,2.09E-05,-2.80E-05,-1.20E-06,1.77E-05
1211,-4.05E-06,1.47E-05,9.28E-06,-1.56E-05,-3.88E-06,2.08E-05
1212,-1.21E-07,1.90E-05,1.03E-05,6.24E-05,-5.46E-06,2.00E-05
1213,-6.90E-06,2.16E-05,1.86E-05,0.000132092,-6.73E-06,1.75E-05
1214,-2.14E-05,1.91E-05,2.65E-05,0.00010715,-8.74E-06,1.42E-05
1215,-3.27E-05,1.46E-05,3.09E-05,3.17E-05,-1.07E-05,1.15E-05
1216,-2.84E-05,1.14E-05,2.59E-05,-7.40E-06,-1.11E-05,1.37E-05
1217,-1.20E-05,1.05E-05,1.63E-05,4.52E-06,-1.05E-05,1.92E-05
1218,6.42E-07,1.32E-05,1.95E-05,7.02E-05,-9.58E-06,2.22E-05
1219,1.87E-08,1.79E-05,3.08E-05,0.000135493,-8.01E-06,1.84E-05
1220,-1.32E-05,1.96E-05,3.73E-05,0.000108544,-5.86E-06,1.12E-05
1221,-2.67E-05,1.56E-05,4.06E-05,9.95E-06,-5.83E-06,9.36E-06
1222,-2.51E-05,1.08E-05,3.52E-05,-4.39E-05,-8.59E-06,1.58E-05
1223,-1.34E-05,8.33E-06,2.42E-05,-3.88E-05,-1.15E-05,2.34E-05
1224,-8.69E-06,6.09E-06,2.67E-05,2.89E-05,-1.21E-05,2.49E-05
1225,-1.22E-05,4.90E-06,3.48E-05,0.000114674,-8.82E-06,1.93E-05
1226,-1.90E-05,5.78E-06,3.50E-05,0.000107573,-5.57E-06,1.38E-05
1227,-2.13E-05,6.10E-06,3.79E-05,1.17E-05,-7.40E-06,1.34E-05
1228,-9.69E-06,5.75E-06,4.00E-05,-4.23E-05,-1.08E-05,1.64E-05
1229,2.98E-06,6.20E-06,3.59E-05,-1.77E-05,-1.05E-05,1.73E-05
1230,5.40E-06,8.27E-06,2.97E-05,1.62E-05,-9.50E-06,1.93E-05
1231,9.75E-06,1.18E-05,3.12E-05,2.67E-06,-8.53E-06,2.03E-05
1232,1.60E-05,1.38E-05,3.75E-05,4.39E-06,-8.23E-06,1.48E-05
1233,1.24E-05,1.42E-05,3.98E-05,6.81E-05,-8.23E-06,1.20E-05
1234,-2.97E-06,1.27E-05,4.04E-05,0.000123749,-1.04E-05,1.26E-05
1235,-2.08E-05,7.82E-06,4.24E-05,7.87E-05,-1.29E-05,1.12E-05
1236,-2.77E-05,3.10E-06,4.56E-05,1.20E-05,-1.33E-05,9.58E-06
1237,-1.95E-05,1.48E-06,3.83E-05,-1.60E-05,-1.43E-05,1.17E-05
1238,-1.07E-05,4.36E-06,3.05E-05,5.20E-06,-1.68E-05,1.61E-05
1239,-8.32E-06,1.04E-05,3.36E-05,8.13E-05,-1.67E-05,1.89E-05
1240,-9.41E-06,1.43E-05,3.96E-05,0.000147618,-1.26E-05,1.58E-05
1241,-1.41E-05,1.36E-05,4.45E-05,0.000122268,-8.47E-06,8.29E-06
1242,-1.84E-05,1.14E-05,4.61E-05,4.35E-05,-7.27E-06,4.95E-06
1243,-1.75E-05,1.01E-05,3.80E-05,-1.70E-06,-9.45E-06,9.85E-06
1244,-1.36E-05,9.66E-06,2.70E-05,1.07E-05,-1.19E-05,1.48E-05
1245,-1.23E-05,1.03E-05,2.83E-05,8.50E-05,-1.26E-05,1.42E-05
1246,-1.48E-05,1.33E-05,3.54E-05,0.000157438,-1.17E-05,1.02E-05
1247,-2.47E-05,1.64E-05,4.24E-05,0.000140407,-1.07E-05,4.49E-06
1248,-3.74E-05,1.50E-05,4.88E-05,5.88E-05,-1.09E-05,1.31E-06
1249,-3.69E-05,1.16E-05,4.60E-05,1.58E-05,-1.17E-05,5.34E-06
1250,-2.20E-05,1.08E-05,3.74E-05,1.92E-05,-1.09E-05,1.18E-05
1251,-9.65E-06,1.12E-05,4.23E-05,7.86E-05,-1.02E-05,1.29E-05
1252,-4.40E-06,1.05E-05,5.62E-05,0.000153908,-1.09E-05,7.02E-06
1253,-1.08E-05,9.33E-06,6.38E-05,0.000140716,-1.17E-05,-2.01E-06
1254,-2.25E-05,9.27E-06,6.76E-05,4.44E-05,-1.30E-05,-5.58E-06
1255,-2.08E-05,1.02E-05,6.47E-05,-1.20E-05,-1.80E-05,2.15E-06
1256,-1.65E-05,1.26E-05,5.29E-05,3.68E-06,-2.59E-05,1.10E-05
1257,-1.87E-05,1.41E-05,4.02E-05,3.13E-05,-3.16E-05,1.51E-05
1258,-1.50E-05,1.24E-05,4.05E-05,2.51E-05,-3.52E-05,1.98E-05
1259,-8.41E-06,1.17E-05,5.00E-05,4.03E-05,-3.44E-05,2.41E-05
1260,-4.25E-06,1.34E-05,5.40E-05,0.000103536,-2.90E-05,2.60E-05
1261,-4.02E-06,1.68E-05,5.53E-05,0.000142409,-2.00E-05,2.30E-05
1262,-1.29E-05,1.86E-05,5.78E-05,7.63E-05,-6.61E-06,1.90E-05
1263,-2.00E-05,1.77E-05,5.62E-05,-4.30E-06,1.01E-05,2.04E-05
1264,-9.65E-06,1.44E-05,4.26E-05,-3.35E-05,2.56E-05,2.43E-05
1265,9.55E-06,1.13E-05,3.16E-05,-5.47E-06,2.94E-05,2.32E-05
1266,2.20E-05,1.26E-05,3.46E-05,8.12E-05,1.77E-05,2.10E-05
1267,2.11E-05,1.58E-05,3.89E-05,0.00015333,5.06E-07,1.91E-05
1268,9.02E-06,1.64E-05,3.91E-05,0.0001237,-7.26E-06,1.44E-05
1269,-2.97E-06,1.44E-05,3.81E-05,3.39E-05,-3.77E-06,9.29E-06
1270,-3.80E-06,1.31E-05,3.23E-05,-2.21E-05,2.70E-06,8.98E-06
1271,3.67E-06,1.28E-05,2.39E-05,-1.53E-05,4.27E-06,1.15E-05
1272,8.20E-06,1.28E-05,2.64E-05,5.69E-05,1.46E-06,1.21E-05
1273,2.80E-06,1.31E-05,3.60E-05,0.000123884,-2.70E-06,9.86E-06
1274,-1.05E-05,1.19E-05,4.37E-05,9.43E-05,-6.82E-06,5.50E-06
1275,-2.04E-05,8.14E-06,4.96E-05,-7.30E-06,-8.46E-06,4.58E-06
1276,-1.45E-05,6.08E-06,4.56E-05,-7.33E-05,-8.42E-06,7.73E-06
1277,1.60E-07,9.23E-06,2.93E-05,-8.87E-05,-8.21E-06,1.17E-05
1278,6.24E-06,1.51E-05,2.42E-05,-3.69E-05,-8.71E-06,1.47E-05
1279,3.05E-07,1.88E-05,3.38E-05,5.04E-05,-7.82E-06,1.62E-05
1280,-1.77E-05,1.79E-05,3.58E-05,5.77E-05,-8.14E-06,1.30E-05
1281,-3.22E-05,1.35E-05,3.62E-05,-2.36E-05,-1.31E-05,7.77E-06
1282,-2.47E-05,8.18E-06,3.68E-05,-6.45E-05,-1.83E-05,6.26E-06
1283,-1.13E-05,6.81E-06,2.85E-05,-3.64E-05,-1.83E-05,7.72E-06
1284,-9.68E-06,9.09E-06,2.29E-05,-7.62E-06,-1.51E-05,9.90E-06
1285,-6.40E-06,1.15E-05,3.45E-05,-2.03E-05,-1.16E-05,1.16E-05
1286,4.03E-06,1.34E-05,5.09E-05,-6.99E-06,-8.22E-06,1.19E-05
1287,1.42E-05,1.41E-05,5.15E-05,6.44E-05,-5.62E-06,1.44E-05
1288,1.65E-05,1.31E-05,4.07E-05,0.000114943,-5.11E-06,1.62E-05
1289,5.53E-06,1.26E-05,3.40E-05,6.64E-05,-5.60E-06,1.40E-05
1290,-6.16E-06,1.63E-05,3.39E-05,2.30E-06,-6.01E-06,1.20E-05
1291,-8.70E-07,2.03E-05,2.39E-05,-2.32E-05,-7.55E-06,1.28E-05
1292,9.96E-06,1.93E-05,1.23E-05,9.51E-07,-8.94E-06,1.37E-05
1293,1.22E-05,1.54E-05,1.50E-05,8.22E-05,-8.32E-06,1.35E-05
1294,7.31E-06,1.42E-05,2.40E-05,0.000148422,-7.19E-06,1.12E-05
1295,-5.48E-07,1.52E-05,3.06E-05,0.000113737,-6.67E-06,8.70E-06
1296,-6.61E-06,1.42E-05,3.54E-05,2.79E-05,-5.76E-06,1.01E-05
1297,-3.94E-06,1.04E-05,3.51E-05,-1.52E-05,-5.45E-06,1.22E-05
1298,5.43E-06,7.84E-06,2.96E-05,1.04E-06,-6.95E-06,1.10E-05
1299,1.20E-05,9.43E-06,3.18E-05,7.32E-05,-9.48E-06,8.70E-06
1300,1.18E-05,1.25E-05,3.85E-05,0.000139126,-1.09E-05,7.32E-06
1301,2.86E-06,1.33E-05,4.07E-05,0.000114707,-1.03E-05,3.25E-06
1302,-7.55E-06,1.15E-05,4.04E-05,2.76E-05,-7.65E-06,-1.61E-06
1303,-5.41E-06,9.22E-06,3.58E-05,-1.18E-05,-6.34E-06,-1.94E-06
1304,7.30E-06,7.77E-06,2.66E-05,1.23E-06,-8.23E-06,4.17E-06
1305,1.23E-05,8.62E-06,3.01E-05,7.23E-05,-8.54E-06,1.42E-05
1306,5.58E-06,9.69E-06,4.49E-05,0.000156901,-6.42E-06,2.10E-05
1307,-7.73E-06,8.20E-06,4.75E-05,0.000145112,-5.08E-06,1.76E-05
1308,-1.74E-05,3.26E-06,4.32E-05,4.81E-05,-3.76E-06,8.88E-06
1309,-1.42E-05,1.45E-06,4.20E-05,-3.58E-06,-2.98E-06,6.70E-06
1310,-1.08E-05,4.30E-06,3.79E-05,1.64E-05,-5.73E-06,9.74E-06
1311,-1.75E-05,8.54E-06,3.57E-05,3.78E-05,-8.30E-06,1.04E-05
1312,-2.15E-05,1.05E-05,4.04E-05,2.35E-05,-8.21E-06,9.07E-06
1313,-1.97E-05,9.33E-06,4.03E-05,4.16E-05,-7.65E-06,8.53E-06
1314,-1.68E-05,1.00E-05,3.35E-05,0.000124063,-8.17E-06,9.84E-06
1315,-1.87E-05,1.09E-05,3.06E-05,0.000187227,-8.60E-06,8.81E-06
1316,-2.81E-05,1.09E-05,3.35E-05,0.000134498,-9.04E-06,5.85E-06
1317,-3.29E-05,1.00E-05,3.73E-05,4.78E-05,-1.10E-05,5.71E-06
1318,-2.26E-05,1.06E-05,2.71E-05,4.88E-06,-1.26E-05,9.83E-06
1319,-6.81E-06,1.28E-05,1.44E-05,3.09E-05,-1.34E-05,1.41E-05
1320,4.65E-06,1.54E-05,1.57E-05,0.000120695,-1.35E-05,1.46E-05
1321,9.80E-06,1.67E-05,2.34E-05,0.000191452,-1.32E-05,1.18E-05
1322,1.89E-06,1.65E-05,3.25E-05,0.000156208,-1.16E-05,1.06E-05
1323,-1.21E-05,1.71E-05,3.89E-05,5.93E-05,-9.68E-06,1.67E-05
1324,-1.45E-05,1.83E-05,3.32E-05,-3.98E-06,-8.87E-06,2.53E-05
1325,-4.22E-06,1.92E-05,2.11E-05,2.85E-08,-1.04E-05,2.65E-05
1326,5.26E-06,1.93E-05,2.11E-05,7.87E-05,-1.31E-05,2.04E-05
1327,5.40E-06,1.95E-05,2.65E-05,0.00016464,-1.39E-05,1.43E-05
1328,-6.59E-06,2.02E-05,2.74E-05,0.00015613,-1.15E-05,9.22E-06
1329,-1.95E-05,2.06E-05,2.75E-05,7.04E-05,-8.48E-06,7.72E-06
1330,-1.87E-05,2.04E-05,2.16E-05,1.67E-05,-6.59E-06,1.29E-05
1331,-7.72E-06,2.08E-05,9.15E-06,1.33E-05,-4.56E-06,1.84E-05
1332,-2.60E-06,2.20E-05,9.40E-06,7.69E-05,-3.59E-06,1.95E-05
1333,-6.36E-06,2.42E-05,2.05E-05,0.000159481,-5.93E-06,1.75E-05
1334,-1.74E-05,2.44E-05,2.81E-05,0.000147774,-9.39E-06,1.23E-05
1335,-2.73E-05,2.29E-05,3.74E-05,4.16E-05,-1.21E-05,6.25E-06
1336,-2.06E-05,2.09E-05,4.26E-05,-2.24E-05,-1.25E-05,5.80E-06
1337,-9.22E-06,1.75E-05,3.30E-05,-3.88E-06,-7.80E-06,9.55E-06
1338,-5.45E-06,1.58E-05,1.90E-05,2.12E-05,-4.08E-06,1.25E-05
1339,-1.30E-06,1.66E-05,2.04E-05,1.06E-05,-5.16E-06,1.47E-05
1340,-5.79E-07,1.86E-05,2.87E-05,3.26E-05,-5.95E-06,1.55E-05
1341,-6.04E-06,2.12E-05,2.88E-05,0.000109145,-4.55E-06,1.64E-05
1342,-1.25E-05,2.21E-05,2.84E-05,0.00015443,-4.12E-06,1.72E-05
1343,-2.36E-05,2.22E-05,2.74E-05,9.16E-05,-3.82E-06,1.54E-05
1344,-3.16E-05,1.97E-05,2.27E-05,1.35E-05,-2.67E-06,1.24E-05
1345,-2.49E-05,1.69E-05,7.02E-06,-1.13E-05,-1.71E-06,1.02E-05
1346,-1.13E-05,1.61E-05,-3.80E-06,2.76E-05,-3.28E-06,9.74E-06
1347,-2.41E-06,1.71E-05,4.28E-06,0.000122917,-6.63E-06,1.13E-05
1348,-4.41E-06,1.73E-05,1.76E-05,0.000191491,-9.36E-06,1.14E-05
1349,-1.48E-05,1.54E-05,2.36E-05,0.000149842,-1.10E-05,1.00E-05
1350,-2.42E-05,1.41E-05,2.14E-05,5.37E-05,-1.21E-05,1.06E-05
1351,-1.98E-05,1.23E-05,1.57E-05,-3.94E-07,-1.14E-05,1.38E-05
1352,-2.95E-06,1.07E-05,1.10E-05,6.36E-06,-8.39E-06,1.76E-05
1353,1.04E-05,1.14E-05,1.45E-05,7.28E-05,-5.82E-06,2.05E-05
1354,9.91E-06,1.40E-05,1.96E-05,0.000141637,-7.06E-06,1.79E-05
1355,-7.89E-07,1.34E-05,2.05E-05,0.000126584,-1.11E-05,8.40E-06
1356,-8.79E-06,9.71E-06,2.05E-05,4.30E-05,-1.35E-05,3.20E-06
1357,-3.74E-06,7.62E-06,1.61E-05,-1.08E-05,-1.28E-05,9.89E-06
1358,6.82E-06,9.05E-06,5.86E-06,-1.76E-05,-9.61E-06,2.15E-05
1359,9.93E-06,1.12E-05,6.61E-06,4.10E-05,-5.37E-06,2.58E-05
1360,7.84E-06,1.28E-05,1.32E-05,0.000125038,-7.13E-07,2.14E-05
1361,3.51E-06,1.07E-05,1.43E-05,0.000116682,3.86E-06,1.45E-05
1362,-3.35E-06,7.47E-06,2.10E-05,1.72E-05,7.25E-06,1.31E-05
1363,-2.24E-06,6.08E-06,2.83E-05,-3.67E-05,8.73E-06,1.84E-05
1364,6.97E-06,4.62E-06,2.32E-05,-1.99E-05,7.73E-06,1.82E-05
1365,1.28E-05,5.52E-06,1.63E-05,-4.54E-06,5.22E-06,1.30E-05
1366,1.79E-05,6.80E-06,2.14E-05,-3.11E-05,1.34E-07,1.38E-05
1367,1.91E-05,7.42E-06,3.33E-05,-2.91E-05,-8.18E-06,2.04E-05
1368,1.60E-05,8.98E-06,3.86E-05,4.05E-05,-1.10E-05,2.63E-05
1369,8.32E-06,1.01E-05,3.58E-05,9.55E-05,-7.12E-06,2.34E-05
1370,-5.86E-06,8.17E-06,3.37E-05,4.35E-05,-3.31E-06,1.44E-05
1371,-1.16E-05,5.19E-06,3.08E-05,-2.96E-05,-4.21E-07,9.51E-06
1372,-2.14E-06,4.68E-06,1.67E-05,-5.61E-05,4.30E-06,9.87E-06
1373,6.66E-06,5.59E-06,2.10E-06,-2.33E-05,2.70E-06,9.02E-06
1374,5.02E-06,9.55E-06,2.56E-06,7.00E-05,-8.49E-06,6.56E-06
1375,-3.25E-06,1.50E-05,8.97E-06,0.000145102,-2.05E-05,3.92E-06
1376,-1.40E-05,1.62E-05,1.53E-05,0.000115444,-2.61E-05,2.39E-06
1377,-2.30E-05,1.33E-05,1.98E-05,2.70E-05,-2.52E-05,2.89E-06
1378,-2.47E-05,1.05E-05,1.67E-05,-2.73E-05,-2.10E-05,5.44E-06
1379,-2.09E-05,1.00E-05,9.58E-06,-2.30E-05,-1.56E-05,9.62E-06
1380,-1.60E-05,1.03E-05,1.27E-05,5.04E-05,-1.14E-05,1.37E-05
1381,-1.21E-05,1.00E-05,2.12E-05,0.000134091,-8.66E-06,1.50E-05
1382,-1.38E-05,8.51E-06,2.69E-05,0.000126034,-8.25E-06,1.36E-05
1383,-1.79E-05,7.06E-06,3.10E-05,3.93E-05,-8.35E-06,1.43E-05
1384,-1.30E-05,7.11E-06,2.76E-05,-1.48E-05,-6.84E-06,1.62E-05
1385,-1.38E-07,7.93E-06,1.81E-05,-1.54E-05,-3.04E-06,1.46E-05
1386,5.65E-06,8.32E-06,1.97E-05,4.65E-05,-1.67E-06,1.16E-05
1387,2.48E-07,9.71E-06,3.06E-05,0.00012247,-3.73E-06,1.18E-05
1388,-1.20E-05,8.40E-06,3.75E-05,0.000104481,-6.31E-06,1.13E-05
1389,-2.12E-05,3.16E-06,4.20E-05,1.13E-05,-1.13E-05,1.05E-05
1390,-1.46E-05,8.16E-07,3.55E-05,-3.02E-05,-1.59E-05,1.17E-05
1391,-2.21E-06,4.31E-06,2.16E-05,-5.19E-06,-1.50E-05,1.08E-05
1392,5.43E-06,1.06E-05,1.32E-05,2.15E-05,-1.34E-05,9.83E-06
1393,1.55E-05,1.39E-05,1.69E-05,8.99E-06,-1.42E-05,9.62E-06
1394,2.14E-05,1.39E-05,2.47E-05,2.25E-05,-1.65E-05,8.21E-06
1395,1.72E-05,1.62E-05,2.31E-05,9.54E-05,-1.47E-05,9.22E-06
1396,4.25E-06,1.94E-05,1.65E-05,0.000142797,-6.83E-06,9.28E-06
1397,-1.26E-05,1.85E-05,1.54E-05,8.42E-05,1.34E-06,6.87E-06
1398,-1.80E-05,1.51E-05,1.71E-05,1.09E-05,5.88E-06,5.09E-06
1399,-4.48E-06,1.27E-05,4.20E-06,-1.72E-05,4.43E-06,7.76E-06
1400,1.22E-05,1.14E-05,-8.19E-06,3.90E-06,-2.14E-06,1.20E-05
1401,1.50E-05,1.12E-05,-2.34E-06,8.06E-05,-1.12E-05,1.36E-05
1402,6.12E-06,1.37E-05,9.89E-06,0.000150846,-1.91E-05,9.61E-06
1403,-6.78E-06,1.62E-05,1.90E-05,0.000134458,-2.46E-05,2.40E-06
1404,-1.65E-05,1.49E-05,2.33E-05,6.34E-05,-2.68E-05,-1.40E-06
1405,-1.85E-05,9.68E-06,2.07E-05,1.49E-05,-2.61E-05,1.40E-07
1406,-1.60E-05,5.63E-06,1.26E-05,1.74E-05,-2.35E-05,5.44E-06
1407,-1.34E-05,5.73E-06,1.20E-05,8.21E-05,-1.99E-05,1.27E-05
1408,-1.29E-05,6.97E-06,1.66E-05,0.000147076,-1.83E-05,1.87E-05
1409,-1.82E-05,5.40E-06,1.91E-05,0.000122434,-1.76E-05,1.66E-05
1410,-2.53E-05,1.89E-06,2.01E-05,2.96E-05,-1.13E-05,1.00E-05
1411,-2.25E-05,4.87E-07,1.42E-05,-2.12E-05,-9.11E-07,9.71E-06
1412,-1.38E-05,3.05E-06,2.47E-06,-9.76E-06,3.89E-06,1.43E-05
1413,-1.17E-05,7.58E-06,3.82E-06,6.36E-05,5.40E-07,1.38E-05
1414,-1.55E-05,1.06E-05,1.30E-05,0.000142269,-5.04E-06,8.60E-06
1415,-2.53E-05,1.11E-05,1.61E-05,0.000120756,-9.87E-06,4.62E-06
1416,-3.52E-05,1.05E-05,2.02E-05,1.52E-05,-1.17E-05,7.74E-06
1417,-3.07E-05,8.69E-06,2.43E-05,-4.04E-05,-1.07E-05,1.59E-05
1418,-2.16E-05,7.14E-06,2.11E-05,-1.17E-05,-1.18E-05,1.86E-05
1419,-1.87E-05,7.61E-06,1.03E-05,2.95E-05,-1.35E-05,1.59E-05
1420,-1.14E-05,9.44E-06,1.25E-05,2.54E-05,-1.32E-05,1.53E-05
1421,-5.44E-06,1.05E-05,2.55E-05,3.44E-05,-1.04E-05,1.53E-05
1422,-6.04E-06,1.11E-05,3.10E-05,9.53E-05,-7.37E-06,1.65E-05
1423,-1.11E-05,1.52E-05,3.01E-05,0.000136561,-7.08E-06,1.66E-05
1424,-2.41E-05,1.77E-05,3.09E-05,8.11E-05,-7.88E-06,1.27E-05
1425,-3.40E-05,1.44E-05,3.37E-05,1.49E-05,-9.98E-06,1.15E-05
1426,-2.86E-05,8.16E-06,2.51E-05,-9.63E-06,-1.18E-05,1.60E-05
1427,-1.66E-05,6.10E-06,1.40E-05,1.28E-05,-1.35E-05,2.06E-05
1428,-8.43E-06,9.91E-06,1.44E-05,8.91E-05,-1.48E-05,2.00E-05
1429,-8.34E-06,1.45E-05,1.95E-05,0.000150516,-1.39E-05,1.48E-05
1430,-1.63E-05,1.60E-05,2.59E-05,0.000116205,-1.05E-05,7.31E-06
1431,-2.60E-05,1.36E-05,3.18E-05,3.23E-05,-6.74E-06,4.40E-06
1432,-2.41E-05,1.05E-05,2.70E-05,-1.19E-05,-4.17E-06,8.46E-06
1433,-9.67E-06,9.53E-06,1.59E-05,3.68E-06,-4.69E-06,1.30E-05
1434,3.34E-06,1.14E-05,1.96E-05,7.89E-05,-7.50E-06,1.16E-05
1435,4.68E-06,1.44E-05,3.25E-05,0.000150128,-9.38E-06,7.88E-06
1436,-5.60E-06,1.56E-05,3.94E-05,0.000127197,-1.23E-05,7.90E-06
1437,-1.68E-05,1.29E-05,4.50E-05,3.41E-05,-1.62E-05,1.08E-05
1438,-1.50E-05,1.06E-05,4.83E-05,-2.44E-05,-1.83E-05,1.40E-05
1439,-3.23E-06,1.15E-05,4.37E-05,-3.51E-05,-1.85E-05,1.57E-05
1440,2.28E-06,1.33E-05,4.32E-05,1.75E-05,-1.74E-05,1.64E-05
1441,-2.23E-06,1.53E-05,5.01E-05,9.89E-05,-1.43E-05,1.90E-05
1442,-1.46E-05,1.78E-05,5.43E-05,9.84E-05,-1.26E-05,1.88E-05
1443,-2.44E-05,1.81E-05,5.52E-05,1.02E-05,-1.30E-05,1.57E-05
1444,-1.66E-05,1.96E-05,5.10E-05,-3.98E-05,-1.26E-05,1.46E-05
1445,-1.98E-06,2.15E-05,4.10E-05,-1.67E-05,-1.11E-05,1.51E-05
1446,4.24E-06,2.13E-05,3.45E-05,1.08E-05,-7.51E-06,1.67E-05
1447,6.30E-06,2.16E-05,3.74E-05,-3.88E-06,-4.06E-06,1.71E-05
1448,8.13E-06,2.23E-05,4.51E-05,6.40E-06,-6.00E-06,1.52E-05
1449,9.59E-06,2.27E-05,4.89E-05,7.18E-05,-1.01E-05,1.38E-05
1450,1.92E-06,2.40E-05,4.71E-05,0.000126007,-1.09E-05,1.29E-05
1451,-1.59E-05,2.28E-05,4.68E-05,9.14E-05,-7.97E-06,9.62E-06
1452,-2.60E-05,1.83E-05,5.05E-05,3.02E-05,-7.03E-06,9.78E-06
1453,-1.64E-05,1.44E-05,4.44E-05,-6.96E-06,-9.71E-06,1.33E-05
1454,-4.41E-06,1.19E-05,3.36E-05,3.48E-06,-1.09E-05,1.46E-05
1455,-1.74E-06,1.27E-05,3.30E-05,7.87E-05,-8.43E-06,1.42E-05
1456,-6.23E-06,1.53E-05,3.83E-05,0.000146763,-6.00E-06,1.34E-05
1457,-1.27E-05,1.69E-05,4.48E-05,0.000119755,-6.75E-06,1.27E-05
1458,-1.21E-05,1.62E-05,5.00E-05,3.78E-05,-8.61E-06,1.35E-05
1459,-4.90E-07,1.49E-05,4.71E-05,-1.04E-05,-7.89E-06,1.46E-05
1460,1.30E-05,1.62E-05,3.73E-05,-1.45E-06,-2.14E-06,1.31E-05
1461,1.92E-05,1.95E-05,3.60E-05,6.81E-05,5.22E-06,1.16E-05
1462,1.84E-05,2.20E-05,4.25E-05,0.000135712,8.66E-06,1.20E-05
1463,7.67E-06,2.25E-05,4.97E-05,0.000113102,6.14E-06,1.06E-05
1464,-6.02E-06,2.18E-05,5.31E-05,2.49E-05,-2.17E-07,1.03E-05
1465,-5.14E-06,2.07E-05,4.64E-05,-2.46E-05,-6.24E-06,1.67E-05
1466,8.76E-06,1.95E-05,3.28E-05,-2.76E-05,-7.99E-06,2.25E-05
1467,1.66E-05,1.92E-05,2.73E-05,3.14E-05,-6.71E-06,1.94E-05
1468,1.26E-05,1.68E-05,3.17E-05,0.000114504,-6.01E-06,1.44E-05
1469,-7.71E-07,1.12E-05,3.64E-05,0.000107832,-5.90E-06,1.24E-05
1470,-1.49E-05,6.17E-06,4.35E-05,1.56E-05,-6.67E-06,1.15E-05
1471,-9.72E-06,5.52E-06,4.38E-05,-3.39E-05,-5.72E-06,1.54E-05
1472,7.94E-06,8.70E-06,3.45E-05,-9.74E-06,-3.80E-06,1.95E-05
1473,1.36E-05,1.10E-05,2.71E-05,2.07E-05,-4.29E-06,2.10E-05
1474,1.35E-05,1.19E-05,2.92E-05,5.00E-06,-5.83E-06,2.09E-05
1475,1.39E-05,1.12E-05,3.83E-05,9.40E-06,-6.65E-06,2.04E-05
1476,1.39E-05,1.39E-05,3.69E-05,7.78E-05,-4.22E-06,2.03E-05
1477,9.70E-06,1.95E-05,2.68E-05,0.000133964,-1.75E-06,1.72E-05
1478,-1.64E-06,2.27E-05,2.36E-05,9.03E-05,-1.98E-06,1.09E-05
1479,-1.12E-05,2.17E-05,2.56E-05,2.30E-05,-4.08E-06,9.36E-06
1480,-7.46E-06,1.73E-05,1.91E-05,-4.42E-06,-2.29E-06,1.43E-05
1481,3.07E-06,1.30E-05,1.37E-05,2.26E-05,-6.26E-07,1.92E-05
1482,9.34E-06,1.37E-05,2.05E-05,0.000105063,-6.76E-06,1.97E-05
1483,6.14E-06,1.78E-05,2.95E-05,0.000163797,-1.60E-05,1.52E-05
1484,-6.81E-06,1.77E-05,3.58E-05,0.000121508,-2.25E-05,7.79E-06
1485,-1.73E-05,1.38E-05,3.86E-05,3.22E-05,-2.52E-05,3.93E-06
1486,-1.20E-05,1.07E-05,3.43E-05,-1.81E-05,-2.58E-05,7.29E-06
1487,1.60E-06,9.32E-06,2.57E-05,-1.35E-05,-2.53E-05,1.21E-05
1488,8.01E-06,1.00E-05,2.46E-05,4.99E-05,-2.42E-05,1.29E-05
1489,6.17E-06,1.27E-05,2.57E-05,0.00011571,-1.96E-05,1.05E-05
1490,-2.56E-06,1.39E-05,2.46E-05,9.55E-05,-9.47E-06,6.65E-06
1491,-1.42E-05,1.30E-05,2.88E-05,8.74E-06,4.67E-06,3.82E-06
1492,-1.66E-05,1.32E-05,3.08E-05,-3.75E-05,1.80E-05,5.19E-06
1493,-5.92E-06,1.55E-05,2.30E-05,-3.13E-05,2.31E-05,7.33E-06
1494,5.59E-06,1.70E-05,2.22E-05,3.24E-05,1.75E-05,6.70E-06
1495,9.18E-06,1.70E-05,3.01E-05,0.000114533,9.43E-06,5.23E-06
1496,-1.36E-06,1.38E-05,3.41E-05,0.00011439,2.36E-06,3.79E-06
1497,-1.33E-05,8.20E-06,3.80E-05,3.22E-05,-2.95E-06,4.83E-06
1498,-4.87E-06,3.93E-06,3.52E-05,-1.88E-05,-5.95E-06,7.56E-06
1499,1.33E-05,2.36E-06,2.59E-05,-4.72E-06,-8.07E-06,8.53E-06
1500,1.99E-05,3.37E-06,2.17E-05,1.90E-05,-8.63E-06,1.02E-05
1501,2.03E-05,5.65E-06,2.95E-05,1.04E-05,-5.64E-06,1.34E-05
1502,1.65E-05,9.14E-06,3.88E-05,2.49E-05,-6.39E-06,1.74E-05
1503,1.01E-05,1.36E-05,3.88E-05,9.75E-05,-1.08E-05,1.75E-05
1504,1.34E-06,1.73E-05,3.81E-05,0.000154602,-1.30E-05,1.22E-05
1505,-1.38E-05,1.58E-05,3.77E-05,0.000107822,-1.40E-05,5.84E-06
1506,-2.55E-05,1.14E-05,3.26E-05,3.41E-05,-1.33E-05,8.48E-06
1507,-1.77E-05,9.11E-06,1.50E-05,-7.17E-06,-1.25E-05,1.74E-05
1508,-9.91E-07,9.83E-06,-1.28E-06,5.46E-06,-1.16E-05,2.35E-05
1509,5.03E-06,1.05E-05,-3.03E-07,8.63E-05,-1.01E-05,2.30E-05
1510,-2.60E-06,8.46E-06,8.38E-06,0.000157905,-9.27E-06,1.89E-05
1511,-1.68E-05,4.21E-06,1.51E-05,0.000128221,-9.56E-06,1.52E-05
1512,-2.62E-05,5.59E-07,1.84E-05,3.97E-05,-8.93E-06,1.38E-05
1513,-2.25E-05,1.16E-06,1.64E-05,-1.51E-05,-7.44E-06,1.64E-05
1514,-1.13E-05,4.83E-06,1.13E-05,-8.78E-06,-4.94E-06,1.94E-05
1515,-5.79E-06,8.29E-06,1.50E-05,6.03E-05,-1.66E-06,2.07E-05
1516,-8.61E-06,8.51E-06,2.42E-05,0.000129836,1.83E-06,1.88E-05
1517,-1.81E-05,4.96E-06,3.17E-05,0.000109749,3.73E-06,1.55E-05
1518,-2.56E-05,1.39E-06,3.58E-05,1.97E-05,1.55E-06,1.39E-05
1519,-2.02E-05,3.02E-06,2.99E-05,-3.16E-05,-6.36E-06,1.81E-05
1520,-5.07E-06,8.29E-06,1.59E-05,-2.59E-05,-1.65E-05,2.05E-05
1521,2.68E-06,1.16E-05,1.48E-05,4.52E-05,-2.29E-05,1.87E-05
1522,-1.77E-06,1.33E-05,2.32E-05,0.00013568,-2.44E-05,1.80E-05
1523,-1.62E-05,1.34E-05,2.52E-05,0.000133944,-2.33E-05,1.52E-05
1524,-3.01E-05,9.98E-06,3.12E-05,4.43E-05,-2.11E-05,1.00E-05
1525,-2.60E-05,7.88E-06,4.24E-05,1.50E-06,-1.96E-05,9.96E-06
1526,-1.27E-05,8.26E-06,4.38E-05,2.82E-05,-2.00E-05,1.39E-05
1527,-6.92E-06,7.70E-06,3.34E-05,4.98E-05,-1.92E-05,1.78E-05
1528,-8.39E-07,5.81E-06,3.01E-05,3.00E-05,-1.52E-05,1.95E-05
1529,6.08E-06,6.03E-06,3.84E-05,3.28E-05,-8.47E-06,1.89E-05
1530,6.29E-06,1.14E-05,4.35E-05,9.41E-05,-4.08E-06,1.76E-05
1531,-2.89E-06,1.67E-05,4.09E-05,0.000142065,-1.25E-06,1.47E-05
1532,-2.02E-05,1.65E-05,4.07E-05,9.15E-05,3.30E-06,1.04E-05
1533,-3.36E-05,1.38E-05,3.99E-05,1.85E-05,3.78E-06,1.03E-05
1534,-3.02E-05,1.36E-05,2.58E-05,-1.37E-05,-1.37E-06,1.50E-05
1535,-1.62E-05,1.47E-05,9.84E-06,9.31E-06,-7.31E-06,1.93E-05
1536,-4.37E-06,1.62E-05,7.03E-06,9.02E-05,-8.66E-06,1.87E-05
1537,-2.75E-06,1.83E-05,1.28E-05,0.000152804,-5.73E-06,1.10E-05
1538,-1.34E-05,1.74E-05,2.19E-05,0.000111011,-4.31E-06,1.03E-06
1539,-2.38E-05,1.37E-05,2.84E-05,1.24E-05,-6.04E-06,-2.88E-06
1540,-2.19E-05,1.20E-05,2.34E-05,-4.48E-05,-8.09E-06,2.33E-06
1541,-1.32E-05,1.41E-05,1.36E-05,-3.07E-05,-8.80E-06,1.06E-05
1542,-1.02E-05,1.71E-05,1.65E-05,5.75E-05,-8.83E-06,1.61E-05
1543,-1.48E-05,1.76E-05,2.45E-05,0.000148204,-6.48E-06,1.37E-05
1544,-2.34E-05,1.45E-05,2.69E-05,0.000135752,-4.11E-06,5.41E-06
1545,-2.87E-05,1.22E-05,3.03E-05,3.99E-05,-6.62E-06,1.72E-06
1546,-2.30E-05,1.27E-05,3.17E-05,-1.95E-05,-1.30E-05,6.71E-06
1547,-1.30E-05,1.41E-05,2.66E-05,-1.54E-05,-1.84E-05,1.27E-05
1548,-9.53E-06,1.44E-05,2.72E-05,6.12E-05,-1.65E-05,1.49E-05
1549,-9.99E-06,1.34E-05,3.34E-05,0.000152185,-6.40E-06,1.09E-05
1550,-1.66E-05,1.36E-05,3.33E-05,0.000143162,2.51E-06,3.33E-06
1551,-2.50E-05,1.46E-05,3.38E-05,5.21E-05,4.61E-07,8.65E-07
1552,-2.15E-05,1.63E-05,3.32E-05,6.18E-06,-5.44E-06,9.79E-06
1553,-1.33E-05,1.88E-05,2.76E-05,2.78E-05,-5.45E-06,1.99E-05
1554,-1.23E-05,1.84E-05,1.88E-05,4.28E-05,-4.47E-06,2.18E-05
1555,-9.41E-06,1.55E-05,2.04E-05,1.09E-05,-7.91E-06,1.77E-05
1556,-1.63E-06,1.46E-05,3.24E-05,4.83E-06,-1.24E-05,1.18E-05
1557,5.26E-06,1.54E-05,4.10E-05,6.98E-05,-1.39E-05,1.02E-05
1558,6.11E-06,1.57E-05,4.50E-05,0.00012442,-1.12E-05,8.55E-06
1559,-3.60E-06,1.52E-05,4.69E-05,7.68E-05,-5.95E-06,6.10E-06
1560,-9.56E-06,1.53E-05,4.87E-05,9.28E-06,-1.86E-06,6.37E-06
1561,1.17E-06,1.66E-05,3.60E-05,-2.00E-05,2.20E-07,7.47E-06
1562,1.70E-05,1.72E-05,2.18E-05,2.86E-06,-1.71E-06,8.91E-06
1563,2.50E-05,1.66E-05,2.21E-05,8.31E-05,-5.99E-06,1.14E-05
1564,2.12E-05,1.46E-05,2.79E-05,0.000150469,-1.06E-05,1.18E-05
1565,7.57E-06,1.19E-05,3.17E-05,0.000120667,-1.42E-05,8.83E-06
1566,-6.49E-06,9.87E-06,3.48E-05,3.74E-05,-1.43E-05,6.83E-06
1567,-8.18E-06,9.10E-06,3.41E-05,-1.12E-05,-1.25E-05,9.66E-06
1568,1.52E-06,8.21E-06,2.73E-05,-2.72E-06,-1.05E-05,1.43E-05
1569,9.36E-06,8.31E-06,2.49E-05,6.70E-05,-8.52E-06,1.55E-05
1570,4.95E-06,9.82E-06,2.71E-05,0.000138248,-7.49E-06,1.32E-05
1571,-9.40E-06,9.05E-06,2.90E-05,0.000118322,-9.37E-06,1.10E-05
1572,-1.96E-05,6.03E-06,3.17E-05,2.68E-05,-1.15E-05,1.31E-05
1573,-1.25E-05,5.07E-06,2.92E-05,-2.62E-05,-1.15E-05,1.82E-05
1574,3.75E-06,7.72E-06,1.77E-05,-2.09E-05,-1.11E-05,1.89E-05
1575,1.15E-05,1.18E-05,1.21E-05,5.21E-05,-1.10E-05,1.57E-05
1576,8.96E-06,1.37E-05,1.21E-05,0.000140423,-9.82E-06,1.42E-05
1577,-2.24E-06,1.23E-05,8.89E-06,0.000132122,-8.21E-06,1.07E-05
1578,-1.06E-05,9.17E-06,1.08E-05,3.36E-05,-8.64E-06,7.91E-06
1579,-2.44E-06,7.01E-06,1.50E-05,-2.56E-05,-7.77E-06,1.44E-05
1580,9.59E-06,7.89E-06,1.56E-05,-8.18E-06,-4.15E-06,2.22E-05
1581,1.12E-05,9.64E-06,1.16E-05,1.92E-05,-4.71E-06,2.41E-05
1582,1.19E-05,1.18E-05,1.07E-05,1.16E-05,-1.03E-05,2.33E-05
1583,1.21E-05,1.29E-05,1.45E-05,3.50E-05,-1.60E-05,1.82E-05
1584,7.64E-06,1.24E-05,1.51E-05,0.000119729,-1.79E-05,1.25E-05
1585,-1.80E-06,1.35E-05,1.97E-05,0.000176747,-1.79E-05,7.46E-06
1586,-1.93E-05,1.33E-05,2.56E-05,0.000118197,-1.58E-05,1.09E-06
1587,-3.07E-05,1.09E-05,2.77E-05,3.82E-05,-1.26E-05,-5.85E-07
1588,-2.26E-05,8.71E-06,1.69E-05,4.18E-07,-1.13E-05,5.42E-06
1589,-5.73E-06,9.21E-06,7.21E-06,1.20E-05,-1.12E-05,1.28E-05
1590,6.17E-06,1.17E-05,1.23E-05,8.40E-05,-1.09E-05,1.64E-05
1591,7.37E-06,1.33E-05,2.12E-05,0.000146541,-9.56E-06,1.53E-05
1592,-1.53E-06,1.21E-05,2.94E-05,0.000108392,-1.00E-05,1.43E-05
1593,-1.26E-05,1.06E-05,3.57E-05,1.32E-05,-1.25E-05,1.85E-05
1594,-1.39E-05,1.05E-05,3.43E-05,-3.84E-05,-1.44E-05,2.53E-05
1595,-5.35E-06,1.03E-05,2.59E-05,-2.20E-05,-1.47E-05,2.77E-05
1596,5.11E-06,9.59E-06,2.61E-05,5.16E-05,-1.52E-05,2.50E-05
1597,8.56E-06,1.03E-05,3.17E-05,0.000116194,-1.54E-05,2.18E-05
1598,-5.09E-07,1.34E-05,3.45E-05,9.13E-05,-1.44E-05,1.82E-05
1599,-1.49E-05,1.69E-05,3.39E-05,4.67E-06,-1.19E-05,1.46E-05
1600,-1.91E-05,1.92E-05,2.78E-05,-3.86E-05,-7.81E-06,1.43E-05
1601,-1.07E-05,2.08E-05,1.64E-05,-2.76E-05,-3.86E-06,1.63E-05
1602,-4.69E-06,2.10E-05,1.73E-05,3.88E-05,-2.57E-06,1.57E-05
1603,-7.80E-06,1.94E-05,2.96E-05,0.000117442,-4.55E-06,1.33E-05
1604,-1.59E-05,1.85E-05,3.72E-05,0.000109589,-4.73E-06,9.52E-06
1605,-2.24E-05,1.69E-05,3.78E-05,2.03E-05,-3.12E-06,7.01E-06
1606,-1.95E-05,1.53E-05,3.02E-05,-2.35E-05,-3.60E-06,8.93E-06
1607,-1.10E-05,1.70E-05,1.98E-05,8.13E-06,-7.20E-06,9.50E-06
1608,-9.71E-06,1.75E-05,1.73E-05,4.04E-05,-1.13E-05,5.88E-06
1609,-7.14E-06,1.43E-05,2.79E-05,3.05E-05,-9.14E-06,6.61E-06
1610,-1.56E-06,1.21E-05,3.89E-05,4.31E-05,-6.96E-06,9.60E-06
1611,-1.96E-06,1.30E-05,3.89E-05,0.000106133,-1.11E-05,1.16E-05
1612,-1.37E-05,1.51E-05,3.25E-05,0.000146319,-1.58E-05,1.04E-05
1613,-3.36E-05,1.35E-05,3.06E-05,9.04E-05,-1.46E-05,3.70E-06
1614,-4.36E-05,1.03E-05,3.20E-05,1.87E-05,-9.21E-06,1.56E-06
1615,-3.65E-05,8.89E-06,2.11E-05,-1.26E-05,-5.86E-06,5.90E-06
1616,-2.66E-05,8.10E-06,7.95E-06,7.75E-06,-6.77E-06,8.47E-06
1617,-2.28E-05,6.45E-06,8.73E-06,8.60E-05,-8.86E-06,6.60E-06
1618,-2.35E-05,4.23E-06,1.92E-05,0.000150314,-8.34E-06,5.01E-06
1619,-2.60E-05,3.14E-06,2.99E-05,0.000116189,-5.39E-06,4.00E-06
1620,-2.69E-05,4.10E-06,3.15E-05,2.62E-05,6.15E-08,5.94E-06
1621,-1.93E-05,6.14E-06,2.27E-05,-2.96E-05,3.85E-06,1.37E-05
1622,-7.26E-06,8.28E-06,1.59E-05,-2.69E-05,2.65E-06,2.23E-05
1623,-1.53E-06,1.11E-05,2.37E-05,3.59E-05,-1.94E-06,2.27E-05
1624,-3.59E-06,1.39E-05,3.54E-05,9.85E-05,-6.96E-06,1.43E-05
1625,-7.90E-06,1.45E-05,3.85E-05,7.56E-05,-9.48E-06,5.79E-06
1626,-9.29E-06,1.23E-05,3.55E-05,-6.51E-06,-8.01E-06,5.50E-06
1627,-4.22E-06,1.23E-05,2.80E-05,-4.47E-05,-8.08E-06,1.31E-05
1628,5.78E-06,1.58E-05,1.69E-05,-3.39E-05,-1.26E-05,1.84E-05
1629,1.35E-05,2.02E-05,1.69E-05,3.53E-05,-1.68E-05,1.60E-05
1630,1.68E-05,2.33E-05,2.65E-05,0.000122889,-1.52E-05,1.06E-05
1631,1.14E-05,2.31E-05,3.11E-05,0.000116709,-7.74E-06,7.37E-06
1632,6.41E-07,1.90E-05,3.39E-05,2.06E-05,-1.03E-06,7.90E-06
1633,-6.04E-07,1.19E-05,3.40E-05,-2.77E-05,-3.13E-06,1.10E-05
1634,1.11E-06,6.88E-06,2.75E-05,3.88E-06,-9.46E-06,9.52E-06
1635,-5.44E-06,7.66E-06,1.92E-05,3.18E-05,-1.30E-05,6.71E-06
1636,-4.96E-06,1.05E-05,1.95E-05,8.53E-06,-1.16E-05,8.72E-06
1637,1.93E-06,1.16E-05,2.98E-05,9.45E-06,-1.08E-05,1.06E-05
1638,8.01E-06,1.09E-05,3.90E-05,7.52E-05,-1.54E-05,1.06E-05
1639,6.38E-06,9.66E-06,3.91E-05,0.00012512,-1.94E-05,8.13E-06
1640,-8.87E-06,9.63E-06,3.79E-05,7.29E-05,-1.66E-05,3.86E-06
1641,-2.36E-05,1.16E-05,3.79E-05,-3.55E-06,-9.18E-06,3.06E-06
1642,-2.03E-05,1.33E-05,2.72E-05,-4.26E-05,-5.33E-06,6.60E-06
1643,-8.83E-06,1.22E-05,1.56E-05,-2.34E-05,-6.21E-06,1.08E-05
1644,-4.71E-06,1.09E-05,1.37E-05,6.24E-05,-6.79E-06,1.34E-05
1645,-9.78E-06,1.21E-05,1.61E-05,0.000137925,-2.19E-06,1.27E-05
1646,-2.18E-05,1.38E-05,2.31E-05,0.000111612,3.99E-06,8.44E-06
1647,-3.01E-05,1.37E-05,3.07E-05,2.79E-05,7.43E-06,4.91E-06
1648,-2.25E-05,1.18E-05,2.88E-05,-1.83E-05,4.26E-06,5.85E-06
1649,-3.17E-06,9.93E-06,2.33E-05,-4.44E-06,-4.17E-06,9.15E-06
1650,9.80E-06,1.08E-05,2.76E-05,6.73E-05,-1.32E-05,1.07E-05
1651,8.33E-06,1.39E-05,3.28E-05,0.000137212,-1.85E-05,9.13E-06
1652,-7.03E-06,1.51E-05,3.36E-05,0.000123962,-1.81E-05,5.13E-06
1653,-2.49E-05,1.44E-05,3.82E-05,4.66E-05,-1.25E-05,4.19E-06
1654,-2.60E-05,1.19E-05,3.93E-05,5.26E-07,-4.79E-06,9.65E-06
1655,-1.22E-05,7.75E-06,3.33E-05,3.55E-06,4.85E-07,1.67E-05
1656,-1.24E-06,6.65E-06,3.65E-05,6.95E-05,1.62E-06,2.29E-05
1657,3.67E-06,8.14E-06,4.50E-05,0.000154488,-1.39E-06,2.53E-05
1658,3.73E-07,1.01E-05,4.95E-05,0.00014857,-5.98E-06,2.10E-05
1659,-6.97E-06,1.15E-05,5.63E-05,5.07E-05,-8.05E-06,1.83E-05
1660,-5.64E-06,1.25E-05,5.87E-05,-7.73E-06,-3.29E-06,1.99E-05
1661,-1.27E-06,1.35E-05,5.18E-05,9.98E-06,6.04E-07,2.06E-05
1662,9.21E-07,1.42E-05,4.44E-05,3.60E-05,1.53E-06,2.22E-05
1663,1.08E-05,1.47E-05,4.74E-05,2.50E-05,2.18E-06,2.34E-05
1664,2.18E-05,1.54E-05,5.54E-05,3.34E-05,1.87E-06,2.17E-05
1665,2.54E-05,1.68E-05,5.79E-05,9.53E-05,7.34E-07,2.11E-05
1666,1.89E-05,1.76E-05,5.30E-05,0.000138274,-6.14E-06,1.74E-05
1667,2.13E-06,1.49E-05,4.65E-05,7.94E-05,-1.53E-05,1.14E-05
1668,-1.22E-05,1.06E-05,4.24E-05,6.85E-06,-1.91E-05,1.04E-05
1669,-9.98E-06,9.78E-06,2.89E-05,-1.85E-05,-1.65E-05,1.36E-05
1670,-9.73E-07,1.09E-05,1.56E-05,9.90E-06,-1.25E-05,1.63E-05
1671,3.94E-06,1.30E-05,1.64E-05,9.13E-05,-1.09E-05,1.64E-05
1672,9.14E-07,1.48E-05,2.29E-05,0.000151492,-1.37E-05,1.36E-05
1673,-1.10E-05,1.41E-05,2.60E-05,0.000110063,-2.02E-05,1.05E-05
1674,-2.15E-05,1.15E-05,2.33E-05,1.87E-05,-2.70E-05,9.88E-06
1675,-1.70E-05,9.01E-06,1.33E-05,-2.95E-05,-3.19E-05,1.14E-05
1676,-2.36E-06,8.21E-06,1.54E-06,-1.76E-05,-3.28E-05,1.17E-05
1677,3.35E-06,1.11E-05,1.96E-06,5.15E-05,-2.81E-05,9.53E-06
1678,-2.82E-06,1.65E-05,1.27E-05,0.000119056,-1.60E-05,6.49E-06
1679,-1.17E-05,1.86E-05,2.31E-05,0.000100213,-1.63E-07,3.14E-06
1680,-1.51E-05,1.56E-05,2.67E-05,1.45E-05,1.18E-05,2.05E-06
1681,-9.39E-06,1.16E-05,1.74E-05,-3.45E-05,1.65E-05,4.60E-06
1682,1.21E-06,1.06E-05,3.89E-06,-3.34E-05,1.56E-05,6.72E-06
1683,6.61E-06,1.28E-05,8.28E-06,3.24E-05,1.19E-05,6.25E-06
1684,5.30E-06,1.52E-05,2.37E-05,0.000125151,9.34E-06,6.25E-06
1685,-9.21E-06,1.44E-05,3.43E-05,0.000130212,9.83E-06,3.46E-06
1686,-2.42E-05,1.22E-05,4.24E-05,4.03E-05,8.79E-06,-3.76E-07
1687,-1.74E-05,1.19E-05,3.94E-05,-1.39E-05,5.34E-06,4.80E-06
1688,-8.91E-06,1.43E-05,2.32E-05,1.06E-05,2.56E-06,1.19E-05
1689,-1.17E-05,1.75E-05,1.03E-05,4.07E-05,-2.09E-06,1.11E-05
1690,-1.00E-05,2.02E-05,1.50E-05,2.34E-05,-4.27E-06,7.76E-06
1691,-4.49E-06,2.08E-05,2.69E-05,2.25E-05,-4.20E-06,7.95E-06
1692,-9.67E-07,1.98E-05,3.12E-05,8.70E-05,-6.28E-06,1.28E-05
1693,-5.22E-07,1.97E-05,3.10E-05,0.000141008,-1.09E-05,1.38E-05
1694,-2.20E-06,1.82E-05,3.32E-05,9.01E-05,-1.48E-05,9.96E-06
1695,-6.14E-06,1.46E-05,3.80E-05,1.46E-05,-1.50E-05,1.05E-05
1696,-2.58E-06,1.16E-05,3.38E-05,-2.01E-05,-1.57E-05,1.85E-05
1697,7.42E-06,9.90E-06,3.02E-05,6.66E-06,-1.74E-05,2.54E-05
1698,1.55E-05,1.00E-05,3.63E-05,9.49E-05,-1.74E-05,2.66E-05
1699,1.37E-05,1.18E-05,4.30E-05,0.000159548,-1.46E-05,2.17E-05
1700,2.76E-07,1.39E-05,4.72E-05,0.000113751,-1.17E-05,1.30E-05
1701,-1.26E-05,1.53E-05,4.73E-05,1.72E-05,-9.36E-06,9.26E-06
1702,-1.48E-05,1.51E-05,3.97E-05,-3.11E-05,-8.36E-06,1.38E-05
1703,-6.00E-06,1.47E-05,2.98E-05,-1.62E-05,-9.42E-06,2.08E-05
1704,4.85E-06,1.51E-05,3.21E-05,6.12E-05,-1.24E-05,2.24E-05
1705,8.14E-06,1.71E-05,4.29E-05,0.000143077,-1.47E-05,1.89E-05
1706,-1.71E-06,1.88E-05,5.27E-05,0.000134096,-1.48E-05,1.18E-05
1707,-1.30E-05,1.85E-05,5.95E-05,5.06E-05,-1.31E-05,7.25E-06
1708,-9.98E-06,1.90E-05,5.75E-05,-2.13E-07,-1.05E-05,1.15E-05
1709,3.07E-06,2.10E-05,4.41E-05,-1.08E-06,-7.91E-06,1.87E-05
1710,7.39E-06,2.27E-05,3.73E-05,6.15E-05,-6.31E-06,1.90E-05
1711,-2.18E-06,2.38E-05,4.04E-05,0.000146334,-7.76E-06,1.35E-05
1712,-2.33E-05,2.08E-05,4.15E-05,0.000147385,-1.07E-05,6.58E-06
1713,-4.03E-05,1.67E-05,4.64E-05,6.35E-05,-9.73E-06,4.78E-06
1714,-3.34E-05,1.64E-05,4.89E-05,2.05E-05,-3.00E-06,1.16E-05
1715,-1.89E-05,1.71E-05,3.67E-05,4.79E-05,-3.27E-07,1.80E-05
1716,-1.70E-05,1.87E-05,2.38E-05,6.87E-05,-5.51E-06,1.88E-05
1717,-1.38E-05,1.74E-05,2.66E-05,4.03E-05,-1.03E-05,1.79E-05
1718,-8.40E-06,1.46E-05,3.44E-05,4.25E-05,-1.07E-05,1.93E-05
1719,-4.26E-06,1.35E-05,3.55E-05,0.000118656,-8.36E-06,2.32E-05
1720,-1.59E-06,1.27E-05,3.07E-05,0.000173533,-7.10E-06,2.25E-05
1721,-3.97E-06,1.18E-05,2.80E-05,0.000110006,-8.34E-06,1.56E-05
1722,-5.97E-06,1.16E-05,2.59E-05,2.35E-05,-1.23E-05,1.00E-05
1723,9.22E-07,1.32E-05,1.25E-05,-1.26E-05,-1.50E-05,1.07E-05
1724,7.94E-06,1.34E-05,9.63E-07,1.00E-05,-1.48E-05,1.51E-05
1725,7.68E-06,1.11E-05,5.83E-06,9.35E-05,-1.46E-05,1.83E-05
1726,1.78E-06,7.14E-06,1.54E-05,0.000164212,-1.46E-05,1.58E-05
1727,-5.85E-06,3.87E-06,2.30E-05,0.000134161,-1.23E-05,9.35E-06
1728,-7.28E-06,5.19E-06,2.62E-05,4.30E-05,-8.49E-06,6.20E-06
1729,1.78E-06,8.86E-06,1.91E-05,-1.36E-05,-6.43E-06,1.01E-05
1730,1.27E-05,9.52E-06,7.75E-06,-6.27E-06,-7.23E-06,1.62E-05
1731,1.38E-05,8.76E-06,9.18E-06,6.58E-05,-8.10E-06,1.77E-05
1732,7.12E-06,1.02E-05,1.79E-05,0.000137201,-5.70E-06,1.51E-05
1733,-5.35E-06,9.92E-06,2.32E-05,0.000115942,-2.29E-06,1.12E-05
1734,-1.59E-05,5.94E-06,2.76E-05,2.65E-05,-1.34E-06,9.88E-06
1735,-1.44E-05,2.77E-06,2.67E-05,-2.26E-05,-4.83E-06,1.30E-05
1736,-7.53E-06,2.47E-06,1.76E-05,-2.12E-05,-9.62E-06,1.69E-05
1737,-7.16E-06,4.79E-06,1.75E-05,3.27E-05,-1.18E-05,1.69E-05
1738,-9.08E-06,8.04E-06,2.71E-05,0.000105942,-1.30E-05,1.50E-05
1739,-1.64E-05,8.48E-06,2.81E-05,9.82E-05,-1.56E-05,1.16E-05
1740,-2.47E-05,7.30E-06,2.41E-05,9.98E-06,-1.46E-05,7.72E-06
1741,-1.88E-05,6.79E-06,2.13E-05,-4.41E-05,-1.08E-05,1.14E-05
1742,-8.99E-06,5.07E-06,1.91E-05,-2.94E-05,-1.05E-05,1.62E-05
1743,-1.12E-05,1.52E-06,1.88E-05,-5.76E-06,-1.13E-05,1.50E-05
1744,-1.49E-05,-6.07E-07,2.40E-05,-2.06E-05,-1.11E-05,1.23E-05
1745,-1.49E-05,2.91E-07,3.00E-05,-2.04E-06,-1.13E-05,1.22E-05
1746,-1.44E-05,2.42E-06,3.10E-05,7.78E-05,-9.24E-06,1.65E-05
1747,-1.67E-05,5.96E-06,3.05E-05,0.000136724,-6.53E-06,1.83E-05
1748,-2.58E-05,8.20E-06,3.45E-05,9.58E-05,-6.04E-06,1.50E-05
1749,-3.28E-05,6.38E-06,3.58E-05,3.15E-05,-7.00E-06,1.27E-05
1750,-2.55E-05,2.14E-06,1.86E-05,2.64E-06,-9.01E-06,1.55E-05
1751,-1.29E-05,-1.69E-06,2.68E-08,2.37E-05,-1.11E-05,2.02E-05
1752,-5.67E-06,1.87E-07,1.21E-06,0.000102161,-1.41E-05,2.58E-05
1753,-2.82E-06,5.00E-06,1.22E-05,0.000165424,-1.57E-05,2.66E-05
1754,-4.89E-06,4.90E-06,2.38E-05,0.000129709,-1.51E-05,1.92E-05
1755,-8.69E-06,-6.92E-07,3.23E-05,3.97E-05,-1.44E-05,1.07E-05
1756,-4.72E-06,-4.61E-06,2.86E-05,-1.49E-05,-1.60E-05,9.42E-06
1757,5.44E-06,-3.16E-06,1.71E-05,-1.47E-05,-1.81E-05,1.31E-05
1758,1.02E-05,4.65E-07,1.53E-05,4.35E-05,-1.74E-05,1.51E-05
1759,8.55E-06,2.86E-06,1.90E-05,0.000105661,-1.42E-05,1.19E-05
1760,4.10E-06,3.88E-06,2.06E-05,8.73E-05,-1.12E-05,5.48E-06
1761,9.21E-07,4.82E-06,2.48E-05,4.52E-06,-9.28E-06,3.28E-06
1762,6.35E-06,5.06E-06,2.58E-05,-4.00E-05,-7.23E-06,7.96E-06
1763,1.67E-05,5.73E-06,2.12E-05,-3.12E-05,-4.56E-06,1.55E-05
1764,1.83E-05,9.93E-06,2.22E-05,3.70E-05,-2.14E-06,1.91E-05
1765,1.02E-05,1.50E-05,2.53E-05,0.000121977,-1.92E-06,1.83E-05
1766,-5.12E-06,1.32E-05,2.60E-05,0.000113288,-4.71E-06,1.34E-05
1767,-1.51E-05,7.29E-06,3.18E-05,7.09E-06,-8.08E-06,1.10E-05
1768,-5.79E-06,4.21E-06,3.49E-05,-5.90E-05,-8.79E-06,1.61E-05
1769,6.48E-06,5.03E-06,3.19E-05,-3.52E-05,-7.04E-06,1.82E-05
1770,3.39E-06,8.13E-06,2.45E-05,5.67E-06,-4.03E-06,1.59E-05
1771,1.79E-06,1.19E-05,2.46E-05,-5.58E-07,5.99E-08,1.71E-05
1772,5.95E-06,1.56E-05,3.34E-05,1.53E-06,3.83E-06,1.96E-05
1773,7.39E-06,1.93E-05,3.65E-05,6.33E-05,2.61E-06,1.79E-05
1774,4.56E-06,2.29E-05,3.35E-05,0.000117455,-2.46E-06,1.02E-05
1775,-7.68E-06,2.33E-05,3.13E-05,7.81E-05,-5.57E-06,3.81E-06
1776,-2.27E-05,2.10E-05,2.93E-05,1.65E-05,-5.11E-06,5.44E-06
1777,-2.58E-05,1.77E-05,1.57E-05,-1.29E-05,-4.26E-06,1.31E-05
1778,-1.73E-05,1.52E-05,4.18E-06,4.18E-06,-6.38E-06,1.71E-05
1779,-8.86E-06,1.55E-05,8.01E-06,8.32E-05,-1.00E-05,1.62E-05
1780,-1.00E-05,1.81E-05,1.46E-05,0.000158453,-1.16E-05,1.35E-05
1781,-1.97E-05,1.96E-05,1.83E-05,0.000135352,-1.03E-05,1.10E-05
1782,-2.66E-05,1.87E-05,2.07E-05,4.80E-05,-8.61E-06,1.10E-05
1783,-2.12E-05,1.67E-05,1.98E-05,-1.01E-05,-8.03E-06,1.42E-05
1784,-8.00E-06,1.51E-05,1.48E-05,-3.70E-06,-9.40E-06,1.88E-05
1785,2.27E-08,1.52E-05,1.56E-05,7.04E-05,-1.13E-05,2.16E-05
1786,-9.52E-07,1.75E-05,2.37E-05,0.00014606,-1.06E-05,2.20E-05
1787,-9.57E-06,1.98E-05,3.40E-05,0.000134389,-9.10E-06,1.97E-05
1788,-1.98E-05,1.89E-05,4.34E-05,5.56E-05,-1.07E-05,1.83E-05
1789,-1.87E-05,1.74E-05,4.45E-05,1.35E-05,-1.46E-05,2.04E-05
1790,-4.48E-06,1.87E-05,3.61E-05,2.23E-05,-1.62E-05,2.16E-05
1791,7.55E-06,2.40E-05,3.58E-05,8.53E-05,-1.27E-05,1.98E-05
1792,8.99E-06,2.83E-05,4.40E-05,0.000160283,-7.02E-06,1.75E-05
1793,-2.90E-06,2.73E-05,4.76E-05,0.000141068,-3.50E-06,1.21E-05
1794,-1.76E-05,2.08E-05,4.80E-05,3.54E-05,-1.97E-06,5.80E-06
1795,-1.35E-05,1.67E-05,4.19E-05,-2.12E-05,-3.08E-06,5.57E-06
1796,-3.28E-06,1.76E-05,3.37E-05,-6.92E-06,-8.08E-06,1.05E-05
1797,-2.89E-06,1.59E-05,3.01E-05,2.77E-06,-1.09E-05,1.34E-05
1798,3.34E-06,1.28E-05,3.58E-05,-2.71E-05,-9.20E-06,1.26E-05
1799,1.71E-05,1.30E-05,4.33E-05,-2.86E-05,-6.97E-06,9.54E-06
1800,2.43E-05,1.62E-05,4.50E-05,3.45E-05,-4.64E-06,9.25E-06
1801,1.77E-05,1.90E-05,4.60E-05,8.45E-05,-1.11E-06,9.22E-06
1802,-2.76E-06,1.99E-05,4.84E-05,3.85E-05,1.51E-06,3.63E-06
1803,-2.33E-05,1.94E-05,5.02E-05,-2.58E-05,8.48E-07,-2.30E-06
1804,-2.51E-05,1.89E-05,4.18E-05,-5.58E-05,-1.96E-06,-1.36E-06
1805,-1.49E-05,1.64E-05,3.20E-05,-3.57E-05,-5.27E-06,3.35E-06
1806,-5.60E-06,1.49E-05,3.23E-05,4.89E-05,-7.36E-06,7.46E-06
1807,-5.84E-06,1.65E-05,3.80E-05,0.000126359,-8.63E-06,9.12E-06
1808,-1.76E-05,1.63E-05,4.34E-05,0.00010247,-9.19E-06,7.14E-06
1809,-2.82E-05,1.41E-05,4.28E-05,1.74E-05,-9.62E-06,4.93E-06
1810,-2.42E-05,1.28E-05,3.28E-05,-3.44E-05,-8.85E-06,6.64E-06
1811,-1.37E-05,1.30E-05,2.09E-05,-1.82E-05,-7.67E-06,1.13E-05
1812,-1.21E-05,1.32E-05,1.97E-05,6.52E-05,-7.06E-06,1.37E-05
1813,-1.91E-05,1.30E-05,2.42E-05,0.00013887,-8.32E-06,1.43E-05
1814,-2.98E-05,1.12E-05,2.74E-05,0.000110878,-1.01E-05,1.51E-05
1815,-3.66E-05,7.81E-06,3.10E-05,1.98E-05,-9.95E-06,1.67E-05
1816,-3.04E-05,5.16E-06,2.53E-05,-2.05E-05,-8.78E-06,1.73E-05
1817,-1.65E-05,4.88E-06,9.86E-06,-3.57E-06,-9.46E-06,1.62E-05
1818,-9.50E-06,6.06E-06,8.73E-06,6.99E-05,-1.08E-05,1.54E-05
1819,-6.17E-06,6.27E-06,2.03E-05,0.000154746,-1.01E-05,1.36E-05
1820,-7.83E-06,4.68E-06,2.66E-05,0.000148232,-1.14E-05,6.10E-06
1821,-1.48E-05,2.52E-06,2.84E-05,4.99E-05,-1.34E-05,-5.73E-07
1822,-9.45E-06,1.45E-06,2.54E-05,-8.10E-06,-1.55E-05,2.14E-06
1823,2.12E-06,3.45E-06,2.03E-05,1.66E-05,-1.77E-05,9.30E-06
1824,2.88E-06,8.15E-06,1.53E-05,5.09E-05,-1.61E-05,1.32E-05
1825,2.72E-06,1.11E-05,1.56E-05,4.14E-05,-9.76E-06,1.43E-05
1826,6.02E-06,1.29E-05,2.25E-05,5.21E-05,-4.02E-06,1.46E-05
1827,1.01E-05,1.86E-05,2.64E-05,0.000115675,-2.87E-06,1.68E-05
1828,1.21E-05,2.39E-05,2.51E-05,0.000149419,-5.86E-06,1.51E-05
1829,1.94E-06,2.28E-05,2.46E-05,8.17E-05,-8.92E-06,7.44E-06
1830,-9.82E-06,1.77E-05,3.02E-05,3.50E-06,-9.57E-06,2.57E-06
1831,-4.04E-06,1.39E-05,2.69E-05,-2.73E-05,-1.25E-05,3.05E-06
1832,8.45E-06,1.31E-05,1.73E-05,-4.18E-07,-1.85E-05,5.49E-06
1833,1.32E-05,1.49E-05,1.72E-05,8.20E-05,-2.40E-05,6.69E-06
1834,1.04E-05,1.76E-05,2.43E-05,0.000142747,-2.57E-05,6.11E-06
1835,5.05E-06,1.80E-05,3.21E-05,0.000104061,-2.42E-05,5.11E-06
1836,-2.14E-06,1.84E-05,3.49E-05,2.21E-05,-2.06E-05,7.67E-06
1837,-5.72E-06,2.06E-05,2.91E-05,-1.60E-05,-1.24E-05,1.34E-05
1838,-2.19E-06,2.10E-05,1.65E-05,-4.96E-07,1.28E-06,1.80E-05
1839,3.60E-06,1.68E-05,1.13E-05,6.64E-05,1.17E-05,1.85E-05
1840,5.97E-06,1.32E-05,1.61E-05,0.000129674,1.13E-05,1.61E-05
1841,-1.39E-06,1.28E-05,2.59E-05,0.000104678,5.33E-06,1.17E-05
1842,-1.27E-05,1.33E-05,3.52E-05,1.27E-05,-4.96E-07,8.53E-06
1843,-1.26E-05,1.34E-05,3.29E-05,-3.77E-05,-4.31E-06,8.84E-06
1844,-3.34E-06,1.55E-05,2.22E-05,-3.32E-05,-4.52E-06,9.32E-06
1845,-1.00E-06,2.18E-05,2.43E-05,3.29E-05,-3.06E-06,8.97E-06
1846,-9.02E-06,2.72E-05,3.27E-05,0.000120785,-4.72E-06,9.53E-06
1847,-2.54E-05,2.48E-05,3.26E-05,0.000122043,-8.54E-06,7.53E-06
1848,-3.69E-05,1.78E-05,3.51E-05,3.48E-05,-9.26E-06,2.27E-06
1849,-2.94E-05,1.54E-05,3.83E-05,-1.93E-05,-6.52E-06,3.23E-06
1850,-1.54E-05,1.53E-05,2.89E-05,-4.01E-06,-6.94E-06,1.16E-05
1851,-1.17E-05,1.48E-05,1.34E-05,2.22E-05,-1.03E-05,1.75E-05
1852,-1.21E-05,1.31E-05,1.03E-05,1.43E-05,-9.29E-06,1.92E-05
1853,-9.96E-06,1.01E-05,1.64E-05,2.38E-05,-6.22E-06,2.14E-05
1854,-4.88E-06,1.01E-05,2.18E-05,8.48E-05,-4.48E-06,2.26E-05
1855,-2.80E-06,1.29E-05,2.34E-05,0.000132451,-2.91E-06,1.95E-05
1856,-1.23E-05,1.25E-05,2.49E-05,8.67E-05,-3.29E-06,1.52E-05
1857,-2.26E-05,9.26E-06,2.62E-05,2.33E-05,-7.47E-06,1.60E-05
1858,-1.75E-05,8.02E-06,1.55E-05,-5.63E-06,-1.05E-05,2.13E-05
1859,-7.53E-06,9.78E-06,3.05E-06,7.16E-06,-8.55E-06,2.47E-05
1860,-5.16E-06,1.10E-05,6.02E-06,7.62E-05,-4.15E-06,2.67E-05
1861,-1.09E-05,1.13E-05,1.61E-05,0.000141418,-3.54E-06,2.50E-05
1862,-1.95E-05,1.04E-05,2.38E-05,0.000114142,-9.60E-06,1.70E-05
1863,-2.32E-05,7.47E-06,3.01E-05,3.05E-05,-1.54E-05,9.17E-06
1864,-1.41E-05,3.38E-06,3.01E-05,-2.05E-05,-1.42E-05,8.59E-06
1865,9.06E-07,1.69E-06,2.28E-05,-9.36E-06,-1.00E-05,1.24E-05
1866,7.31E-06,5.43E-06,2.15E-05,6.93E-05,-9.42E-06,1.44E-05
1867,3.49E-06,1.10E-05,2.59E-05,0.000150263,-1.21E-05,1.25E-05
1868,-3.47E-06,1.27E-05,2.95E-05,0.000138412,-1.41E-05,7.60E-06
1869,-6.46E-06,1.16E-05,3.11E-05,5.45E-05,-1.22E-05,4.07E-06
1870,-3.80E-06,1.16E-05,2.57E-05,6.54E-06,-9.44E-06,4.93E-06
1871,2.73E-06,1.22E-05,1.67E-05,1.12E-05,-1.17E-05,7.20E-06
1872,5.76E-06,1.43E-05,1.90E-05,7.93E-05,-1.95E-05,9.88E-06
1873,3.86E-06,1.65E-05,2.63E-05,0.00016423,-2.89E-05,1.34E-05
1874,-5.57E-06,1.61E-05,2.89E-05,0.000152111,-3.40E-05,1.22E-05
1875,-1.62E-05,1.36E-05,3.24E-05,5.10E-05,-3.51E-05,7.46E-06
1876,-1.13E-05,1.33E-05,3.14E-05,-5.90E-06,-3.51E-05,8.41E-06
1877,-2.75E-06,1.51E-05,2.37E-05,1.37E-05,-3.02E-05,1.19E-05
1878,-6.98E-06,1.77E-05,1.61E-05,3.93E-05,-1.68E-05,1.19E-05
1879,-1.01E-05,1.85E-05,1.60E-05,2.15E-05,4.46E-07,8.11E-06
1880,-9.22E-06,1.84E-05,2.11E-05,2.84E-05,1.29E-05,3.52E-06
1881,-5.03E-06,2.05E-05,2.35E-05,9.60E-05,1.83E-05,6.11E-06
1882,-2.05E-06,2.33E-05,2.38E-05,0.000146445,1.81E-05,8.98E-06
1883,-1.60E-05,2.15E-05,2.67E-05,9.34E-05,1.60E-05,6.87E-06
1884,-3.06E-05,1.39E-05,2.78E-05,2.15E-05,1.35E-05,4.88E-06
1885,-2.28E-05,6.90E-06,1.36E-05,-1.46E-06,1.02E-05,4.71E-06
1886,-2.36E-06,7.06E-06,8.91E-07,3.04E-05,9.23E-06,5.64E-06
1887,1.29E-05,1.24E-05,7.03E-06,0.000113238,9.79E-06,8.00E-06
1888,1.61E-05,1.52E-05,1.90E-05,0.000172119,7.08E-06,1.21E-05
1889,1.12E-05,1.43E-05,2.87E-05,0.000126615,-7.73E-07,1.48E-05
1890,5.17E-06,1.31E-05,3.09E-05,3.18E-05,-6.95E-06,1.65E-05
1891,6.11E-06,1.33E-05,2.10E-05,-1.51E-05,-6.62E-06,1.90E-05
1892,1.25E-05,1.45E-05,9.01E-06,2.87E-06,-4.61E-06,2.06E-05
1893,1.57E-05,1.69E-05,1.08E-05,7.51E-05,-6.49E-06,1.91E-05
1894,1.19E-05,1.86E-05,2.16E-05,0.000134714,-1.29E-05,1.61E-05
1895,3.12E-06,1.67E-05,3.23E-05,9.82E-05,-1.96E-05,1.40E-05
1896,-3.99E-06,1.20E-05,3.95E-05,-3.23E-07,-2.13E-05,1.27E-05
1897,-4.82E-07,7.43E-06,3.64E-05,-4.32E-05,-1.83E-05,1.45E-05
1898,8.63E-06,3.74E-06,2.23E-05,-1.82E-05,-1.38E-05,1.95E-05
1899,9.54E-06,2.99E-06,1.54E-05,6.60E-05,-8.64E-06,2.07E-05
1900,1.68E-06,5.08E-06,2.56E-05,0.000151832,-6.11E-06,1.70E-05
1901,-1.26E-05,3.10E-06,3.90E-05,0.000137495,-7.34E-06,1.01E-05
1902,-2.39E-05,-1.52E-06,4.90E-05,4.15E-05,-8.31E-06,7.01E-06
1903,-1.92E-05,2.76E-07,4.91E-05,-5.82E-06,-6.91E-06,1.55E-05
1904,-1.18E-05,6.12E-06,4.14E-05,2.03E-05,-5.77E-06,2.34E-05
1905,-1.37E-05,8.99E-06,3.33E-05,4.06E-05,-4.88E-06,2.21E-05
1906,-1.17E-05,7.82E-06,3.42E-05,9.02E-06,-4.89E-06,1.76E-05
1907,-9.05E-06,9.05E-06,4.09E-05,5.81E-06,-5.11E-06,1.30E-05
1908,-1.09E-05,1.73E-05,4.14E-05,7.87E-05,-3.95E-06,1.05E-05
1909,-1.49E-05,2.29E-05,3.73E-05,0.000137813,-4.95E-06,6.93E-06
1910,-2.46E-05,1.93E-05,3.27E-05,8.43E-05,-6.54E-06,2.37E-06
1911,-3.27E-05,1.40E-05,3.05E-05,6.93E-06,-7.85E-06,4.14E-06
1912,-2.86E-05,1.34E-05,1.97E-05,-2.16E-05,-7.38E-06,1.03E-05
1913,-1.97E-05,1.48E-05,1.07E-05,9.07E-06,-5.52E-06,1.31E-05
1914,-1.32E-05,1.56E-05,1.32E-05,9.39E-05,-4.96E-06,1.18E-05
1915,-1.52E-05,1.69E-05,1.93E-05,0.000158267,-7.29E-06,9.62E-06
1916,-2.59E-05,1.77E-05,2.48E-05,0.000123013,-1.10E-05,8.01E-06
1917,-3.37E-05,1.69E-05,2.85E-05,3.55E-05,-1.12E-05,8.36E-06
1918,-2.70E-05,1.49E-05,2.51E-05,-1.01E-05,-8.72E-06,1.09E-05
1919,-1.28E-05,1.40E-05,1.86E-05,1.07E-05,-9.39E-06,1.36E-05
1920,-3.33E-06,1.36E-05,2.33E-05,9.32E-05,-1.27E-05,1.48E-05
1921,5.31E-07,1.02E-05,3.21E-05,0.000169837,-1.17E-05,1.17E-05
1922,-1.58E-06,2.25E-06,3.61E-05,0.000146944,-6.52E-06,5.52E-06
1923,-6.81E-06,-4.09E-06,3.90E-05,4.79E-05,-1.15E-06,5.15E-06
1924,-3.38E-06,-3.13E-06,3.76E-05,-8.14E-06,1.15E-08,1.10E-05
1925,8.05E-06,3.19E-06,2.76E-05,-5.57E-06,-2.71E-06,1.56E-05
1926,1.29E-05,1.11E-05,2.56E-05,6.24E-05,-5.41E-06,1.77E-05
1927,9.90E-06,1.47E-05,3.32E-05,0.000157241,-6.70E-06,1.59E-05
1928,6.69E-07,1.20E-05,3.76E-05,0.000156673,-6.25E-06,4.76E-06
1929,-9.48E-06,5.89E-06,4.15E-05,5.08E-05,-4.68E-06,-4.73E-06
1930,-5.84E-06,1.17E-06,4.51E-05,-1.76E-05,-9.45E-07,1.99E-06
1931,2.21E-06,1.89E-06,4.17E-05,-1.29E-06,-7.09E-07,1.27E-05
