Time_Index,DELTOID_Affected,DELTOID_NonAffected,BICEPS_Affected,BICEPS_NonAffected,FOREARM_Affected,FOREARM_NonAffected
1,-9.04E-06,1.64E-05,2.04E-05,-1.65E-05,-1.10E-05,1.66E-05
2,4.70E-06,1.64E-05,1.75E-05,6.00E-05,-1.22E-05,1.76E-05
3,1.07E-05,1.68E-05,2.11E-05,0.000143466,-1.29E-05,1.46E-05
4,7.76E-06,1.46E-05,2.53E-05,0.00012865,-1.15E-05,1.12E-05
5,-5.01E-07,1.03E-05,2.74E-05,3.27E-05,-9.37E-06,1.16E-05
6,-2.96E-06,8.06E-06,2.45E-05,-4.23E-05,-8.69E-06,1.55E-05
7,3.73E-06,9.12E-06,1.78E-05,-5.08E-05,-9.27E-06,1.79E-05
8,8.78E-06,9.92E-06,1.57E-05,1.44E-05,-9.15E-06,1.55E-05
9,6.94E-06,9.21E-06,1.84E-05,0.000102057,-8.14E-06,9.22E-06
10,1.80E-07,9.19E-06,1.89E-05,0.000108453,-7.89E-06,1.54E-06
11,-9.24E-06,9.96E-06,1.79E-05,2.47E-05,-8.48E-06,-1.95E-06
12,-1.47E-05,1.02E-05,1.46E-05,-4.33E-05,-8.93E-06,2.45E-06
13,-1.06E-05,1.00E-05,9.10E-06,-4.98E-05,-8.79E-06,8.81E-06
14,-4.82E-06,1.15E-05,9.90E-06,1.67E-05,-8.54E-06,9.73E-06
15,-3.39E-06,1.49E-05,1.77E-05,0.000119761,-8.57E-06,8.71E-06
16,-5.64E-06,1.79E-05,2.28E-05,0.00014231,-8.54E-06,7.57E-06
17,-1.19E-05,1.55E-05,2.53E-05,5.46E-05,-8.37E-06,4.98E-06
18,-1.32E-05,9.13E-06,2.62E-05,-1.69E-05,-9.55E-06,5.92E-06
19,-6.76E-06,6.67E-06,2.45E-05,-4.24E-06,-1.26E-05,9.89E-06
20,-5.94E-06,8.87E-06,2.03E-05,3.01E-05,-1.78E-05,1.20E-05
21,-7.35E-06,1.17E-05,1.95E-05,2.61E-05,-2.12E-05,1.23E-05
22,-2.15E-06,1.40E-05,2.23E-05,3.58E-05,-1.86E-05,1.24E-05
23,5.95E-06,1.56E-05,2.44E-05,0.000114679,-1.33E-05,1.37E-05
24,9.90E-06,1.67E-05,2.70E-05,0.00019293,-1.21E-05,1.19E-05
25,4.34E-06,1.66E-05,2.97E-05,0.000161483,-1.49E-05,5.97E-06
26,-6.02E-06,1.47E-05,3.19E-05,7.08E-05,-1.70E-05,6.81E-07
27,-7.12E-06,1.21E-05,2.66E-05,9.84E-06,-1.80E-05,5.55E-07
28,-1.71E-07,1.06E-05,1.86E-05,1.20E-05,-1.86E-05,4.97E-06
29,2.03E-06,1.06E-05,2.04E-05,8.58E-05,-1.84E-05,1.07E-05
30,-3.67E-06,1.13E-05,2.74E-05,0.000166871,-1.76E-05,1.20E-05
31,-1.08E-05,1.18E-05,2.93E-05,0.000152667,-1.85E-05,7.44E-06
32,-1.02E-05,1.24E-05,2.73E-05,5.75E-05,-1.93E-05,4.96E-06
33,9.96E-07,1.37E-05,2.49E-05,-2.08E-05,-1.72E-05,8.42E-06
34,1.52E-05,1.49E-05,2.29E-05,-3.29E-05,-1.25E-05,1.35E-05
35,2.10E-05,1.51E-05,2.70E-05,3.31E-05,-7.57E-06,1.58E-05
36,1.76E-05,1.50E-05,3.41E-05,0.000123431,-2.74E-06,1.54E-05
37,8.70E-06,1.57E-05,3.65E-05,0.000131273,4.33E-06,1.28E-05
38,-2.35E-06,1.69E-05,3.63E-05,4.53E-05,1.15E-05,1.09E-05
39,-9.04E-06,1.80E-05,3.31E-05,-3.04E-05,1.15E-05,1.45E-05
40,-7.36E-06,1.89E-05,2.50E-05,-4.93E-05,4.09E-06,2.28E-05
41,-5.64E-07,1.97E-05,2.40E-05,1.97E-06,-2.52E-06,2.94E-05
42,4.47E-06,2.02E-05,3.10E-05,9.19E-05,-4.89E-06,2.98E-05
43,-1.79E-07,1.84E-05,3.40E-05,0.00011041,-5.69E-06,2.23E-05
44,-1.37E-05,1.44E-05,3.20E-05,2.59E-05,-6.89E-06,1.45E-05
45,-2.12E-05,1.25E-05,2.63E-05,-4.24E-05,-9.09E-06,1.59E-05
46,-1.93E-05,1.28E-05,1.81E-05,-2.75E-05,-1.20E-05,2.06E-05
47,-1.97E-05,1.13E-05,1.22E-05,1.08E-05,-1.34E-05,2.15E-05
48,-1.86E-05,7.22E-06,1.42E-05,8.41E-06,-1.33E-05,2.12E-05
49,-1.23E-05,3.75E-06,2.05E-05,1.49E-05,-1.31E-05,2.21E-05
50,-7.39E-06,3.40E-06,2.16E-05,8.11E-05,-1.34E-05,2.28E-05
51,-7.22E-06,6.61E-06,1.83E-05,0.000141409,-1.00E-05,2.16E-05
52,-1.49E-05,1.18E-05,1.72E-05,9.68E-05,-1.40E-07,1.87E-05
53,-2.78E-05,1.55E-05,1.86E-05,3.90E-06,1.02E-05,1.58E-05
54,-2.99E-05,1.61E-05,1.59E-05,-4.19E-05,1.13E-05,1.58E-05
55,-1.76E-05,1.62E-05,1.29E-05,-1.69E-05,3.36E-06,1.67E-05
56,-5.59E-06,1.74E-05,1.73E-05,7.16E-05,-4.87E-06,1.65E-05
57,-3.94E-06,1.85E-05,2.50E-05,0.000154406,-8.05E-06,1.47E-05
58,-1.12E-05,1.78E-05,3.04E-05,0.000138318,-6.38E-06,9.71E-06
59,-1.78E-05,1.52E-05,3.15E-05,4.17E-05,-1.77E-06,4.47E-06
60,-1.46E-05,1.16E-05,2.72E-05,-3.66E-05,2.35E-06,5.54E-06
61,-3.95E-06,7.85E-06,2.22E-05,-4.47E-05,2.36E-06,1.21E-05
62,3.32E-06,5.61E-06,2.50E-05,2.57E-05,-9.52E-07,1.66E-05
63,5.33E-06,6.32E-06,3.24E-05,0.000114116,-4.60E-06,1.49E-05
64,4.84E-06,8.58E-06,3.68E-05,0.000114336,-7.25E-06,8.91E-06
65,2.07E-06,9.90E-06,3.71E-05,2.08E-05,-9.57E-06,5.06E-06
66,2.76E-06,9.89E-06,3.27E-05,-5.31E-05,-1.28E-05,8.24E-06
67,1.15E-05,9.25E-06,2.80E-05,-5.48E-05,-1.61E-05,1.42E-05
68,1.87E-05,9.22E-06,3.13E-05,2.20E-05,-1.76E-05,1.78E-05
69,1.99E-05,1.02E-05,3.70E-05,0.000130518,-1.78E-05,1.88E-05
70,1.34E-05,1.14E-05,4.03E-05,0.000144671,-1.73E-05,1.63E-05
71,8.16E-07,1.09E-05,4.67E-05,3.99E-05,-1.67E-05,1.12E-05
72,-2.79E-06,1.08E-05,4.73E-05,-4.98E-05,-1.44E-05,1.01E-05
73,6.71E-06,1.15E-05,3.71E-05,-4.82E-05,-9.93E-06,1.60E-05
74,1.51E-05,1.24E-05,2.64E-05,-1.23E-05,-4.25E-06,2.05E-05
75,1.72E-05,1.39E-05,2.52E-05,-1.11E-05,2.10E-06,1.99E-05
76,1.49E-05,1.58E-05,3.07E-05,-5.59E-06,6.74E-06,1.73E-05
77,1.19E-05,1.83E-05,3.44E-05,5.86E-05,7.49E-06,1.68E-05
78,9.41E-06,1.96E-05,3.35E-05,0.000124795,5.02E-06,1.68E-05
79,5.08E-07,1.81E-05,2.92E-05,8.98E-05,2.62E-06,1.29E-05
80,-1.20E-05,1.59E-05,2.54E-05,5.61E-06,5.67E-07,1.04E-05
81,-1.59E-05,1.41E-05,1.69E-05,-4.08E-05,-2.75E-06,1.34E-05
82,-1.16E-05,1.11E-05,8.23E-06,-2.32E-05,-6.17E-06,1.72E-05
83,-7.46E-06,9.63E-06,8.32E-06,6.44E-05,-6.83E-06,1.77E-05
84,-9.62E-06,1.11E-05,1.27E-05,0.000156385,-5.83E-06,1.57E-05
85,-1.87E-05,1.27E-05,1.57E-05,0.000149713,-5.74E-06,1.21E-05
86,-2.96E-05,1.17E-05,1.79E-05,5.95E-05,-7.20E-06,8.97E-06
87,-3.21E-05,9.88E-06,1.81E-05,-1.42E-05,-8.89E-06,8.56E-06
88,-2.41E-05,9.14E-06,1.38E-05,-2.46E-05,-1.08E-05,7.61E-06
89,-1.47E-05,9.06E-06,1.16E-05,3.79E-05,-1.35E-05,3.17E-06
90,-1.13E-05,8.75E-06,1.62E-05,0.000124267,-1.47E-05,5.92E-07
91,-1.37E-05,7.74E-06,2.58E-05,0.000130324,-1.23E-05,2.28E-06
92,-1.63E-05,7.05E-06,3.61E-05,4.13E-05,-7.48E-06,4.42E-06
93,-1.09E-05,8.03E-06,3.80E-05,-3.50E-05,-5.15E-06,6.41E-06
94,1.91E-07,1.14E-05,2.98E-05,-4.77E-05,-6.80E-06,1.15E-05
95,7.21E-06,1.48E-05,2.58E-05,1.43E-05,-8.96E-06,1.97E-05
96,1.02E-05,1.55E-05,3.15E-05,0.000116735,-1.04E-05,2.27E-05
97,8.19E-06,1.32E-05,3.59E-05,0.000143847,-1.24E-05,1.53E-05
98,-8.52E-07,1.05E-05,3.72E-05,5.63E-05,-1.29E-05,5.69E-06
99,-6.12E-06,1.07E-05,3.90E-05,-2.22E-05,-9.35E-06,6.61E-06
100,-7.68E-07,1.15E-05,3.69E-05,-1.01E-05,-7.29E-06,1.44E-05
101,4.52E-06,1.02E-05,3.14E-05,2.57E-05,-9.40E-06,1.57E-05
102,8.15E-06,8.94E-06,3.08E-05,1.21E-05,-1.10E-05,1.25E-05
103,1.51E-05,8.28E-06,3.60E-05,2.41E-06,-1.11E-05,9.74E-06
104,2.28E-05,8.21E-06,3.85E-05,6.17E-05,-1.09E-05,9.90E-06
105,2.17E-05,8.55E-06,3.67E-05,0.000130714,-1.12E-05,1.18E-05
106,7.14E-06,5.46E-06,3.67E-05,0.000100721,-1.07E-05,1.14E-05
107,-9.34E-06,1.48E-06,3.69E-05,2.05E-05,-1.02E-05,8.70E-06
108,-1.29E-05,2.09E-06,3.03E-05,-2.85E-05,-1.21E-05,7.53E-06
109,-6.57E-06,4.72E-06,2.14E-05,-1.96E-05,-1.56E-05,9.56E-06
110,-1.29E-06,6.90E-06,1.78E-05,5.79E-05,-1.78E-05,1.31E-05
111,-1.11E-06,9.61E-06,1.86E-05,0.000141377,-1.71E-05,1.34E-05
112,-7.18E-06,1.22E-05,2.28E-05,0.000129713,-1.42E-05,8.85E-06
113,-1.62E-05,1.33E-05,2.76E-05,4.02E-05,-1.24E-05,4.90E-06
114,-1.96E-05,1.34E-05,2.62E-05,-2.55E-05,-1.60E-05,5.91E-06
115,-1.54E-05,1.42E-05,1.89E-05,-2.22E-05,-2.34E-05,1.04E-05
116,-1.06E-05,1.64E-05,1.68E-05,5.27E-05,-2.68E-05,1.38E-05
117,-1.12E-05,1.88E-05,2.06E-05,0.000143248,-2.38E-05,1.20E-05
118,-1.97E-05,1.99E-05,2.41E-05,0.000147194,-1.94E-05,6.84E-06
119,-2.90E-05,1.96E-05,2.67E-05,5.77E-05,-1.61E-05,6.05E-06
120,-2.66E-05,1.88E-05,2.68E-05,-1.45E-05,-1.11E-05,1.09E-05
121,-1.41E-05,1.65E-05,2.35E-05,-2.24E-05,-3.10E-06,1.58E-05
122,-4.85E-06,1.42E-05,2.56E-05,4.27E-05,3.98E-06,1.57E-05
123,-5.49E-06,1.33E-05,3.30E-05,0.000145771,6.32E-06,1.02E-05
124,-1.45E-05,1.26E-05,3.60E-05,0.000171101,5.06E-06,4.46E-06
125,-2.50E-05,1.16E-05,3.71E-05,8.38E-05,3.96E-06,4.31E-06
126,-2.09E-05,1.22E-05,3.87E-05,5.97E-06,2.55E-06,1.07E-05
127,-4.88E-06,1.64E-05,3.46E-05,7.40E-06,5.46E-07,1.53E-05
128,7.47E-07,2.16E-05,2.54E-05,3.24E-05,-2.41E-06,1.43E-05
129,-5.20E-06,2.17E-05,2.52E-05,2.42E-05,-8.67E-06,1.35E-05
130,-8.00E-06,1.71E-05,3.72E-05,3.41E-05,-1.49E-05,1.29E-05
131,-2.15E-06,1.56E-05,4.62E-05,0.000111916,-1.55E-05,1.11E-05
132,2.36E-06,1.74E-05,4.34E-05,0.000186868,-1.18E-05,8.89E-06
133,-4.67E-06,1.63E-05,3.78E-05,0.00015015,-8.73E-06,7.14E-06
134,-1.62E-05,1.30E-05,3.59E-05,5.24E-05,-8.50E-06,8.75E-06
135,-1.47E-05,1.02E-05,2.92E-05,-1.63E-05,-1.06E-05,1.31E-05
136,-4.14E-06,8.11E-06,1.85E-05,-1.80E-05,-1.24E-05,1.60E-05
137,4.58E-07,7.52E-06,1.54E-05,6.20E-05,-1.25E-05,1.50E-05
138,-3.55E-06,8.54E-06,1.91E-05,0.000151397,-1.26E-05,9.47E-06
139,-1.19E-05,8.71E-06,2.40E-05,0.000140101,-1.20E-05,3.30E-06
140,-1.91E-05,6.95E-06,2.63E-05,4.39E-05,-9.86E-06,2.00E-06
141,-1.91E-05,5.61E-06,2.35E-05,-3.05E-05,-9.15E-06,5.64E-06
142,-1.23E-05,6.91E-06,1.73E-05,-2.96E-05,-1.16E-05,9.35E-06
143,-7.12E-06,1.05E-05,1.62E-05,4.85E-05,-1.40E-05,9.99E-06
144,-7.22E-06,1.41E-05,2.13E-05,0.000132711,-1.40E-05,8.18E-06
145,-1.26E-05,1.49E-05,2.63E-05,0.000115333,-1.38E-05,6.04E-06
146,-1.82E-05,1.23E-05,2.96E-05,5.24E-06,-1.61E-05,8.73E-06
147,-1.50E-05,8.72E-06,2.90E-05,-7.47E-05,-1.97E-05,1.86E-05
148,-2.70E-06,6.56E-06,2.39E-05,-8.23E-05,-2.21E-05,2.80E-05
149,6.14E-06,7.28E-06,2.49E-05,-2.18E-05,-2.18E-05,2.96E-05
150,4.02E-06,9.67E-06,3.42E-05,7.36E-05,-1.84E-05,2.63E-05
151,-6.75E-06,8.78E-06,4.25E-05,9.71E-05,-1.08E-05,2.16E-05
152,-1.90E-05,3.63E-06,4.71E-05,8.11E-06,-2.87E-06,1.88E-05
153,-1.86E-05,1.11E-06,4.52E-05,-7.62E-05,3.43E-06,1.72E-05
154,-7.71E-06,4.85E-06,3.58E-05,-7.31E-05,9.64E-06,1.33E-05
155,-4.62E-06,9.12E-06,2.46E-05,-4.02E-05,9.75E-06,9.03E-06
156,-5.66E-06,1.03E-05,2.04E-05,-5.31E-05,2.74E-06,5.95E-06
157,-3.59E-06,9.15E-06,2.28E-05,-5.94E-05,-5.54E-06,6.24E-06
158,1.34E-06,7.66E-06,2.63E-05,1.09E-05,-1.21E-05,9.14E-06
159,5.08E-06,8.33E-06,2.85E-05,9.69E-05,-1.54E-05,9.66E-06
160,-1.19E-06,8.66E-06,2.93E-05,8.13E-05,-1.21E-05,8.18E-06
161,-1.52E-05,8.31E-06,2.95E-05,7.18E-06,-4.33E-06,9.75E-06
162,-2.26E-05,9.00E-06,2.22E-05,-3.41E-05,2.07E-06,1.45E-05
163,-1.80E-05,1.05E-05,1.34E-05,-8.93E-06,2.86E-06,1.83E-05
164,-9.78E-06,1.19E-05,1.37E-05,8.60E-05,-1.39E-06,1.99E-05
165,-6.06E-06,1.15E-05,1.63E-05,0.000179968,-6.35E-06,1.87E-05
166,-7.86E-06,1.02E-05,1.62E-05,0.000168215,-9.05E-06,1.54E-05
167,-1.10E-05,9.90E-06,1.66E-05,7.08E-05,-8.27E-06,1.41E-05
168,-1.06E-05,1.09E-05,1.63E-05,-5.84E-07,-4.83E-06,1.67E-05
169,-3.61E-06,1.23E-05,1.50E-05,2.78E-06,-1.93E-06,2.03E-05
170,5.48E-06,1.29E-05,1.92E-05,7.62E-05,-3.28E-06,2.22E-05
171,9.14E-06,1.32E-05,2.63E-05,0.000159612,-7.57E-06,2.06E-05
172,3.04E-06,1.27E-05,2.89E-05,0.000155679,-1.07E-05,1.61E-05
173,-9.82E-06,1.11E-05,2.95E-05,6.14E-05,-9.57E-06,1.29E-05
174,-1.80E-05,1.08E-05,2.79E-05,-1.36E-05,-5.51E-06,1.48E-05
175,-1.46E-05,1.29E-05,2.14E-05,-2.45E-05,-3.80E-06,1.90E-05
176,-9.10E-06,1.60E-05,2.01E-05,3.39E-05,-6.91E-06,2.02E-05
177,-9.13E-06,1.86E-05,2.70E-05,0.000125213,-8.41E-06,1.75E-05
178,-1.43E-05,2.09E-05,3.46E-05,0.00014421,-5.33E-06,1.22E-05
179,-1.91E-05,2.06E-05,3.98E-05,6.42E-05,-4.70E-06,9.24E-06
180,-1.32E-05,1.79E-05,3.72E-05,-5.30E-06,-8.99E-06,1.32E-05
181,-2.12E-06,1.53E-05,2.81E-05,-3.37E-06,-1.31E-05,1.63E-05
182,-5.12E-06,1.44E-05,2.03E-05,2.15E-05,-1.37E-05,1.25E-05
183,-1.36E-05,1.41E-05,1.86E-05,1.40E-05,-1.28E-05,9.56E-06
184,-1.32E-05,1.41E-05,2.11E-05,1.86E-05,-1.41E-05,1.20E-05
185,-6.93E-06,1.66E-05,2.15E-05,8.37E-05,-1.55E-05,1.61E-05
186,-2.96E-06,2.06E-05,1.96E-05,0.000149373,-1.15E-05,1.52E-05
187,-1.25E-05,2.09E-05,1.98E-05,0.000117522,-4.33E-06,1.09E-05
188,-2.73E-05,1.57E-05,2.28E-05,3.46E-05,-1.55E-06,9.78E-06
189,-2.51E-05,1.04E-05,2.10E-05,-1.36E-05,-5.10E-06,1.23E-05
190,-8.32E-06,9.73E-06,1.86E-05,7.26E-06,-1.09E-05,1.50E-05
191,1.92E-06,1.36E-05,2.37E-05,0.000107079,-1.39E-05,1.67E-05
192,-1.59E-07,1.67E-05,3.15E-05,0.00021374,-1.26E-05,1.56E-05
193,-9.51E-06,1.54E-05,3.67E-05,0.0002146,-8.55E-06,1.24E-05
194,-1.92E-05,1.26E-05,3.96E-05,0.000120673,-2.74E-06,1.12E-05
195,-2.05E-05,1.24E-05,3.97E-05,4.19E-05,3.95E-06,1.26E-05
196,-1.24E-05,1.43E-05,3.88E-05,3.89E-05,7.65E-06,1.39E-05
197,-5.33E-06,1.47E-05,4.30E-05,0.000116812,3.85E-06,1.39E-05
198,-5.42E-06,1.26E-05,4.85E-05,0.000207991,-4.21E-06,1.29E-05
199,-1.11E-05,9.13E-06,5.05E-05,0.000202761,-9.37E-06,9.78E-06
200,-1.74E-05,8.22E-06,5.31E-05,0.000100304,-1.07E-05,7.28E-06
201,-1.34E-05,1.24E-05,5.38E-05,2.07E-05,-1.10E-05,9.89E-06
202,3.14E-06,1.69E-05,4.61E-05,1.38E-05,-1.14E-05,1.47E-05
203,1.83E-05,1.71E-05,4.01E-05,8.04E-05,-1.31E-05,1.63E-05
204,2.14E-05,1.62E-05,4.54E-05,0.000174197,-1.42E-05,1.46E-05
205,1.09E-05,1.73E-05,5.54E-05,0.000181108,-1.32E-05,1.06E-05
206,-4.02E-06,1.67E-05,6.24E-05,7.80E-05,-1.34E-05,8.70E-06
207,-7.42E-06,1.35E-05,6.28E-05,-1.19E-05,-1.55E-05,1.42E-05
208,-6.52E-07,1.44E-05,5.81E-05,-1.86E-05,-1.72E-05,2.07E-05
209,2.25E-06,1.89E-05,5.09E-05,5.59E-06,-1.78E-05,2.03E-05
210,3.80E-06,1.85E-05,4.58E-05,-3.60E-06,-1.74E-05,1.50E-05
211,8.71E-06,1.27E-05,4.71E-05,-1.60E-06,-1.62E-05,1.05E-05
212,1.18E-05,9.74E-06,4.82E-05,6.63E-05,-1.46E-05,1.15E-05
213,9.23E-06,1.12E-05,4.54E-05,0.000132783,-1.58E-05,1.49E-05
214,-5.64E-06,1.08E-05,4.17E-05,9.48E-05,-1.95E-05,1.43E-05
215,-2.50E-05,7.67E-06,3.67E-05,1.04E-05,-2.23E-05,1.10E-05
216,-3.05E-05,4.73E-06,2.55E-05,-3.14E-05,-2.50E-05,1.14E-05
217,-2.17E-05,3.28E-06,1.45E-05,-5.79E-06,-2.80E-05,1.40E-05
218,-1.36E-05,3.47E-06,1.51E-05,8.48E-05,-2.85E-05,1.46E-05
219,-1.59E-05,4.97E-06,2.27E-05,0.000167849,-2.49E-05,1.29E-05
220,-2.70E-05,7.82E-06,2.92E-05,0.000149981,-1.83E-05,9.44E-06
221,-3.77E-05,1.08E-05,3.13E-05,5.96E-05,-1.11E-05,7.96E-06
222,-3.77E-05,1.22E-05,2.77E-05,-3.69E-06,-6.91E-06,1.00E-05
223,-2.70E-05,1.23E-05,2.16E-05,-3.27E-06,-8.50E-06,1.25E-05
224,-1.56E-05,1.18E-05,2.27E-05,6.46E-05,-1.36E-05,1.36E-05
225,-1.05E-05,1.11E-05,2.89E-05,0.000152533,-1.68E-05,1.34E-05
226,-1.15E-05,1.08E-05,3.18E-05,0.000159682,-1.66E-05,1.07E-05
227,-1.50E-05,1.10E-05,3.21E-05,7.20E-05,-1.44E-05,9.21E-06
228,-1.44E-05,1.10E-05,2.99E-05,-4.47E-06,-1.23E-05,1.24E-05
229,-6.68E-06,1.20E-05,2.33E-05,-1.78E-05,-1.05E-05,1.61E-05
230,1.02E-06,1.56E-05,1.93E-05,4.58E-05,-8.39E-06,1.71E-05
231,2.38E-07,1.87E-05,1.99E-05,0.000151297,-8.30E-06,1.48E-05
232,-9.87E-06,1.78E-05,2.24E-05,0.000176779,-1.17E-05,6.94E-06
233,-1.93E-05,1.37E-05,2.80E-05,8.43E-05,-1.57E-05,-1.51E-06
234,-1.32E-05,1.06E-05,2.97E-05,-2.69E-06,-1.68E-05,-3.66E-06
235,5.19E-06,9.55E-06,2.61E-05,-5.60E-06,-1.46E-05,1.36E-06
236,1.74E-05,9.74E-06,2.52E-05,2.07E-05,-1.24E-05,8.69E-06
237,2.11E-05,9.74E-06,3.19E-05,4.67E-06,-1.05E-05,9.26E-06
238,2.20E-05,9.87E-06,3.56E-05,-7.34E-06,-6.58E-06,4.11E-06
239,2.06E-05,1.01E-05,3.08E-05,5.16E-05,-2.30E-06,4.40E-06
240,1.67E-05,8.43E-06,2.64E-05,0.000120443,-1.42E-06,8.92E-06
241,5.55E-06,6.02E-06,2.75E-05,8.41E-05,-4.70E-06,9.52E-06
242,-9.73E-06,5.90E-06,3.08E-05,-6.69E-06,-8.69E-06,8.76E-06
243,-1.57E-05,9.23E-06,2.73E-05,-5.62E-05,-9.48E-06,1.16E-05
244,-9.38E-06,1.22E-05,1.96E-05,-3.69E-05,-6.27E-06,1.75E-05
245,1.35E-06,1.37E-05,1.84E-05,5.20E-05,-2.50E-06,2.21E-05
246,7.57E-06,1.48E-05,2.19E-05,0.00014191,-1.40E-06,2.05E-05
247,3.71E-06,1.45E-05,2.37E-05,0.000132716,-3.70E-06,1.29E-05
248,-3.81E-06,1.36E-05,2.32E-05,4.28E-05,-6.63E-06,6.10E-06
249,-3.05E-06,1.37E-05,2.21E-05,-2.68E-05,-7.05E-06,6.86E-06
250,4.79E-06,1.57E-05,2.17E-05,-2.79E-05,-6.55E-06,1.33E-05
251,1.07E-05,2.01E-05,2.51E-05,4.67E-05,-7.34E-06,1.80E-05
252,1.27E-05,2.44E-05,2.90E-05,0.000141932,-7.43E-06,1.85E-05
253,1.08E-05,2.35E-05,2.78E-05,0.000148497,-4.55E-06,1.72E-05
254,2.60E-06,1.89E-05,2.49E-05,5.69E-05,-1.01E-06,1.58E-05
255,-3.60E-06,1.64E-05,2.10E-05,-1.41E-05,-3.18E-07,1.66E-05
256,2.53E-06,1.70E-05,1.37E-05,-1.40E-05,-2.95E-06,2.22E-05
257,1.26E-05,1.79E-05,1.35E-05,5.41E-05,-6.78E-06,2.86E-05
258,1.47E-05,1.66E-05,2.09E-05,0.000145689,-8.56E-06,2.91E-05
259,8.22E-06,1.36E-05,2.48E-05,0.000152625,-7.69E-06,2.28E-05
260,-1.05E-06,1.18E-05,2.68E-05,5.52E-05,-7.44E-06,1.55E-05
261,-5.91E-06,1.23E-05,2.57E-05,-2.23E-05,-9.05E-06,1.46E-05
262,-2.01E-06,1.46E-05,1.94E-05,-1.36E-05,-1.10E-05,1.77E-05
263,4.64E-06,1.71E-05,1.31E-05,1.64E-05,-1.03E-05,2.01E-05
264,1.12E-05,1.73E-05,1.42E-05,-1.05E-06,-6.10E-06,2.31E-05
265,1.94E-05,1.34E-05,2.24E-05,-8.36E-06,-3.86E-06,2.54E-05
266,2.38E-05,1.12E-05,2.86E-05,5.91E-05,-8.16E-06,2.58E-05
267,2.30E-05,1.30E-05,3.10E-05,0.00013377,-1.51E-05,2.56E-05
268,1.48E-05,1.51E-05,3.23E-05,0.000101433,-1.82E-05,2.51E-05
269,3.18E-06,1.51E-05,3.16E-05,8.96E-06,-1.60E-05,2.69E-05
270,1.40E-06,1.42E-05,2.24E-05,-5.43E-05,-1.21E-05,3.14E-05
271,7.26E-06,1.50E-05,1.24E-05,-5.77E-05,-7.62E-06,3.39E-05
272,7.50E-06,1.76E-05,1.21E-05,1.57E-05,-4.36E-07,3.01E-05
273,5.09E-07,1.87E-05,1.57E-05,0.000105265,7.58E-06,2.19E-05
274,-7.43E-06,1.64E-05,1.88E-05,9.89E-05,1.08E-05,1.56E-05
275,-1.35E-05,1.27E-05,2.21E-05,4.14E-06,7.80E-06,1.66E-05
276,-1.39E-05,9.70E-06,2.30E-05,-6.95E-05,2.77E-06,2.28E-05
277,-7.04E-06,8.27E-06,2.08E-05,-6.47E-05,-2.14E-06,2.65E-05
278,2.32E-06,8.77E-06,2.30E-05,1.86E-05,-6.52E-06,2.46E-05
279,5.87E-06,1.07E-05,2.88E-05,0.000112685,-8.64E-06,1.85E-05
280,-1.79E-06,1.19E-05,3.32E-05,0.000111785,-7.32E-06,1.00E-05
281,-1.58E-05,1.04E-05,3.76E-05,1.73E-05,-5.56E-06,5.43E-06
282,-2.30E-05,6.73E-06,3.75E-05,-5.31E-05,-7.62E-06,1.01E-05
283,-2.03E-05,5.16E-06,2.70E-05,-5.53E-05,-1.19E-05,1.90E-05
284,-1.71E-05,6.21E-06,1.93E-05,8.43E-06,-1.28E-05,2.33E-05
285,-1.66E-05,7.15E-06,2.22E-05,0.000103424,-9.91E-06,1.91E-05
286,-1.82E-05,7.66E-06,2.52E-05,0.000120777,-7.57E-06,8.19E-06
287,-2.04E-05,8.51E-06,2.83E-05,3.07E-05,-7.86E-06,-3.38E-07
288,-1.74E-05,9.66E-06,3.29E-05,-4.21E-05,-7.11E-06,1.58E-06
289,-1.44E-05,9.18E-06,3.31E-05,-2.58E-05,-1.67E-06,8.27E-06
290,-1.61E-05,7.17E-06,2.76E-05,1.79E-05,7.71E-06,1.19E-05
291,-1.53E-05,6.43E-06,2.41E-05,2.14E-05,1.87E-05,1.21E-05
292,-1.06E-05,5.76E-06,2.81E-05,2.65E-05,2.59E-05,1.10E-05
293,-5.67E-06,5.67E-06,3.10E-05,9.05E-05,2.46E-05,1.15E-05
294,-5.99E-06,8.23E-06,2.79E-05,0.000159063,1.73E-05,1.25E-05
295,-1.53E-05,9.78E-06,2.52E-05,0.000127088,7.11E-06,1.35E-05
296,-2.98E-05,9.02E-06,2.70E-05,4.64E-05,-6.66E-07,1.85E-05
297,-3.59E-05,8.45E-06,2.18E-05,6.03E-06,-9.36E-07,2.60E-05
298,-3.02E-05,9.13E-06,1.17E-05,2.62E-05,3.58E-06,2.92E-05
299,-1.95E-05,9.74E-06,1.11E-05,0.000106167,5.20E-06,2.59E-05
300,-1.11E-05,1.01E-05,1.76E-05,0.000186475,6.48E-07,2.00E-05
301,-1.24E-05,1.09E-05,2.35E-05,0.000172876,-6.12E-06,1.42E-05
302,-2.13E-05,1.28E-05,2.59E-05,7.66E-05,-1.12E-05,1.11E-05
303,-2.47E-05,1.55E-05,2.36E-05,-6.41E-06,-1.33E-05,1.31E-05
304,-1.68E-05,1.74E-05,1.72E-05,-2.20E-05,-1.39E-05,1.89E-05
305,-8.45E-06,1.72E-05,1.44E-05,4.57E-05,-1.45E-05,2.15E-05
306,-8.11E-06,1.70E-05,1.61E-05,0.000143002,-1.55E-05,1.52E-05
307,-1.43E-05,1.74E-05,1.80E-05,0.000159021,-1.59E-05,3.81E-06
308,-2.21E-05,1.65E-05,2.14E-05,7.10E-05,-1.44E-05,-2.31E-06
309,-2.26E-05,1.61E-05,2.52E-05,-1.59E-05,-1.21E-05,2.79E-06
310,-1.17E-05,1.75E-05,2.29E-05,-3.67E-05,-1.12E-05,1.19E-05
311,-5.93E-07,1.92E-05,1.97E-05,2.92E-05,-1.34E-05,1.52E-05
312,2.24E-06,1.96E-05,2.16E-05,0.000139161,-1.63E-05,1.20E-05
313,-6.14E-06,1.80E-05,2.53E-05,0.000164415,-1.67E-05,3.11E-06
314,-1.92E-05,1.47E-05,3.03E-05,6.61E-05,-1.61E-05,-4.27E-06
315,-2.48E-05,1.21E-05,3.21E-05,-2.94E-05,-1.52E-05,3.16E-07
316,-2.39E-05,1.12E-05,2.74E-05,-3.62E-05,-1.49E-05,9.19E-06
317,-2.60E-05,1.07E-05,2.14E-05,-3.35E-06,-1.53E-05,1.21E-05
318,-2.95E-05,9.09E-06,2.09E-05,-3.44E-06,-1.48E-05,1.22E-05
319,-2.63E-05,7.01E-06,2.65E-05,3.97E-06,-1.35E-05,1.42E-05
320,-1.68E-05,7.51E-06,3.02E-05,7.67E-05,-1.22E-05,1.68E-05
321,-9.41E-06,1.02E-05,2.84E-05,0.000151207,-1.05E-05,1.49E-05
322,-1.56E-05,1.11E-05,2.71E-05,0.000117838,-9.25E-06,7.79E-06
323,-2.81E-05,9.39E-06,2.53E-05,2.35E-05,-8.70E-06,2.92E-06
324,-2.65E-05,8.61E-06,1.54E-05,-3.95E-05,-7.41E-06,4.77E-06
325,-1.26E-05,1.05E-05,6.42E-06,-3.60E-05,-6.33E-06,9.10E-06
326,-2.14E-06,1.26E-05,1.23E-05,4.30E-05,-5.26E-06,1.15E-05
327,-8.86E-07,1.41E-05,2.30E-05,0.000129315,-3.78E-06,1.23E-05
328,-6.63E-06,1.45E-05,2.77E-05,0.000118622,-2.58E-06,1.21E-05
329,-1.32E-05,1.34E-05,2.72E-05,2.89E-05,-1.88E-06,1.20E-05
330,-1.12E-05,1.30E-05,2.35E-05,-3.82E-05,-2.17E-06,1.35E-05
331,-2.06E-06,1.44E-05,2.03E-05,-3.94E-05,-3.67E-06,1.66E-05
332,3.47E-06,1.69E-05,2.38E-05,2.73E-05,-5.34E-06,1.79E-05
333,2.83E-06,1.85E-05,3.11E-05,0.000109333,-6.39E-06,1.43E-05
334,-9.66E-07,1.76E-05,3.55E-05,0.000109317,-7.37E-06,5.18E-06
335,-4.14E-06,1.67E-05,3.78E-05,1.93E-05,-8.70E-06,-1.82E-06
336,1.64E-06,1.71E-05,3.66E-05,-5.68E-05,-9.76E-06,3.60E-07
337,1.55E-05,1.61E-05,2.81E-05,-6.98E-05,-1.03E-05,6.59E-06
338,2.45E-05,1.46E-05,1.94E-05,-4.42E-06,-1.18E-05,9.84E-06
339,2.56E-05,1.63E-05,1.71E-05,0.000107365,-1.46E-05,9.98E-06
340,1.88E-05,1.98E-05,1.80E-05,0.000145072,-1.60E-05,6.01E-06
341,8.04E-06,2.10E-05,2.49E-05,6.73E-05,-1.37E-05,1.23E-06
342,7.69E-06,1.91E-05,3.20E-05,-4.73E-06,-1.05E-05,3.57E-06
343,1.51E-05,1.77E-05,3.25E-05,-4.18E-07,-9.58E-06,9.37E-06
344,1.57E-05,1.92E-05,3.22E-05,2.13E-05,-9.03E-06,1.10E-05
345,1.33E-05,2.04E-05,3.71E-05,5.43E-06,-8.26E-06,8.26E-06
346,1.51E-05,1.97E-05,4.13E-05,6.23E-06,-7.74E-06,6.35E-06
347,2.01E-05,1.99E-05,3.87E-05,7.46E-05,-8.94E-06,9.13E-06
348,2.30E-05,2.10E-05,3.16E-05,0.000139835,-1.14E-05,1.32E-05
349,1.28E-05,2.00E-05,2.89E-05,9.85E-05,-1.20E-05,1.28E-05
350,-6.58E-06,1.74E-05,3.20E-05,8.26E-06,-9.18E-06,1.11E-05
351,-1.56E-05,1.38E-05,2.87E-05,-3.81E-05,-6.33E-06,1.29E-05
352,-9.57E-06,1.03E-05,2.01E-05,-1.81E-05,-6.44E-06,1.61E-05
353,-2.15E-07,1.01E-05,1.94E-05,6.56E-05,-7.28E-06,1.86E-05
354,1.97E-06,1.29E-05,2.56E-05,0.000149772,-7.77E-06,1.84E-05
355,-5.99E-06,1.46E-05,3.17E-05,0.000138386,-8.29E-06,1.40E-05
356,-1.63E-05,1.40E-05,3.39E-05,5.04E-05,-8.67E-06,7.58E-06
357,-1.43E-05,1.31E-05,2.78E-05,-1.40E-05,-8.96E-06,2.52E-06
358,5.72E-07,1.24E-05,1.68E-05,-1.05E-05,-1.03E-05,-3.44E-07
359,1.34E-05,1.21E-05,1.53E-05,6.38E-05,-1.17E-05,-1.55E-06
360,1.53E-05,1.20E-05,2.40E-05,0.000153191,-9.56E-06,-1.46E-06
361,6.71E-06,1.01E-05,3.17E-05,0.000155465,-3.33E-06,-9.37E-07
362,-7.49E-06,5.56E-06,3.45E-05,6.25E-05,1.53E-06,3.18E-07
363,-1.26E-05,2.75E-06,3.17E-05,-1.28E-05,1.21E-06,3.86E-06
364,-2.73E-06,5.25E-06,2.60E-05,-1.65E-05,-2.65E-06,9.83E-06
365,6.09E-06,1.17E-05,2.60E-05,5.12E-05,-7.31E-06,1.49E-05
366,6.01E-06,1.69E-05,2.97E-05,0.000144856,-1.14E-05,1.39E-05
367,1.91E-06,1.66E-05,3.09E-05,0.000150851,-1.13E-05,5.67E-06
368,-2.87E-06,1.30E-05,3.69E-05,4.47E-05,-4.55E-06,-1.78E-06
369,1.91E-06,1.05E-05,4.37E-05,-4.23E-05,3.91E-06,2.08E-07
370,1.19E-05,9.17E-06,3.96E-05,-3.31E-05,3.72E-06,7.28E-06
371,9.36E-06,9.26E-06,2.85E-05,1.23E-05,-5.44E-06,1.17E-05
372,2.44E-06,1.07E-05,2.75E-05,1.76E-05,-1.49E-05,1.24E-05
373,3.04E-06,1.28E-05,3.87E-05,2.29E-05,-1.96E-05,1.02E-05
374,8.20E-06,1.43E-05,4.52E-05,8.46E-05,-1.98E-05,7.53E-06
375,9.26E-06,1.50E-05,4.18E-05,0.000148042,-1.93E-05,4.90E-06
376,3.12E-07,1.39E-05,3.65E-05,0.000114495,-1.93E-05,1.22E-06
377,-1.31E-05,1.13E-05,3.18E-05,2.64E-05,-2.04E-05,-1.25E-06
378,-1.64E-05,1.08E-05,2.18E-05,-3.35E-05,-2.09E-05,5.82E-07
379,-8.11E-06,1.34E-05,1.38E-05,-3.13E-05,-1.77E-05,5.51E-06
380,1.51E-06,1.83E-05,1.68E-05,4.61E-05,-1.14E-05,1.08E-05
381,2.22E-06,2.08E-05,2.27E-05,0.000137563,-6.01E-06,1.29E-05
382,-9.38E-06,1.88E-05,2.53E-05,0.000137424,-3.33E-06,1.10E-05
383,-2.46E-05,1.46E-05,2.65E-05,5.25E-05,-3.37E-06,9.08E-06
384,-3.07E-05,1.23E-05,2.33E-05,-1.75E-05,-5.39E-06,1.01E-05
385,-2.73E-05,1.37E-05,1.74E-05,-1.66E-05,-7.52E-06,1.12E-05
386,-2.32E-05,1.70E-05,1.92E-05,6.34E-05,-9.97E-06,1.00E-05
387,-1.98E-05,1.91E-05,2.57E-05,0.000162671,-1.24E-05,8.08E-06
388,-1.83E-05,1.85E-05,2.80E-05,0.000175598,-1.16E-05,5.81E-06
389,-2.14E-05,1.64E-05,2.61E-05,8.96E-05,-7.19E-06,6.11E-06
390,-1.96E-05,1.51E-05,2.05E-05,1.25E-05,-3.20E-06,1.14E-05
391,-5.79E-06,1.48E-05,1.45E-05,-1.25E-06,-3.98E-06,1.69E-05
392,6.27E-06,1.40E-05,1.65E-05,5.88E-05,-9.39E-06,1.68E-05
393,7.04E-06,1.41E-05,2.45E-05,0.00015637,-1.63E-05,1.42E-05
394,-1.41E-07,1.32E-05,3.00E-05,0.000181885,-2.10E-05,1.30E-05
395,-8.97E-06,9.99E-06,3.38E-05,9.64E-05,-1.81E-05,1.22E-05
396,-8.64E-06,7.62E-06,3.43E-05,1.10E-05,-7.55E-06,1.36E-05
397,6.24E-07,6.69E-06,3.22E-05,5.68E-06,2.82E-06,1.75E-05
398,4.70E-06,6.72E-06,3.01E-05,3.03E-05,7.63E-06,2.01E-05
399,6.18E-06,7.22E-06,3.10E-05,2.09E-05,7.71E-06,2.09E-05
400,1.05E-05,6.88E-06,3.78E-05,2.32E-05,4.52E-06,2.11E-05
401,1.22E-05,7.94E-06,4.45E-05,8.93E-05,-1.16E-07,2.12E-05
402,9.06E-06,1.13E-05,4.65E-05,0.000154709,-6.04E-06,1.97E-05
403,1.56E-06,1.26E-05,4.22E-05,0.000112151,-9.37E-06,1.55E-05
404,-7.84E-06,1.14E-05,3.69E-05,1.49E-05,-7.79E-06,1.28E-05
405,-8.86E-06,1.10E-05,3.13E-05,-4.09E-05,-5.06E-06,1.64E-05
406,1.15E-06,1.07E-05,2.61E-05,-2.66E-05,-5.05E-06,2.22E-05
407,1.06E-05,9.55E-06,2.69E-05,5.83E-05,-6.76E-06,2.44E-05
408,8.38E-06,8.01E-06,3.19E-05,0.000144307,-8.53E-06,2.13E-05
409,-6.12E-06,7.13E-06,3.72E-05,0.000125974,-1.02E-05,1.50E-05
410,-2.27E-05,8.52E-06,3.88E-05,2.18E-05,-1.10E-05,1.09E-05
411,-2.91E-05,1.11E-05,3.26E-05,-5.67E-05,-1.19E-05,1.30E-05
412,-2.46E-05,1.14E-05,2.32E-05,-5.77E-05,-1.30E-05,1.80E-05
413,-1.77E-05,8.59E-06,2.35E-05,1.79E-05,-1.26E-05,1.96E-05
414,-1.47E-05,6.84E-06,3.26E-05,0.00010964,-1.07E-05,1.58E-05
415,-2.07E-05,8.64E-06,4.02E-05,0.000114891,-1.01E-05,9.14E-06
416,-3.38E-05,1.15E-05,4.17E-05,2.53E-05,-9.57E-06,4.92E-06
417,-4.11E-05,1.22E-05,3.72E-05,-4.63E-05,-9.16E-06,7.99E-06
418,-3.55E-05,9.56E-06,2.93E-05,-4.83E-05,-1.14E-05,1.55E-05
419,-2.76E-05,8.30E-06,2.51E-05,2.16E-05,-1.58E-05,1.91E-05
420,-2.58E-05,1.29E-05,2.77E-05,0.00012461,-1.98E-05,1.72E-05
421,-3.40E-05,1.71E-05,3.25E-05,0.000150188,-2.52E-05,1.09E-05
422,-4.79E-05,1.48E-05,3.77E-05,6.56E-05,-3.19E-05,4.43E-06
423,-4.91E-05,1.05E-05,4.09E-05,-1.16E-05,-3.50E-05,3.82E-06
424,-3.52E-05,9.77E-06,3.61E-05,-7.41E-06,-3.22E-05,6.53E-06
425,-2.26E-05,1.28E-05,2.69E-05,2.68E-05,-2.46E-05,8.19E-06
426,-1.42E-05,1.59E-05,2.98E-05,2.47E-05,-1.51E-05,8.88E-06
427,-9.44E-06,1.53E-05,4.34E-05,3.18E-05,-6.96E-06,9.67E-06
428,-8.18E-06,1.15E-05,5.11E-05,0.000103679,-1.30E-06,1.28E-05
429,-9.07E-06,8.90E-06,4.80E-05,0.000172723,2.79E-06,1.48E-05
430,-1.34E-05,9.70E-06,4.27E-05,0.000129979,5.83E-06,1.18E-05
431,-1.61E-05,1.24E-05,4.18E-05,3.06E-05,7.45E-06,9.08E-06
432,-6.99E-06,1.48E-05,3.78E-05,-2.73E-05,4.39E-06,1.28E-05
433,7.86E-06,1.36E-05,3.10E-05,-1.50E-05,-4.66E-06,1.92E-05
434,1.49E-05,1.12E-05,2.92E-05,6.76E-05,-1.38E-05,2.10E-05
435,1.35E-05,1.18E-05,2.95E-05,0.000155622,-1.57E-05,1.73E-05
436,7.73E-06,1.49E-05,2.97E-05,0.000147613,-9.84E-06,1.24E-05
437,4.87E-07,1.70E-05,3.11E-05,5.47E-05,-3.24E-06,1.13E-05
438,-1.98E-06,1.68E-05,2.86E-05,-2.28E-05,-1.60E-06,1.48E-05
439,2.49E-06,1.59E-05,2.12E-05,-3.41E-05,-4.01E-06,1.79E-05
440,6.10E-06,1.75E-05,2.06E-05,2.92E-05,-6.51E-06,1.73E-05
441,2.48E-06,2.18E-05,2.76E-05,0.000116381,-7.18E-06,1.54E-05
442,-8.18E-06,2.38E-05,3.18E-05,0.000125312,-6.18E-06,1.40E-05
443,-2.04E-05,2.18E-05,3.15E-05,3.94E-05,-5.37E-06,1.37E-05
444,-2.27E-05,1.97E-05,2.62E-05,-3.09E-05,-5.60E-06,1.50E-05
445,-1.02E-05,1.92E-05,1.58E-05,-3.05E-05,-5.32E-06,1.62E-05
446,1.37E-06,1.83E-05,1.35E-05,4.04E-05,-4.75E-06,1.52E-05
447,2.46E-06,1.81E-05,2.22E-05,0.000138035,-5.80E-06,1.39E-05
448,-4.32E-06,1.75E-05,2.91E-05,0.000153222,-8.19E-06,1.09E-05
449,-1.38E-05,1.53E-05,3.17E-05,6.04E-05,-8.85E-06,6.59E-06
450,-1.55E-05,1.41E-05,3.15E-05,-1.86E-05,-6.87E-06,9.46E-06
451,-8.09E-06,1.36E-05,2.83E-05,-1.53E-05,-5.68E-06,1.47E-05
452,-5.82E-06,1.10E-05,2.23E-05,1.20E-05,-8.12E-06,1.36E-05
453,-1.09E-05,8.32E-06,1.77E-05,6.13E-06,-1.36E-05,9.91E-06
454,-1.05E-05,7.63E-06,2.07E-05,1.31E-05,-1.91E-05,8.62E-06
455,-2.57E-06,8.00E-06,2.59E-05,8.23E-05,-2.16E-05,1.07E-05
456,2.92E-06,8.93E-06,2.60E-05,0.0001518,-1.95E-05,1.36E-05
457,-4.81E-06,8.25E-06,2.44E-05,0.000117222,-1.47E-05,1.59E-05
458,-1.87E-05,5.15E-06,2.66E-05,3.09E-05,-9.71E-06,1.81E-05
459,-2.09E-05,2.23E-06,2.38E-05,-1.62E-05,-5.65E-06,2.08E-05
460,-1.35E-05,1.83E-06,1.76E-05,-1.81E-07,-3.28E-06,2.08E-05
461,-8.20E-06,5.24E-06,1.98E-05,8.03E-05,-2.97E-06,1.85E-05
462,-8.06E-06,9.93E-06,2.88E-05,0.000164759,-4.80E-06,1.62E-05
463,-1.46E-05,1.09E-05,3.84E-05,0.000152432,-7.11E-06,1.28E-05
464,-2.66E-05,7.61E-06,4.34E-05,5.37E-05,-8.93E-06,9.24E-06
465,-3.22E-05,3.82E-06,3.88E-05,-2.60E-05,-9.93E-06,8.07E-06
466,-2.32E-05,2.05E-06,2.81E-05,-3.25E-05,-9.58E-06,8.72E-06
467,-9.20E-06,3.71E-06,2.53E-05,3.65E-05,-6.96E-06,8.56E-06
468,-1.10E-06,9.07E-06,3.22E-05,0.000123873,-3.31E-06,7.74E-06
469,-3.19E-07,1.35E-05,3.82E-05,0.000126188,-1.80E-06,5.67E-06
470,-3.58E-06,1.39E-05,3.88E-05,3.17E-05,-3.92E-06,2.98E-06
471,-5.05E-06,1.41E-05,3.48E-05,-4.58E-05,-6.76E-06,2.81E-06
472,-6.16E-07,1.49E-05,2.74E-05,-5.06E-05,-6.54E-06,4.31E-06
473,6.03E-06,1.25E-05,2.51E-05,1.70E-05,-5.14E-06,4.87E-06
474,1.01E-05,7.97E-06,3.10E-05,0.000115778,-7.42E-06,6.42E-06
475,7.27E-06,5.68E-06,3.69E-05,0.000140566,-1.19E-05,7.61E-06
476,-1.36E-06,9.37E-06,4.02E-05,5.85E-05,-1.30E-05,7.71E-06
477,-3.27E-06,1.57E-05,3.95E-05,-1.95E-05,-1.05E-05,9.93E-06
478,1.17E-06,1.90E-05,3.38E-05,-2.13E-05,-9.01E-06,1.34E-05
479,-1.95E-07,2.03E-05,2.65E-05,2.41E-08,-8.94E-06,1.52E-05
480,-1.74E-06,2.00E-05,2.38E-05,-2.05E-05,-8.86E-06,1.71E-05
481,7.05E-07,1.76E-05,2.73E-05,-3.11E-05,-9.25E-06,1.96E-05
482,4.55E-06,1.78E-05,2.96E-05,3.34E-05,-6.21E-06,2.04E-05
483,5.95E-06,2.17E-05,2.46E-05,0.000111988,4.81E-08,1.80E-05
484,-3.99E-06,2.40E-05,1.76E-05,9.41E-05,3.88E-06,1.40E-05
485,-1.88E-05,2.17E-05,1.49E-05,2.00E-05,3.37E-06,1.30E-05
486,-2.09E-05,1.71E-05,1.24E-05,-2.59E-05,1.42E-07,1.66E-05
487,-1.14E-05,1.35E-05,1.15E-05,-1.20E-05,-3.34E-06,2.10E-05
488,-3.59E-06,1.27E-05,1.65E-05,7.13E-05,-6.17E-06,2.29E-05
489,-2.57E-06,1.37E-05,2.34E-05,0.000159266,-7.52E-06,2.07E-05
490,-7.98E-06,1.39E-05,2.83E-05,0.000150862,-6.16E-06,1.47E-05
491,-1.62E-05,1.25E-05,3.09E-05,6.22E-05,-3.66E-06,9.56E-06
492,-1.70E-05,1.12E-05,2.80E-05,-6.05E-06,-2.99E-06,8.55E-06
493,-6.19E-06,1.04E-05,2.18E-05,-5.89E-06,-4.18E-06,9.59E-06
494,5.50E-06,1.03E-05,2.29E-05,6.79E-05,-5.58E-06,1.08E-05
495,7.74E-06,1.10E-05,2.91E-05,0.000160797,-6.62E-06,1.17E-05
496,1.36E-06,1.15E-05,3.09E-05,0.000165988,-7.60E-06,1.05E-05
497,-6.97E-06,1.06E-05,2.99E-05,7.03E-05,-8.18E-06,1.01E-05
498,-7.88E-06,8.95E-06,2.99E-05,-1.24E-05,-7.13E-06,1.20E-05
499,1.01E-06,6.85E-06,2.85E-05,-2.27E-05,-4.38E-06,1.29E-05
500,1.22E-05,5.46E-06,2.63E-05,4.81E-05,-3.48E-06,1.17E-05
501,2.17E-05,5.78E-06,2.55E-05,0.000154927,-7.15E-06,9.04E-06
502,2.36E-05,7.26E-06,2.74E-05,0.000174626,-1.26E-05,7.01E-06
503,1.52E-05,7.89E-06,3.43E-05,7.38E-05,-1.32E-05,8.75E-06
504,1.06E-05,6.59E-06,3.88E-05,-1.66E-05,-7.78E-06,1.36E-05
505,1.53E-05,6.21E-06,3.44E-05,-1.33E-05,-2.32E-06,1.59E-05
506,1.61E-05,8.10E-06,2.92E-05,2.35E-05,-1.05E-06,1.52E-05
507,1.64E-05,8.52E-06,2.96E-05,2.00E-05,-3.81E-06,1.80E-05
508,2.18E-05,7.13E-06,3.39E-05,1.86E-05,-8.53E-06,2.33E-05
509,2.35E-05,7.82E-06,3.58E-05,7.46E-05,-1.32E-05,2.44E-05
510,1.43E-05,1.02E-05,3.33E-05,0.000137129,-1.45E-05,1.81E-05
511,-5.90E-06,1.00E-05,3.32E-05,0.00010511,-1.01E-05,1.08E-05
512,-2.29E-05,6.74E-06,3.51E-05,2.16E-05,-5.08E-06,1.04E-05
513,-2.08E-05,3.75E-06,3.00E-05,-2.88E-05,-6.13E-06,1.58E-05
514,-8.40E-06,2.07E-06,1.97E-05,-1.81E-05,-1.15E-05,1.99E-05
515,-1.30E-06,2.41E-06,1.50E-05,6.48E-05,-1.64E-05,2.10E-05
516,-1.34E-06,5.60E-06,1.59E-05,0.000155294,-1.90E-05,2.05E-05
517,-5.70E-06,9.54E-06,1.78E-05,0.000145393,-2.08E-05,1.94E-05
518,-1.06E-05,1.13E-05,1.81E-05,4.69E-05,-2.37E-05,2.14E-05
519,-1.05E-05,1.07E-05,1.43E-05,-3.16E-05,-2.62E-05,2.79E-05
520,-7.13E-06,1.12E-05,8.99E-06,-3.36E-05,-2.45E-05,3.30E-05
521,-6.12E-06,1.56E-05,9.35E-06,4.20E-05,-1.65E-05,3.13E-05
522,-8.13E-06,2.02E-05,1.48E-05,0.000134497,-4.93E-06,2.49E-05
523,-1.33E-05,1.96E-05,1.98E-05,0.00014133,4.20E-06,1.69E-05
524,-2.02E-05,1.53E-05,2.50E-05,5.51E-05,6.76E-06,1.04E-05
525,-2.03E-05,1.35E-05,2.76E-05,-1.43E-05,4.24E-06,8.88E-06
526,-1.24E-05,1.60E-05,2.25E-05,-2.02E-05,1.21E-06,1.25E-05
527,-8.17E-06,1.97E-05,1.96E-05,3.90E-05,5.08E-07,1.73E-05
528,-1.03E-05,2.05E-05,2.63E-05,0.000130679,1.59E-06,2.08E-05
529,-1.63E-05,1.72E-05,3.16E-05,0.000145749,2.45E-06,1.95E-05
530,-2.51E-05,1.17E-05,3.16E-05,4.68E-05,5.13E-07,1.50E-05
531,-2.62E-05,8.80E-06,2.81E-05,-4.56E-05,-2.17E-06,1.62E-05
532,-1.92E-05,1.02E-05,2.15E-05,-3.77E-05,-6.02E-06,2.14E-05
533,-1.85E-05,1.36E-05,1.68E-05,1.79E-05,-1.33E-05,2.43E-05
534,-2.14E-05,1.60E-05,1.98E-05,2.02E-05,-1.97E-05,2.76E-05
535,-1.89E-05,1.54E-05,2.58E-05,6.54E-06,-2.18E-05,3.14E-05
536,-1.31E-05,1.59E-05,2.73E-05,5.90E-05,-2.24E-05,3.19E-05
537,-7.84E-06,1.83E-05,2.58E-05,0.000129127,-2.25E-05,2.54E-05
538,-9.86E-06,1.82E-05,2.60E-05,0.000100231,-1.96E-05,1.52E-05
539,-1.84E-05,1.63E-05,2.79E-05,8.15E-06,-1.52E-05,1.15E-05
540,-1.81E-05,1.55E-05,2.25E-05,-5.15E-05,-1.11E-05,1.44E-05
541,-6.91E-06,1.44E-05,1.18E-05,-4.44E-05,-9.19E-06,1.62E-05
542,1.50E-06,1.30E-05,7.87E-06,3.92E-05,-1.22E-05,1.57E-05
543,-6.59E-07,1.38E-05,1.03E-05,0.000134695,-1.76E-05,1.35E-05
544,-1.31E-05,1.49E-05,1.25E-05,0.000130664,-1.96E-05,9.72E-06
545,-2.99E-05,1.37E-05,1.08E-05,3.34E-05,-1.79E-05,8.10E-06
546,-3.73E-05,1.08E-05,4.16E-06,-5.11E-05,-1.65E-05,1.25E-05
547,-2.96E-05,8.96E-06,-6.04E-07,-6.35E-05,-1.67E-05,1.88E-05
548,-1.93E-05,8.63E-06,4.88E-06,7.46E-06,-1.48E-05,2.00E-05
549,-1.85E-05,8.31E-06,1.35E-05,0.000103772,-7.20E-06,1.53E-05
550,-2.87E-05,6.63E-06,1.59E-05,0.000114964,3.28E-06,8.41E-06
551,-4.28E-05,4.66E-06,1.48E-05,2.96E-05,1.10E-05,3.51E-06
552,-4.55E-05,4.59E-06,1.17E-05,-3.96E-05,1.01E-05,4.57E-06
553,-3.37E-05,6.14E-06,5.93E-06,-4.09E-05,-2.05E-06,8.21E-06
554,-2.21E-05,7.50E-06,4.96E-06,2.83E-05,-1.82E-05,9.16E-06
555,-1.68E-05,8.87E-06,1.07E-05,0.000129573,-2.48E-05,7.28E-06
556,-1.91E-05,1.04E-05,1.59E-05,0.000149654,-1.71E-05,1.74E-06
557,-2.43E-05,1.03E-05,2.26E-05,5.47E-05,-8.82E-06,-2.82E-06
558,-1.78E-05,9.33E-06,2.78E-05,-3.03E-05,-9.85E-06,3.69E-07
559,-5.28E-06,9.08E-06,2.39E-05,-2.61E-05,-1.37E-05,7.19E-06
560,-2.22E-06,8.89E-06,1.78E-05,5.21E-06,-1.20E-05,1.12E-05
561,-1.19E-06,8.57E-06,2.03E-05,-5.82E-06,-4.73E-06,1.37E-05
562,5.58E-06,8.72E-06,2.91E-05,-8.02E-06,2.75E-06,1.56E-05
563,1.26E-05,1.13E-05,3.42E-05,5.64E-05,6.20E-06,1.49E-05
564,1.46E-05,1.49E-05,3.32E-05,0.000127643,4.36E-06,1.05E-05
565,5.66E-06,1.69E-05,3.38E-05,0.000100449,2.10E-06,4.66E-06
566,-4.78E-06,1.81E-05,3.92E-05,1.83E-05,2.86E-06,3.21E-06
567,4.35E-06,1.85E-05,3.87E-05,-3.51E-05,2.50E-06,7.20E-06
568,2.47E-05,1.83E-05,3.28E-05,-3.23E-05,-3.34E-06,1.05E-05
569,3.51E-05,1.86E-05,3.25E-05,3.91E-05,-1.13E-05,9.72E-06
570,3.34E-05,1.90E-05,3.70E-05,0.000122831,-1.64E-05,5.53E-06
571,2.43E-05,1.65E-05,4.26E-05,0.000119912,-1.87E-05,7.83E-07
572,1.23E-05,1.27E-05,4.75E-05,3.88E-05,-1.92E-05,-1.21E-07
573,8.93E-06,1.13E-05,4.70E-05,-2.82E-05,-1.80E-05,4.70E-06
574,1.76E-05,1.35E-05,4.18E-05,-3.37E-05,-1.54E-05,1.08E-05
575,2.82E-05,1.73E-05,4.14E-05,3.33E-05,-1.25E-05,1.31E-05
576,3.17E-05,2.03E-05,4.52E-05,0.000120619,-1.00E-05,1.22E-05
577,2.42E-05,1.98E-05,4.55E-05,0.000123916,-8.48E-06,9.21E-06
578,1.04E-05,1.55E-05,4.21E-05,3.18E-05,-8.86E-06,6.64E-06
579,4.92E-06,1.11E-05,3.46E-05,-4.35E-05,-1.09E-05,9.40E-06
580,1.28E-05,1.14E-05,2.53E-05,-5.06E-05,-1.10E-05,1.37E-05
581,2.22E-05,1.56E-05,2.34E-05,1.33E-05,-8.07E-06,1.22E-05
582,2.59E-05,1.67E-05,2.74E-05,0.000118899,-5.17E-06,9.08E-06
583,2.04E-05,1.21E-05,2.98E-05,0.00015942,-5.75E-06,6.43E-06
584,3.85E-06,7.98E-06,3.24E-05,8.48E-05,-8.53E-06,3.19E-06
585,-8.26E-06,9.63E-06,3.50E-05,4.43E-06,-9.57E-06,5.13E-06
586,-6.91E-06,1.30E-05,3.31E-05,7.11E-07,-8.15E-06,9.61E-06
587,-6.34E-06,1.51E-05,2.75E-05,2.53E-05,-7.90E-06,1.17E-05
588,-6.20E-06,1.56E-05,2.66E-05,1.94E-05,-1.02E-05,1.44E-05
589,-3.20E-06,1.51E-05,3.09E-05,2.41E-05,-1.32E-05,1.69E-05
590,-2.32E-06,1.64E-05,3.33E-05,8.88E-05,-1.52E-05,1.70E-05
591,-5.44E-06,1.98E-05,3.27E-05,0.000153987,-1.51E-05,1.52E-05
592,-1.34E-05,2.14E-05,3.19E-05,0.000117131,-1.39E-05,1.30E-05
593,-1.96E-05,1.98E-05,3.03E-05,2.73E-05,-1.25E-05,1.20E-05
594,-1.49E-05,1.73E-05,2.24E-05,-2.76E-05,-1.22E-05,1.27E-05
595,-2.80E-06,1.60E-05,1.23E-05,-2.02E-05,-1.28E-05,1.32E-05
596,6.57E-06,1.71E-05,1.12E-05,5.87E-05,-1.30E-05,1.28E-05
597,9.24E-06,1.89E-05,1.69E-05,0.000147232,-1.17E-05,1.18E-05
598,6.41E-06,1.77E-05,2.33E-05,0.000143321,-9.11E-06,9.68E-06
599,3.01E-06,1.44E-05,2.90E-05,6.02E-05,-7.28E-06,7.75E-06
600,6.22E-06,1.31E-05,2.99E-05,-4.52E-06,-8.04E-06,8.94E-06
601,1.52E-05,1.50E-05,2.47E-05,2.63E-07,-1.06E-05,1.30E-05
602,2.08E-05,1.77E-05,2.33E-05,8.28E-05,-1.20E-05,1.57E-05
603,1.73E-05,2.01E-05,3.13E-05,0.00018369,-1.12E-05,1.45E-05
604,4.11E-06,2.04E-05,4.02E-05,0.000191778,-9.64E-06,1.02E-05
605,-1.16E-05,1.70E-05,4.32E-05,9.49E-05,-9.35E-06,7.30E-06
606,-1.48E-05,1.22E-05,3.90E-05,4.87E-06,-1.12E-05,1.03E-05
607,-4.22E-06,1.04E-05,3.07E-05,-2.02E-05,-1.57E-05,1.75E-05
608,4.70E-06,1.12E-05,2.78E-05,3.83E-05,-1.92E-05,2.16E-05
609,2.73E-06,1.03E-05,3.10E-05,0.000146539,-1.75E-05,1.88E-05
610,-8.59E-06,7.64E-06,3.06E-05,0.000179298,-1.18E-05,1.18E-05
611,-2.33E-05,5.16E-06,3.06E-05,9.17E-05,-5.86E-06,7.72E-06
612,-2.83E-05,5.09E-06,3.24E-05,6.16E-06,-2.56E-06,1.13E-05
613,-1.94E-05,7.32E-06,2.92E-05,3.24E-06,-1.49E-06,1.81E-05
614,-1.15E-05,8.89E-06,2.32E-05,2.49E-05,-8.49E-07,2.28E-05
615,-1.00E-05,7.09E-06,2.37E-05,4.95E-06,9.50E-07,2.35E-05
616,-1.24E-05,5.48E-06,3.25E-05,-5.61E-06,1.63E-06,2.10E-05
617,-1.59E-05,6.91E-06,4.05E-05,6.14E-05,-2.07E-06,1.99E-05
618,-1.75E-05,9.02E-06,4.22E-05,0.000147967,-7.38E-06,1.83E-05
619,-2.37E-05,9.44E-06,4.12E-05,0.000137266,-9.19E-06,1.27E-05
620,-3.41E-05,9.21E-06,3.90E-05,6.42E-05,-7.31E-06,1.01E-05
621,-3.51E-05,1.11E-05,2.84E-05,1.02E-05,-4.36E-06,1.36E-05
622,-2.59E-05,1.30E-05,1.60E-05,9.83E-06,-1.86E-06,1.83E-05
623,-1.67E-05,1.29E-05,1.54E-05,7.92E-05,-4.99E-07,1.94E-05
624,-1.24E-05,1.08E-05,2.43E-05,0.00015947,2.50E-07,1.57E-05
625,-1.50E-05,9.00E-06,3.21E-05,0.000146536,1.51E-07,9.82E-06
626,-2.18E-05,7.58E-06,3.43E-05,4.78E-05,-1.73E-06,7.65E-06
627,-2.25E-05,5.91E-06,2.97E-05,-3.27E-05,-4.43E-06,1.29E-05
628,-1.40E-05,4.98E-06,2.21E-05,-3.61E-05,-5.86E-06,1.96E-05
629,-6.59E-06,6.02E-06,2.29E-05,4.20E-05,-4.40E-06,1.97E-05
630,-6.60E-06,8.87E-06,3.13E-05,0.000138081,-4.24E-07,1.35E-05
631,-1.27E-05,1.21E-05,3.81E-05,0.000144187,3.09E-06,7.77E-06
632,-2.10E-05,1.36E-05,4.27E-05,5.12E-05,3.59E-06,9.19E-06
633,-2.16E-05,1.21E-05,4.29E-05,-2.64E-05,1.66E-06,1.70E-05
634,-1.02E-05,1.08E-05,3.72E-05,-3.70E-05,-1.47E-06,2.21E-05
635,2.09E-06,1.26E-05,3.73E-05,2.03E-05,-4.99E-06,2.05E-05
636,6.24E-06,1.49E-05,4.32E-05,0.000112093,-6.74E-06,1.57E-05
637,1.13E-08,1.45E-05,4.75E-05,0.000134736,-6.22E-06,9.32E-06
638,-1.22E-05,1.24E-05,5.18E-05,5.48E-05,-5.50E-06,4.74E-06
639,-1.85E-05,1.12E-05,5.30E-05,-1.21E-05,-5.01E-06,7.71E-06
640,-1.45E-05,1.14E-05,4.67E-05,4.76E-06,-5.91E-06,1.48E-05
641,-1.05E-05,1.09E-05,3.76E-05,4.72E-05,-9.44E-06,1.80E-05
642,-4.79E-06,8.31E-06,3.57E-05,4.33E-05,-1.26E-05,1.80E-05
643,6.13E-06,6.82E-06,4.05E-05,3.69E-05,-1.26E-05,1.78E-05
644,9.81E-06,9.72E-06,4.44E-05,0.000100547,-1.14E-05,1.97E-05
645,-4.33E-08,1.35E-05,4.63E-05,0.000173603,-1.28E-05,2.10E-05
646,-1.89E-05,1.25E-05,4.71E-05,0.000139011,-1.53E-05,1.68E-05
647,-3.39E-05,7.89E-06,4.53E-05,4.45E-05,-1.50E-05,1.12E-05
648,-3.06E-05,5.57E-06,3.30E-05,-1.48E-05,-1.23E-05,1.06E-05
649,-1.54E-05,7.30E-06,1.77E-05,-5.06E-06,-1.03E-05,1.36E-05
650,-5.50E-06,1.08E-05,1.59E-05,8.07E-05,-1.08E-05,1.48E-05
651,-6.59E-06,1.29E-05,2.55E-05,0.000175006,-1.12E-05,1.29E-05
652,-1.63E-05,1.24E-05,3.47E-05,0.000168156,-9.21E-06,1.05E-05
653,-2.61E-05,1.07E-05,3.80E-05,7.23E-05,-6.89E-06,9.61E-06
654,-2.49E-05,8.15E-06,3.55E-05,-6.31E-06,-7.11E-06,1.19E-05
655,-1.35E-05,4.85E-06,3.02E-05,-1.48E-05,-9.21E-06,1.82E-05
656,-4.98E-06,4.05E-06,2.89E-05,5.09E-05,-1.03E-05,2.44E-05
657,-5.65E-06,6.73E-06,3.19E-05,0.000134158,-8.83E-06,2.46E-05
658,-1.12E-05,9.53E-06,3.61E-05,0.000132039,-6.00E-06,1.71E-05
659,-1.58E-05,1.01E-05,3.92E-05,4.19E-05,-3.11E-06,9.21E-06
660,-1.14E-05,9.01E-06,3.69E-05,-2.45E-05,-2.33E-06,9.38E-06
661,1.50E-06,8.93E-06,3.02E-05,-2.72E-05,-5.42E-06,1.66E-05
662,9.19E-06,1.34E-05,3.02E-05,3.57E-05,-1.09E-05,2.13E-05
663,6.09E-06,1.90E-05,3.53E-05,0.000133334,-1.52E-05,1.69E-05
664,-6.11E-06,1.95E-05,3.56E-05,0.000154017,-1.66E-05,5.56E-06
665,-1.79E-05,1.71E-05,3.50E-05,6.39E-05,-1.62E-05,-2.09E-06
666,-1.13E-05,1.56E-05,3.71E-05,-1.47E-05,-1.61E-05,1.42E-06
667,3.84E-06,1.51E-05,3.83E-05,-6.88E-06,-1.47E-05,8.16E-06
668,8.31E-06,1.58E-05,3.75E-05,3.31E-05,-8.85E-06,1.10E-05
669,7.13E-06,1.74E-05,3.99E-05,3.75E-05,-3.26E-06,1.30E-05
670,5.34E-06,1.90E-05,4.34E-05,4.63E-05,-2.75E-06,1.39E-05
671,1.34E-06,1.96E-05,4.30E-05,0.000111395,-5.07E-06,1.24E-05
672,-4.16E-06,1.95E-05,3.83E-05,0.000169064,-5.53E-06,8.01E-06
673,-1.26E-05,1.85E-05,3.36E-05,0.00011776,-4.95E-06,2.47E-07
674,-2.08E-05,1.76E-05,3.12E-05,1.24E-05,-8.24E-06,-4.89E-06
675,-1.93E-05,1.80E-05,2.39E-05,-5.04E-05,-1.47E-05,-2.82E-06
676,-1.14E-05,1.74E-05,1.45E-05,-4.26E-05,-1.86E-05,3.05E-06
677,-6.04E-06,1.66E-05,1.28E-05,3.73E-05,-1.68E-05,7.94E-06
678,-6.88E-06,1.73E-05,1.72E-05,0.000121864,-1.18E-05,1.17E-05
679,-1.29E-05,1.80E-05,2.32E-05,0.00011123,-5.83E-06,1.56E-05
680,-1.85E-05,1.78E-05,2.63E-05,2.44E-05,1.39E-06,2.08E-05
681,-1.69E-05,1.63E-05,2.07E-05,-3.66E-05,8.52E-06,2.57E-05
682,-1.03E-05,1.37E-05,1.14E-05,-2.76E-05,1.06E-05,2.62E-05
683,-7.22E-06,1.24E-05,1.21E-05,5.26E-05,5.81E-06,2.16E-05
684,-9.97E-06,1.41E-05,2.12E-05,0.000149655,-1.45E-06,1.53E-05
685,-1.78E-05,1.63E-05,2.71E-05,0.000157766,-6.25E-06,9.64E-06
686,-2.85E-05,1.67E-05,2.82E-05,6.31E-05,-6.94E-06,7.83E-06
687,-3.08E-05,1.54E-05,2.53E-05,-2.10E-05,-5.23E-06,1.12E-05
688,-1.93E-05,1.41E-05,1.84E-05,-3.50E-05,-3.14E-06,1.51E-05
689,-1.04E-05,1.48E-05,1.67E-05,2.85E-05,-1.11E-06,1.54E-05
690,-1.37E-05,1.61E-05,2.21E-05,0.000127083,3.91E-07,1.33E-05
691,-2.07E-05,1.51E-05,2.49E-05,0.000148887,1.49E-06,7.26E-06
692,-2.26E-05,1.25E-05,2.56E-05,6.49E-05,2.43E-06,4.54E-08
693,-1.36E-05,1.14E-05,2.79E-05,-8.36E-06,2.13E-06,1.28E-06
694,3.94E-07,1.11E-05,2.87E-05,-3.69E-06,-1.82E-06,8.36E-06
695,8.56E-06,8.34E-06,2.79E-05,2.22E-05,-9.09E-06,1.54E-05
696,1.40E-05,6.17E-06,2.67E-05,1.04E-05,-1.51E-05,2.13E-05
697,2.02E-05,7.29E-06,2.67E-05,4.68E-06,-1.78E-05,2.41E-05
698,2.46E-05,1.13E-05,2.83E-05,5.84E-05,-1.72E-05,2.32E-05
699,2.50E-05,1.43E-05,3.17E-05,0.000113526,-1.58E-05,1.97E-05
700,1.64E-05,1.46E-05,3.67E-05,7.34E-05,-1.57E-05,1.59E-05
701,4.16E-06,1.42E-05,3.79E-05,-1.40E-05,-1.55E-05,1.50E-05
702,3.23E-06,1.32E-05,2.82E-05,-6.46E-05,-1.50E-05,1.93E-05
703,1.08E-05,1.08E-05,1.65E-05,-4.99E-05,-1.61E-05,2.32E-05
704,1.44E-05,8.84E-06,1.52E-05,3.90E-05,-1.76E-05,2.18E-05
705,1.17E-05,9.14E-06,2.23E-05,0.00013365,-1.74E-05,1.59E-05
706,4.76E-06,9.78E-06,3.21E-05,0.000122787,-1.52E-05,1.05E-05
707,-3.81E-06,8.93E-06,3.83E-05,2.33E-05,-1.21E-05,1.02E-05
708,-7.50E-06,7.79E-06,3.52E-05,-5.27E-05,-9.33E-06,1.33E-05
709,-5.80E-06,8.54E-06,2.60E-05,-5.33E-05,-7.51E-06,1.54E-05
710,-6.21E-06,1.05E-05,2.12E-05,2.07E-05,-5.72E-06,1.66E-05
711,-1.15E-05,1.27E-05,2.29E-05,0.000112168,-4.23E-06,1.86E-05
712,-2.03E-05,1.31E-05,2.78E-05,0.000116614,-5.77E-06,1.77E-05
713,-2.90E-05,1.04E-05,3.42E-05,2.37E-05,-9.62E-06,1.29E-05
714,-2.98E-05,7.54E-06,3.64E-05,-5.49E-05,-1.21E-05,1.08E-05
715,-2.16E-05,7.02E-06,3.11E-05,-6.32E-05,-1.19E-05,1.43E-05
716,-1.57E-05,1.04E-05,2.81E-05,7.73E-06,-1.18E-05,1.88E-05
717,-1.80E-05,1.71E-05,3.02E-05,0.000115088,-1.19E-05,2.06E-05
718,-2.60E-05,2.28E-05,2.96E-05,0.000136635,-1.04E-05,1.89E-05
719,-3.09E-05,2.39E-05,2.69E-05,4.13E-05,-1.04E-05,1.62E-05
720,-2.21E-05,2.17E-05,2.02E-05,-4.07E-05,-1.35E-05,1.47E-05
721,-5.54E-06,1.92E-05,8.98E-06,-3.71E-05,-1.48E-05,1.37E-05
722,2.91E-07,1.66E-05,1.09E-06,-8.17E-06,-1.29E-05,1.41E-05
723,-3.41E-06,1.37E-05,4.29E-06,-1.31E-05,-9.86E-06,1.67E-05
724,-5.98E-06,1.11E-05,1.23E-05,-6.88E-06,-6.19E-06,1.95E-05
725,-5.89E-06,1.08E-05,1.67E-05,6.12E-05,-5.11E-06,1.98E-05
726,-7.71E-06,1.29E-05,2.06E-05,0.000131803,-8.35E-06,1.58E-05
727,-1.46E-05,1.31E-05,2.60E-05,0.00010063,-1.09E-05,1.10E-05
728,-2.02E-05,9.85E-06,2.83E-05,1.21E-05,-1.03E-05,1.00E-05
729,-1.43E-05,6.52E-06,2.08E-05,-4.12E-05,-7.80E-06,1.28E-05
730,-1.30E-06,6.15E-06,1.10E-05,-2.96E-05,-6.32E-06,1.59E-05
731,6.75E-06,8.47E-06,1.05E-05,5.09E-05,-7.78E-06,1.73E-05
732,6.18E-06,1.10E-05,1.62E-05,0.000139592,-1.16E-05,1.64E-05
733,-2.77E-06,1.09E-05,2.24E-05,0.000138487,-1.52E-05,1.36E-05
734,-1.22E-05,9.00E-06,2.70E-05,5.62E-05,-1.76E-05,1.04E-05
735,-8.32E-06,8.42E-06,2.41E-05,-1.04E-05,-2.10E-05,8.84E-06
736,7.96E-06,9.50E-06,1.43E-05,-1.09E-05,-2.53E-05,9.36E-06
737,1.86E-05,9.87E-06,9.00E-06,6.03E-05,-2.57E-05,1.04E-05
738,1.65E-05,8.87E-06,1.13E-05,0.00014728,-1.91E-05,9.06E-06
739,9.22E-06,7.50E-06,1.57E-05,0.000142794,-8.04E-06,2.98E-06
740,2.08E-06,8.30E-06,1.81E-05,3.57E-05,2.57E-06,-3.59E-06
741,4.16E-07,1.15E-05,1.51E-05,-5.57E-05,1.01E-05,-4.21E-06
742,8.09E-06,1.47E-05,8.52E-06,-7.01E-05,1.37E-05,9.77E-07
743,1.64E-05,1.62E-05,7.87E-06,-2.01E-06,1.37E-05,6.04E-06
744,1.61E-05,1.50E-05,1.36E-05,0.00010451,1.14E-05,6.20E-06
745,6.94E-06,1.30E-05,2.06E-05,0.000127075,7.05E-06,9.52E-07
746,-5.13E-06,1.20E-05,2.90E-05,3.26E-05,3.45E-06,-3.64E-06
747,-8.37E-06,1.32E-05,3.16E-05,-4.79E-05,3.42E-06,-1.26E-06
748,-1.32E-06,1.45E-05,2.38E-05,-3.49E-05,4.94E-06,3.73E-06
749,1.91E-06,1.27E-05,1.77E-05,8.18E-06,4.16E-06,6.95E-06
750,5.13E-07,1.08E-05,1.99E-05,7.22E-06,1.15E-06,9.51E-06
751,-3.62E-07,1.14E-05,2.26E-05,4.50E-06,-2.39E-06,9.05E-06
752,-2.77E-06,1.35E-05,2.19E-05,6.40E-05,-4.75E-06,6.12E-06
753,-8.36E-06,1.63E-05,2.28E-05,0.000132005,-6.30E-06,3.28E-06
754,-1.98E-05,1.74E-05,2.68E-05,0.000103179,-9.25E-06,2.05E-06
755,-2.97E-05,1.47E-05,3.05E-05,1.92E-05,-1.30E-05,2.47E-06
756,-2.53E-05,1.10E-05,2.68E-05,-2.96E-05,-1.40E-05,4.41E-06
757,-1.16E-05,8.94E-06,1.82E-05,-1.42E-05,-1.24E-05,7.93E-06
758,-2.58E-06,1.12E-05,1.59E-05,7.21E-05,-1.07E-05,1.21E-05
759,-9.84E-07,1.64E-05,1.98E-05,0.000165803,-9.20E-06,1.34E-05
760,-4.59E-06,1.81E-05,2.52E-05,0.000159105,-9.48E-06,1.02E-05
761,-9.58E-06,1.46E-05,3.10E-05,6.35E-05,-1.12E-05,6.85E-06
762,-8.05E-06,9.38E-06,3.20E-05,-1.43E-05,-1.24E-05,7.84E-06
763,1.04E-06,5.86E-06,2.44E-05,-2.06E-05,-1.28E-05,1.11E-05
764,8.32E-06,6.32E-06,1.87E-05,4.92E-05,-1.28E-05,1.12E-05
765,7.95E-06,1.10E-05,2.01E-05,0.000143037,-1.13E-05,6.92E-06
766,3.00E-06,1.54E-05,2.38E-05,0.000158076,-9.51E-06,-3.97E-07
767,-2.46E-06,1.56E-05,3.11E-05,7.89E-05,-1.01E-05,-4.72E-06
768,-1.97E-06,1.26E-05,3.81E-05,8.58E-06,-1.22E-05,-1.23E-06
769,7.29E-06,1.08E-05,3.43E-05,-8.14E-07,-1.38E-05,6.88E-06
770,1.72E-05,1.22E-05,2.81E-05,5.99E-05,-1.37E-05,1.27E-05
771,2.38E-05,1.50E-05,2.94E-05,0.000159245,-1.07E-05,1.21E-05
772,2.15E-05,1.63E-05,3.20E-05,0.000182201,-6.79E-06,4.29E-06
773,8.81E-06,1.35E-05,3.51E-05,8.92E-05,-4.77E-06,-4.37E-06
774,4.21E-06,8.28E-06,3.46E-05,-8.37E-07,-6.34E-06,-3.46E-06
775,1.06E-05,3.04E-06,2.69E-05,-5.95E-06,-1.01E-05,2.28E-06
776,1.18E-05,7.04E-07,1.89E-05,2.28E-05,-1.17E-05,4.38E-06
777,7.08E-06,3.43E-06,1.80E-05,1.63E-05,-1.21E-05,6.36E-06
778,5.04E-06,8.31E-06,2.23E-05,1.66E-05,-1.24E-05,8.80E-06
779,5.80E-06,1.26E-05,2.37E-05,7.73E-05,-1.27E-05,1.13E-05
780,2.34E-06,1.43E-05,2.18E-05,0.000140604,-1.28E-05,1.07E-05
781,-9.52E-06,1.09E-05,2.13E-05,0.000107132,-1.14E-05,6.89E-06
782,-2.00E-05,6.16E-06,1.98E-05,2.38E-05,-9.14E-06,6.13E-06
783,-1.56E-05,4.89E-06,1.07E-05,-2.13E-05,-7.80E-06,9.91E-06
784,-2.64E-06,7.18E-06,1.46E-06,-3.80E-06,-7.91E-06,1.38E-05
785,4.00E-06,1.10E-05,3.84E-06,7.86E-05,-7.53E-06,1.72E-05
786,2.40E-07,1.28E-05,1.18E-05,0.00016778,-5.56E-06,1.95E-05
787,-1.06E-05,1.06E-05,1.77E-05,0.000165558,-3.80E-06,1.79E-05
788,-2.23E-05,7.09E-06,2.22E-05,7.99E-05,-4.15E-06,1.62E-05
789,-2.56E-05,5.66E-06,2.47E-05,8.88E-06,-7.35E-06,2.02E-05
790,-2.01E-05,6.12E-06,2.42E-05,4.34E-06,-1.32E-05,2.72E-05
791,-1.32E-05,7.63E-06,2.41E-05,7.25E-05,-1.79E-05,2.97E-05
792,-7.81E-06,1.08E-05,2.50E-05,0.000159383,-1.82E-05,2.65E-05
793,-5.51E-06,1.38E-05,2.63E-05,0.000166105,-1.62E-05,2.05E-05
794,-8.84E-06,1.46E-05,2.91E-05,8.47E-05,-1.37E-05,1.52E-05
795,-1.20E-05,1.32E-05,3.12E-05,1.94E-05,-9.92E-06,1.40E-05
796,-7.80E-06,9.83E-06,2.82E-05,1.46E-05,-5.22E-06,1.72E-05
797,-1.27E-06,7.26E-06,2.48E-05,7.08E-05,-3.98E-06,2.10E-05
798,3.86E-07,7.68E-06,2.49E-05,0.000151924,-7.18E-06,2.18E-05
799,-7.64E-06,9.11E-06,2.61E-05,0.000155247,-1.13E-05,1.62E-05
800,-1.97E-05,8.20E-06,3.18E-05,5.15E-05,-1.45E-05,9.78E-06
801,-1.99E-05,7.00E-06,3.77E-05,-3.98E-05,-1.62E-05,1.11E-05
802,-6.52E-06,9.17E-06,3.53E-05,-3.83E-05,-1.33E-05,1.56E-05
803,3.22E-06,1.21E-05,2.67E-05,-2.13E-06,-5.06E-06,1.80E-05
804,2.62E-06,1.27E-05,2.43E-05,-7.67E-06,2.33E-06,1.98E-05
805,-2.22E-06,1.27E-05,3.13E-05,-1.12E-05,2.96E-06,2.07E-05
806,-6.12E-06,1.42E-05,3.71E-05,5.45E-05,-2.00E-06,2.30E-05
807,-1.01E-05,1.60E-05,3.77E-05,0.000131086,-8.21E-06,2.45E-05
808,-2.26E-05,1.68E-05,3.95E-05,0.000100766,-1.39E-05,2.07E-05
809,-3.74E-05,1.68E-05,4.16E-05,9.73E-06,-1.89E-05,1.77E-05
810,-3.75E-05,1.63E-05,3.57E-05,-4.10E-05,-2.06E-05,2.15E-05
811,-2.41E-05,1.53E-05,2.61E-05,-2.28E-05,-1.90E-05,2.81E-05
812,-1.17E-05,1.48E-05,2.44E-05,6.41E-05,-1.66E-05,3.21E-05
813,-9.31E-06,1.46E-05,3.01E-05,0.000154864,-1.57E-05,3.24E-05
814,-1.69E-05,1.24E-05,3.57E-05,0.000151105,-1.73E-05,2.91E-05
815,-2.58E-05,9.29E-06,3.50E-05,6.45E-05,-2.03E-05,2.54E-05
816,-2.52E-05,8.99E-06,2.49E-05,-7.00E-06,-2.25E-05,2.58E-05
817,-1.69E-05,1.18E-05,1.23E-05,-1.15E-05,-2.20E-05,2.97E-05
818,-1.25E-05,1.44E-05,1.15E-05,5.91E-05,-1.94E-05,3.12E-05
819,-1.60E-05,1.56E-05,2.12E-05,0.000150577,-1.72E-05,2.60E-05
820,-2.32E-05,1.55E-05,3.07E-05,0.000160196,-1.74E-05,1.56E-05
821,-2.95E-05,1.47E-05,3.73E-05,7.77E-05,-1.91E-05,8.18E-06
822,-2.93E-05,1.47E-05,3.75E-05,9.09E-06,-1.93E-05,9.48E-06
823,-2.03E-05,1.58E-05,2.90E-05,4.11E-07,-1.56E-05,1.54E-05
824,-8.45E-06,1.70E-05,2.42E-05,5.34E-05,-1.12E-05,1.74E-05
825,-2.98E-07,1.68E-05,2.96E-05,0.00013954,-1.00E-05,1.48E-05
826,-2.51E-06,1.57E-05,3.56E-05,0.00015715,-1.23E-05,1.03E-05
827,-1.20E-05,1.39E-05,4.12E-05,7.18E-05,-1.42E-05,9.17E-06
828,-1.36E-05,1.20E-05,4.46E-05,-4.03E-06,-1.17E-05,1.79E-05
829,-8.45E-06,1.25E-05,3.92E-05,1.96E-06,-8.77E-06,2.77E-05
830,-7.67E-06,1.44E-05,3.07E-05,2.90E-05,-9.15E-06,2.96E-05
831,-8.35E-06,1.46E-05,3.26E-05,1.50E-05,-1.08E-05,2.75E-05
832,-4.35E-06,1.33E-05,4.32E-05,1.23E-05,-1.30E-05,2.47E-05
833,2.99E-06,1.37E-05,4.96E-05,7.94E-05,-1.32E-05,2.25E-05
834,6.85E-06,1.58E-05,4.76E-05,0.00015411,-1.03E-05,2.07E-05
835,1.84E-06,1.78E-05,4.27E-05,0.000126993,-3.88E-06,1.82E-05
836,-5.71E-06,1.95E-05,3.72E-05,4.08E-05,4.12E-06,1.40E-05
837,-2.88E-06,2.09E-05,2.76E-05,-1.35E-05,9.42E-06,1.13E-05
838,6.78E-06,2.14E-05,2.01E-05,-6.51E-07,9.79E-06,1.17E-05
839,1.09E-05,2.32E-05,2.35E-05,8.27E-05,7.49E-06,1.19E-05
840,5.91E-06,2.64E-05,3.07E-05,0.000166294,5.69E-06,8.26E-06
841,-4.80E-06,2.82E-05,3.61E-05,0.00014872,4.62E-06,1.55E-06
842,-1.27E-05,2.84E-05,4.23E-05,5.03E-05,3.63E-06,-2.31E-06
843,-8.63E-06,2.89E-05,4.37E-05,-2.23E-05,3.56E-06,5.72E-07
844,2.97E-06,2.95E-05,3.50E-05,-1.92E-05,4.93E-06,7.09E-06
845,8.97E-06,2.77E-05,2.72E-05,6.16E-05,6.40E-06,1.10E-05
846,4.67E-06,2.42E-05,2.93E-05,0.000160523,7.15E-06,9.84E-06
847,-5.66E-06,2.09E-05,3.62E-05,0.000169016,6.92E-06,4.92E-06
848,-1.49E-05,1.83E-05,4.06E-05,7.59E-05,5.86E-06,2.07E-06
849,-1.37E-05,1.64E-05,3.59E-05,-5.24E-06,3.54E-06,4.76E-06
850,-4.12E-06,1.56E-05,2.43E-05,-1.97E-05,-1.47E-06,9.91E-06
851,-1.96E-06,1.50E-05,1.88E-05,4.11E-05,-8.40E-06,1.30E-05
852,-9.62E-06,1.53E-05,2.30E-05,0.000140177,-1.26E-05,1.14E-05
853,-1.57E-05,1.64E-05,3.14E-05,0.000159013,-1.20E-05,6.30E-06
854,-1.71E-05,1.58E-05,4.04E-05,6.52E-05,-9.09E-06,5.41E-06
855,-1.48E-05,1.44E-05,3.95E-05,-1.17E-05,-6.24E-06,1.30E-05
856,-8.95E-06,1.31E-05,3.05E-05,-4.52E-06,-3.94E-06,2.07E-05
857,-6.63E-06,1.16E-05,2.49E-05,2.01E-05,-2.54E-06,2.21E-05
858,-4.48E-06,1.14E-05,2.57E-05,3.23E-06,-5.10E-06,1.86E-05
859,3.61E-06,1.19E-05,2.97E-05,7.81E-07,-1.16E-05,1.41E-05
860,1.43E-05,1.22E-05,3.40E-05,7.00E-05,-1.62E-05,1.20E-05
861,1.92E-05,1.29E-05,3.66E-05,0.000144976,-1.76E-05,9.92E-06
862,7.31E-06,1.22E-05,3.76E-05,0.000114449,-1.77E-05,4.92E-06
863,-1.11E-05,1.08E-05,3.76E-05,2.13E-05,-1.77E-05,2.12E-06
864,-1.36E-05,9.18E-06,3.02E-05,-3.87E-05,-1.89E-05,5.14E-06
865,-2.59E-06,7.88E-06,2.10E-05,-2.88E-05,-2.06E-05,1.08E-05
866,7.41E-06,7.99E-06,2.32E-05,5.23E-05,-1.95E-05,1.46E-05
867,1.44E-05,8.76E-06,3.19E-05,0.000132251,-1.31E-05,1.42E-05
868,1.73E-05,8.42E-06,3.59E-05,0.000114074,-4.73E-06,1.27E-05
869,1.20E-05,5.97E-06,3.51E-05,1.84E-05,1.95E-06,1.47E-05
870,4.35E-06,2.20E-06,3.21E-05,-5.33E-05,7.23E-06,2.11E-05
871,7.07E-07,-8.72E-07,2.90E-05,-5.12E-05,1.27E-05,2.72E-05
872,-8.42E-07,-1.52E-06,3.08E-05,2.78E-05,1.41E-05,2.83E-05
873,-3.06E-06,-2.69E-07,3.71E-05,0.000124294,6.86E-06,2.35E-05
874,-9.24E-06,1.42E-06,4.24E-05,0.000132657,-4.85E-06,1.71E-05
875,-2.02E-05,2.73E-06,4.29E-05,4.09E-05,-1.31E-05,1.46E-05
876,-2.57E-05,3.55E-06,3.54E-05,-3.98E-05,-1.56E-05,1.63E-05
877,-1.65E-05,2.95E-06,2.47E-05,-5.22E-05,-1.41E-05,1.66E-05
878,-1.88E-06,1.48E-06,2.21E-05,8.21E-06,-1.00E-05,1.35E-05
879,4.83E-06,1.55E-06,2.70E-05,9.92E-05,-4.28E-06,9.68E-06
880,-3.63E-07,4.58E-06,3.02E-05,0.000109627,-1.16E-06,5.66E-06
881,-1.15E-05,7.60E-06,3.15E-05,1.18E-05,-2.84E-06,2.83E-06
882,-1.66E-05,6.57E-06,3.04E-05,-7.04E-05,-5.14E-06,3.27E-06
883,-1.48E-05,3.74E-06,2.84E-05,-6.27E-05,-7.28E-06,6.88E-06
884,-1.45E-05,4.75E-06,2.69E-05,-2.70E-05,-1.06E-05,1.24E-05
885,-1.02E-05,9.57E-06,2.81E-05,-3.04E-05,-1.36E-05,1.82E-05
886,-6.98E-07,1.42E-05,3.23E-05,-2.70E-05,-1.41E-05,2.22E-05
887,2.64E-06,1.62E-05,3.62E-05,3.55E-05,-1.06E-05,2.31E-05
888,-2.84E-06,1.54E-05,3.97E-05,9.67E-05,-6.25E-06,1.89E-05
889,-1.58E-05,1.20E-05,4.12E-05,5.84E-05,-2.15E-06,1.24E-05
890,-2.85E-05,7.70E-06,4.06E-05,-2.75E-05,1.93E-06,1.22E-05
891,-2.71E-05,5.96E-06,3.46E-05,-7.14E-05,3.13E-06,1.95E-05
892,-1.65E-05,7.33E-06,2.69E-05,-5.04E-05,-1.86E-07,2.64E-05
893,-1.12E-05,1.03E-05,2.64E-05,3.77E-05,-4.85E-06,2.63E-05
894,-1.39E-05,1.25E-05,3.27E-05,0.000129022,-7.34E-06,1.93E-05
895,-2.06E-05,1.26E-05,3.97E-05,0.000120611,-8.19E-06,1.17E-05
896,-2.69E-05,1.12E-05,4.24E-05,2.93E-05,-8.75E-06,1.02E-05
897,-2.62E-05,9.51E-06,3.92E-05,-3.84E-05,-9.18E-06,1.44E-05
898,-1.71E-05,8.73E-06,3.45E-05,-3.41E-05,-9.36E-06,1.80E-05
899,-8.13E-06,9.02E-06,3.70E-05,4.12E-05,-1.08E-05,1.85E-05
900,-5.08E-06,1.06E-05,4.22E-05,0.00013033,-1.46E-05,1.71E-05
901,-9.92E-06,1.24E-05,4.27E-05,0.000132133,-1.82E-05,1.38E-05
902,-1.96E-05,1.36E-05,4.10E-05,4.03E-05,-1.76E-05,1.04E-05
903,-2.27E-05,1.45E-05,3.79E-05,-3.30E-05,-1.48E-05,1.10E-05
904,-1.61E-05,1.38E-05,3.02E-05,-4.02E-05,-1.39E-05,1.56E-05
905,-1.05E-05,1.12E-05,2.55E-05,2.11E-05,-1.47E-05,1.90E-05
906,-8.50E-06,9.92E-06,2.70E-05,0.000119778,-1.72E-05,1.67E-05
907,-9.15E-06,1.04E-05,3.05E-05,0.000142971,-2.15E-05,9.98E-06
908,-1.09E-05,1.10E-05,3.76E-05,4.71E-05,-2.57E-05,6.06E-06
909,-6.50E-06,1.31E-05,4.36E-05,-4.77E-05,-2.47E-05,8.65E-06
910,1.21E-07,1.48E-05,4.20E-05,-5.47E-05,-1.92E-05,1.08E-05
911,3.65E-07,1.52E-05,3.85E-05,-2.30E-05,-1.58E-05,1.05E-05
912,1.98E-06,1.59E-05,3.91E-05,-2.09E-05,-1.60E-05,1.29E-05
913,5.48E-06,1.56E-05,4.12E-05,-1.02E-05,-1.67E-05,1.49E-05
914,5.63E-06,1.38E-05,4.08E-05,5.95E-05,-1.45E-05,1.51E-05
915,4.62E-06,1.34E-05,3.94E-05,0.000133656,-1.15E-05,1.27E-05
916,-5.23E-06,1.48E-05,3.93E-05,0.000112453,-1.11E-05,8.92E-06
917,-2.11E-05,1.66E-05,3.91E-05,3.36E-05,-1.01E-05,1.05E-05
918,-2.58E-05,1.94E-05,3.01E-05,-2.26E-05,-6.89E-06,1.59E-05
919,-2.04E-05,2.10E-05,1.90E-05,-2.14E-05,-5.01E-06,1.76E-05
920,-1.65E-05,2.14E-05,1.99E-05,5.38E-05,-5.06E-06,1.51E-05
921,-1.89E-05,2.17E-05,2.56E-05,0.000140513,-4.98E-06,1.19E-05
922,-2.46E-05,2.10E-05,2.54E-05,0.000133229,-5.62E-06,1.09E-05
923,-2.61E-05,1.84E-05,2.15E-05,4.23E-05,-7.95E-06,1.33E-05
924,-1.82E-05,1.45E-05,1.74E-05,-3.37E-05,-1.07E-05,1.66E-05
925,-4.98E-06,1.13E-05,1.52E-05,-4.44E-05,-1.24E-05,1.72E-05
926,6.28E-06,1.08E-05,1.89E-05,2.34E-05,-1.33E-05,1.54E-05
927,1.38E-05,1.23E-05,2.51E-05,0.000121492,-1.33E-05,1.27E-05
928,1.48E-05,1.16E-05,2.92E-05,0.000140384,-1.24E-05,8.45E-06
929,6.02E-06,8.29E-06,3.22E-05,5.53E-05,-1.00E-05,4.67E-06
930,-2.78E-06,6.67E-06,3.11E-05,-2.43E-05,-7.61E-06,5.85E-06
931,-1.08E-06,8.86E-06,2.53E-05,-3.55E-05,-7.49E-06,9.14E-06
932,5.61E-06,1.23E-05,2.40E-05,3.01E-05,-7.27E-06,9.12E-06
933,1.09E-05,1.36E-05,2.97E-05,0.00012732,-5.83E-06,6.71E-06
934,1.11E-05,1.34E-05,3.80E-05,0.000144455,-5.49E-06,2.52E-06
935,4.33E-06,1.40E-05,4.31E-05,5.64E-05,-6.70E-06,1.26E-06
936,2.03E-06,1.44E-05,4.05E-05,-1.50E-05,-7.58E-06,8.99E-06
937,8.77E-06,1.36E-05,3.33E-05,-3.06E-06,-8.24E-06,1.72E-05
938,1.36E-05,1.14E-05,2.55E-05,2.38E-05,-7.23E-06,1.80E-05
939,1.57E-05,1.01E-05,2.43E-05,6.78E-06,-3.15E-06,1.54E-05
940,1.62E-05,1.02E-05,2.92E-05,2.16E-06,-1.01E-07,1.22E-05
941,1.24E-05,1.11E-05,3.29E-05,6.55E-05,4.49E-07,9.54E-06
942,5.93E-06,1.17E-05,3.29E-05,0.000133187,-4.77E-07,8.81E-06
943,-4.97E-06,9.97E-06,3.10E-05,0.000101968,-3.79E-06,8.73E-06
944,-1.70E-05,7.36E-06,3.05E-05,2.49E-05,-7.16E-06,9.23E-06
945,-1.58E-05,5.95E-06,2.55E-05,-1.22E-05,-8.13E-06,1.16E-05
946,-4.59E-06,6.28E-06,1.77E-05,6.94E-06,-8.00E-06,1.48E-05
947,2.28E-06,1.05E-05,1.52E-05,8.55E-05,-8.20E-06,1.72E-05
948,9.61E-07,1.74E-05,1.56E-05,0.000166167,-7.93E-06,1.75E-05
949,-6.68E-06,1.94E-05,1.63E-05,0.000151573,-5.21E-06,1.37E-05
950,-1.65E-05,1.58E-05,1.75E-05,6.00E-05,-1.54E-06,9.52E-06
951,-1.94E-05,1.20E-05,1.29E-05,-5.29E-06,1.52E-07,1.09E-05
952,-1.29E-05,1.12E-05,2.01E-06,-2.14E-06,-6.97E-07,1.52E-05
953,-4.55E-06,1.33E-05,-2.17E-06,6.61E-05,-2.44E-06,1.53E-05
954,-1.68E-08,1.65E-05,3.82E-06,0.000147344,-4.01E-06,1.05E-05
955,-2.28E-06,1.73E-05,1.11E-05,0.000147782,-5.77E-06,5.19E-06
956,-1.11E-05,1.50E-05,1.70E-05,6.02E-05,-7.38E-06,2.86E-06
957,-1.65E-05,1.43E-05,1.99E-05,-8.60E-06,-7.41E-06,4.46E-06
958,-1.02E-05,1.60E-05,1.69E-05,-1.07E-05,-5.08E-06,9.98E-06
959,-8.90E-08,1.68E-05,1.66E-05,5.29E-05,-2.52E-06,1.69E-05
960,3.88E-06,1.66E-05,2.39E-05,0.000150154,-1.59E-06,1.90E-05
961,-2.82E-06,1.68E-05,3.02E-05,0.000175528,-8.54E-07,1.25E-05
962,-1.65E-05,1.69E-05,3.49E-05,9.14E-05,2.79E-07,5.38E-06
963,-2.01E-05,1.75E-05,3.83E-05,1.58E-05,1.20E-06,1.01E-05
964,-7.10E-06,1.89E-05,3.68E-05,2.20E-05,6.68E-07,2.07E-05
965,6.40E-06,1.73E-05,3.46E-05,4.84E-05,-2.04E-06,2.55E-05
966,1.58E-05,1.21E-05,3.61E-05,3.02E-05,-4.56E-06,2.44E-05
967,2.62E-05,8.23E-06,3.90E-05,2.33E-05,-6.71E-06,1.95E-05
968,3.04E-05,9.07E-06,3.90E-05,8.75E-05,-9.25E-06,1.42E-05
969,2.36E-05,1.11E-05,3.52E-05,0.000158496,-1.14E-05,1.09E-05
970,9.62E-06,8.69E-06,3.21E-05,0.00012741,-1.14E-05,8.91E-06
971,-3.01E-06,4.29E-06,3.00E-05,3.99E-05,-9.30E-06,8.54E-06
972,-5.86E-06,3.03E-06,2.24E-05,-1.13E-05,-8.21E-06,8.84E-06
973,-2.48E-06,4.56E-06,1.38E-05,2.64E-06,-8.65E-06,9.89E-06
974,7.92E-07,7.05E-06,1.47E-05,8.66E-05,-8.26E-06,1.48E-05
975,1.42E-06,1.13E-05,1.97E-05,0.000177008,-6.52E-06,2.07E-05
976,-3.02E-06,1.56E-05,2.18E-05,0.000170115,-5.56E-06,2.18E-05
977,-1.03E-05,1.68E-05,2.25E-05,7.71E-05,-7.32E-06,1.90E-05
978,-1.10E-05,1.49E-05,2.05E-05,2.66E-06,-1.19E-05,1.72E-05
979,-4.75E-06,1.26E-05,1.43E-05,-1.93E-06,-1.57E-05,1.81E-05
980,-3.68E-06,1.25E-05,1.15E-05,6.44E-05,-1.42E-05,1.99E-05
981,-1.19E-05,1.41E-05,1.39E-05,0.00014417,-9.51E-06,1.95E-05
982,-2.10E-05,1.51E-05,1.67E-05,0.000136769,-6.77E-06,1.50E-05
983,-2.33E-05,1.51E-05,2.03E-05,3.71E-05,-5.77E-06,9.81E-06
984,-1.68E-05,1.42E-05,1.72E-05,-4.12E-05,-4.96E-06,8.20E-06
985,-6.95E-06,1.23E-05,3.85E-06,-4.58E-05,-4.42E-06,8.74E-06
986,-3.20E-06,1.16E-05,-2.84E-06,2.66E-05,-5.09E-06,8.46E-06
987,-3.88E-06,1.39E-05,3.69E-06,0.000138478,-5.75E-06,9.61E-06
988,-8.76E-06,1.57E-05,1.07E-05,0.000172405,-5.80E-06,9.41E-06
989,-1.85E-05,1.34E-05,1.42E-05,8.60E-05,-4.71E-06,6.38E-06
990,-1.91E-05,1.14E-05,1.67E-05,4.28E-06,-2.73E-06,8.29E-06
991,-9.94E-06,1.35E-05,1.59E-05,6.48E-06,-3.24E-06,1.36E-05
992,-8.91E-06,2.00E-05,9.89E-06,3.19E-05,-5.87E-06,1.64E-05
993,-9.07E-06,2.41E-05,9.90E-06,2.02E-05,-7.47E-06,1.73E-05
994,-1.96E-08,2.15E-05,1.99E-05,1.89E-05,-6.93E-06,1.86E-05
995,8.36E-06,1.91E-05,2.40E-05,8.31E-05,-5.69E-06,2.24E-05
996,5.19E-06,2.12E-05,1.70E-05,0.000154392,-5.68E-06,2.41E-05
997,-1.00E-05,2.10E-05,9.87E-06,0.000124668,-5.99E-06,2.01E-05
998,-2.21E-05,1.66E-05,9.85E-06,2.99E-05,-4.25E-06,1.62E-05
999,-1.55E-05,1.30E-05,8.76E-06,-4.10E-05,-2.42E-06,1.80E-05
1000,2.62E-06,1.20E-05,5.90E-06,-4.40E-05,-5.00E-06,2.26E-05
1001,1.45E-05,1.51E-05,1.12E-05,3.78E-05,-1.10E-05,2.39E-05
1002,1.32E-05,2.04E-05,2.12E-05,0.000136708,-1.52E-05,1.90E-05
1003,1.51E-06,2.28E-05,2.82E-05,0.000139392,-1.52E-05,1.25E-05
1004,-1.14E-05,2.03E-05,2.98E-05,5.20E-05,-1.33E-05,1.16E-05
1005,-1.41E-05,1.60E-05,2.36E-05,-2.11E-05,-1.11E-05,1.64E-05
1006,-5.86E-06,1.36E-05,1.30E-05,-2.33E-05,-1.01E-05,2.05E-05
1007,2.69E-06,1.35E-05,9.91E-06,4.86E-05,-1.23E-05,2.08E-05
1008,3.93E-06,1.47E-05,1.69E-05,0.000136217,-1.82E-05,1.80E-05
1009,-4.51E-06,1.57E-05,2.63E-05,0.00013719,-2.34E-05,1.28E-05
1010,-1.83E-05,1.53E-05,3.21E-05,4.21E-05,-2.25E-05,7.79E-06
1011,-2.25E-05,1.50E-05,2.87E-05,-3.47E-05,-1.87E-05,6.48E-06
1012,-1.09E-05,1.62E-05,1.71E-05,-3.59E-05,-1.99E-05,6.40E-06
1013,5.85E-07,1.68E-05,1.14E-05,3.58E-05,-2.50E-05,4.65E-06
1014,2.07E-07,1.40E-05,1.76E-05,0.000135876,-2.59E-05,3.61E-06
1015,-1.05E-05,9.75E-06,2.61E-05,0.000157679,-1.91E-05,2.90E-06
1016,-2.34E-05,5.10E-06,3.08E-05,6.90E-05,-7.81E-06,2.33E-06
1017,-2.50E-05,9.68E-07,2.99E-05,-1.08E-05,-2.23E-07,3.81E-06
1018,-1.80E-05,1.41E-06,2.10E-05,-6.77E-06,-5.98E-07,5.25E-06
1019,-1.73E-05,5.86E-06,1.09E-05,2.38E-05,-6.01E-06,5.84E-06
1020,-1.81E-05,8.92E-06,1.26E-05,2.43E-05,-1.09E-05,7.67E-06
1021,-1.30E-05,7.49E-06,2.26E-05,3.81E-05,-1.12E-05,8.64E-06
1022,-7.13E-06,5.75E-06,2.90E-05,0.000109694,-8.74E-06,7.24E-06
1023,-7.47E-06,7.67E-06,2.83E-05,0.000177645,-6.82E-06,3.39E-06
1024,-1.85E-05,1.02E-05,2.97E-05,0.000142398,-8.29E-06,-1.68E-06
1025,-2.80E-05,1.04E-05,3.52E-05,5.43E-05,-1.27E-05,-3.61E-06
1026,-2.18E-05,9.98E-06,3.07E-05,1.51E-07,-1.64E-05,-4.52E-07
1027,-1.03E-05,1.06E-05,1.84E-05,6.85E-06,-1.72E-05,5.18E-06
1028,-6.41E-06,1.09E-05,1.30E-05,8.76E-05,-1.67E-05,8.86E-06
1029,-7.27E-06,1.05E-05,1.33E-05,0.000181651,-1.53E-05,7.34E-06
1030,-8.25E-06,9.48E-06,1.34E-05,0.000178884,-1.11E-05,1.93E-06
1031,-8.99E-06,7.53E-06,1.29E-05,8.66E-05,-4.36E-06,-8.09E-07
1032,-5.32E-06,5.17E-06,1.13E-05,9.90E-06,3.32E-06,2.19E-06
1033,4.84E-06,3.22E-06,9.70E-06,1.23E-06,8.60E-06,7.41E-06
1034,1.56E-05,2.03E-06,1.26E-05,6.34E-05,8.34E-06,1.10E-05
1035,1.91E-05,1.50E-06,1.71E-05,0.000145282,2.31E-06,1.19E-05
1036,1.25E-05,7.08E-07,1.95E-05,0.000146268,-5.17E-06,9.54E-06
1037,3.03E-06,-4.31E-07,2.33E-05,5.45E-05,-9.12E-06,6.10E-06
1038,3.52E-06,4.28E-08,2.50E-05,-1.85E-05,-8.57E-06,5.92E-06
1039,1.29E-05,4.52E-06,1.94E-05,-2.16E-05,-7.45E-06,7.45E-06
1040,1.74E-05,1.09E-05,1.92E-05,4.53E-05,-6.95E-06,6.18E-06
1041,1.27E-05,1.57E-05,2.78E-05,0.000142714,-5.08E-06,1.20E-06
1042,1.23E-06,1.62E-05,3.26E-05,0.000162744,-2.88E-06,-4.73E-06
1043,-1.44E-05,1.21E-05,3.37E-05,7.17E-05,-3.16E-06,-5.71E-06
1044,-2.19E-05,8.97E-06,3.55E-05,-1.14E-05,-5.69E-06,1.13E-06
1045,-1.54E-05,8.75E-06,3.52E-05,-1.10E-05,-8.64E-06,9.31E-06
1046,-1.24E-05,9.06E-06,3.32E-05,1.51E-05,-1.12E-05,1.35E-05
1047,-1.60E-05,9.38E-06,3.65E-05,2.02E-06,-1.27E-05,1.39E-05
1048,-1.85E-05,1.03E-05,4.31E-05,-3.95E-06,-1.26E-05,1.31E-05
1049,-1.84E-05,1.29E-05,4.51E-05,5.92E-05,-1.26E-05,1.43E-05
1050,-1.89E-05,1.65E-05,4.36E-05,0.000131308,-1.44E-05,1.42E-05
1051,-2.96E-05,1.82E-05,4.44E-05,9.95E-05,-1.61E-05,9.78E-06
1052,-4.24E-05,1.73E-05,4.64E-05,8.15E-06,-1.54E-05,7.36E-06
1053,-3.90E-05,1.56E-05,4.07E-05,-4.36E-05,-1.34E-05,1.22E-05
1054,-2.35E-05,1.51E-05,3.07E-05,-2.11E-05,-1.09E-05,1.96E-05
1055,-1.39E-05,1.77E-05,2.84E-05,7.55E-05,-5.74E-06,2.45E-05
1056,-1.36E-05,2.17E-05,3.22E-05,0.000175653,1.49E-06,2.62E-05
1057,-1.50E-05,2.17E-05,3.65E-05,0.000169245,5.44E-06,2.50E-05
1058,-1.35E-05,1.68E-05,4.08E-05,6.81E-05,4.09E-06,2.06E-05
1059,-6.70E-06,1.23E-05,4.12E-05,-1.42E-05,-1.17E-06,1.55E-05
1060,1.48E-06,1.21E-05,3.60E-05,-1.89E-05,-8.37E-06,1.31E-05
1061,4.63E-06,1.37E-05,3.27E-05,5.13E-05,-1.44E-05,1.34E-05
1062,1.55E-06,1.25E-05,3.41E-05,0.000133827,-1.74E-05,1.37E-05
1063,-7.47E-06,9.70E-06,3.62E-05,0.000127437,-1.84E-05,1.14E-05
1064,-2.08E-05,9.38E-06,3.95E-05,2.72E-05,-1.76E-05,8.61E-06
1065,-2.61E-05,1.19E-05,4.05E-05,-5.28E-05,-1.37E-05,1.11E-05
1066,-1.49E-05,1.39E-05,3.55E-05,-5.87E-05,-9.10E-06,1.88E-05
1067,6.25E-07,1.52E-05,3.38E-05,1.19E-05,-7.36E-06,2.39E-05
1068,8.43E-06,1.72E-05,3.86E-05,0.00011761,-8.54E-06,2.30E-05
1069,6.32E-06,1.73E-05,4.12E-05,0.000142836,-7.84E-06,1.67E-05
1070,-3.20E-06,1.39E-05,4.26E-05,5.17E-05,-2.00E-06,9.51E-06
1071,-7.64E-06,1.10E-05,4.30E-05,-3.54E-05,6.81E-06,1.17E-05
1072,-3.26E-06,1.16E-05,3.79E-05,-4.01E-05,1.08E-05,1.80E-05
1073,-3.45E-06,1.41E-05,3.09E-05,-1.37E-05,5.33E-06,1.68E-05
1074,-4.19E-06,1.54E-05,3.19E-05,-1.62E-05,-3.10E-06,1.33E-05
1075,2.64E-06,1.42E-05,4.18E-05,-3.74E-06,-6.59E-06,1.42E-05
1076,1.07E-05,1.31E-05,4.88E-05,6.93E-05,-4.21E-06,1.68E-05
1077,1.22E-05,1.52E-05,4.88E-05,0.000137729,3.68E-07,1.54E-05
1078,1.91E-06,1.78E-05,5.11E-05,0.000106182,2.30E-06,1.05E-05
1079,-1.25E-05,1.71E-05,5.54E-05,2.11E-05,-1.83E-06,9.57E-06
1080,-1.42E-05,1.43E-05,4.97E-05,-3.29E-05,-8.73E-06,1.63E-05
1081,-3.78E-06,1.15E-05,3.68E-05,-2.34E-05,-1.20E-05,2.27E-05
1082,3.33E-06,1.08E-05,3.05E-05,5.87E-05,-9.39E-06,2.26E-05
1083,6.48E-07,1.16E-05,3.23E-05,0.000146214,-5.25E-06,1.93E-05
1084,-7.88E-06,1.03E-05,3.70E-05,0.000137267,-5.61E-06,1.57E-05
1085,-1.44E-05,7.87E-06,4.22E-05,4.73E-05,-1.10E-05,1.36E-05
1086,-1.27E-05,8.36E-06,4.26E-05,-2.45E-05,-1.59E-05,1.50E-05
1087,-4.62E-06,1.05E-05,3.68E-05,-2.73E-05,-1.55E-05,1.73E-05
1088,1.01E-06,1.04E-05,3.40E-05,4.50E-05,-1.06E-05,1.77E-05
1089,-1.05E-06,7.91E-06,3.86E-05,0.00013397,-6.04E-06,1.62E-05
1090,-1.01E-05,5.09E-06,4.43E-05,0.000134074,-5.10E-06,1.28E-05
1091,-1.99E-05,3.96E-06,4.79E-05,4.06E-05,-8.02E-06,1.05E-05
1092,-2.10E-05,4.51E-06,4.76E-05,-3.25E-05,-1.35E-05,1.26E-05
1093,-1.32E-05,4.51E-06,4.38E-05,-3.51E-05,-1.83E-05,1.76E-05
1094,-7.58E-06,4.02E-06,4.42E-05,3.15E-05,-1.92E-05,2.08E-05
1095,-6.44E-06,5.73E-06,4.80E-05,0.000126333,-1.63E-05,2.01E-05
1096,-9.49E-06,8.35E-06,4.45E-05,0.000138512,-1.27E-05,1.49E-05
1097,-2.08E-05,7.29E-06,3.84E-05,4.03E-05,-1.08E-05,9.73E-06
1098,-2.92E-05,4.03E-06,3.88E-05,-3.96E-05,-1.08E-05,1.32E-05
1099,-2.47E-05,3.19E-06,4.00E-05,-2.71E-05,-1.14E-05,2.09E-05
1100,-1.84E-05,5.03E-06,3.69E-05,1.12E-05,-1.22E-05,2.29E-05
1101,-1.36E-05,7.11E-06,3.50E-05,4.58E-06,-1.32E-05,2.11E-05
1102,-5.69E-06,8.74E-06,3.62E-05,-6.89E-08,-1.30E-05,1.87E-05
1103,1.29E-06,1.11E-05,3.58E-05,5.73E-05,-1.29E-05,1.79E-05
1104,2.91E-06,1.26E-05,3.35E-05,0.000118705,-1.44E-05,1.92E-05
1105,-5.66E-06,1.01E-05,3.42E-05,8.44E-05,-1.54E-05,2.11E-05
1106,-1.81E-05,5.14E-06,3.67E-05,-2.50E-06,-1.51E-05,2.32E-05
1107,-1.66E-05,3.07E-06,3.14E-05,-5.91E-05,-1.37E-05,2.27E-05
1108,-4.96E-07,5.86E-06,2.25E-05,-5.55E-05,-1.26E-05,1.82E-05
1109,1.42E-05,1.14E-05,2.20E-05,2.27E-05,-1.22E-05,1.43E-05
1110,1.65E-05,1.59E-05,2.78E-05,0.000114404,-1.18E-05,1.32E-05
1111,6.86E-06,1.56E-05,3.29E-05,0.00011148,-9.97E-06,1.02E-05
1112,-6.11E-06,1.29E-05,3.47E-05,2.28E-05,-7.25E-06,6.64E-06
1113,-9.92E-06,1.30E-05,3.09E-05,-5.01E-05,-5.55E-06,8.48E-06
1114,-2.74E-06,1.64E-05,2.40E-05,-5.73E-05,-6.66E-06,1.38E-05
1115,5.99E-06,1.93E-05,2.25E-05,6.40E-06,-9.04E-06,1.63E-05
1116,8.10E-06,2.05E-05,2.67E-05,9.45E-05,-1.01E-05,1.67E-05
1117,-7.42E-07,1.98E-05,2.91E-05,0.000105344,-1.14E-05,1.71E-05
1118,-1.54E-05,1.66E-05,3.04E-05,2.15E-05,-1.48E-05,1.61E-05
1119,-2.01E-05,1.26E-05,3.04E-05,-4.98E-05,-1.79E-05,1.41E-05
1120,-1.31E-05,1.15E-05,2.49E-05,-5.37E-05,-1.74E-05,1.41E-05
1121,-8.56E-06,1.40E-05,2.06E-05,1.42E-05,-1.42E-05,1.58E-05
1122,-8.08E-06,1.65E-05,2.37E-05,0.000118351,-1.13E-05,1.65E-05
1123,-8.65E-06,1.66E-05,2.94E-05,0.000146283,-1.09E-05,1.35E-05
1124,-1.14E-05,1.53E-05,3.57E-05,6.18E-05,-1.18E-05,9.63E-06
1125,-7.77E-06,1.23E-05,3.92E-05,-2.02E-05,-1.12E-05,1.11E-05
1126,2.91E-06,1.10E-05,3.49E-05,-2.23E-05,-8.32E-06,1.56E-05
1127,9.05E-06,1.28E-05,2.81E-05,6.56E-06,-3.90E-06,1.97E-05
1128,1.32E-05,1.34E-05,2.65E-05,1.01E-06,-1.62E-06,2.28E-05
1129,1.78E-05,1.27E-05,2.92E-05,4.88E-06,-4.14E-06,2.39E-05
1130,1.78E-05,1.23E-05,3.50E-05,7.22E-05,-8.49E-06,2.21E-05
1131,1.34E-05,1.37E-05,4.11E-05,0.000139076,-1.13E-05,1.67E-05
1132,5.34E-06,1.48E-05,4.76E-05,0.000102376,-1.07E-05,1.01E-05
1133,1.86E-07,1.24E-05,5.45E-05,7.67E-06,-5.05E-06,6.76E-06
1134,8.27E-06,9.34E-06,5.06E-05,-5.38E-05,1.36E-06,8.39E-06
1135,2.30E-05,8.79E-06,3.71E-05,-4.59E-05,1.80E-06,1.27E-05
1136,2.93E-05,1.04E-05,2.97E-05,4.04E-05,-2.99E-06,1.64E-05
1137,2.63E-05,1.31E-05,3.11E-05,0.000136341,-6.86E-06,1.56E-05
1138,2.14E-05,1.40E-05,3.47E-05,0.000133519,-6.47E-06,9.52E-06
1139,1.85E-05,1.18E-05,3.57E-05,4.39E-05,-3.74E-06,3.02E-06
1140,1.88E-05,9.83E-06,3.02E-05,-2.82E-05,-1.11E-06,5.24E-07
1141,2.01E-05,1.06E-05,2.09E-05,-3.09E-05,-8.80E-07,1.36E-06
1142,1.91E-05,1.31E-05,2.01E-05,3.97E-05,-3.17E-06,2.56E-06
1143,1.64E-05,1.49E-05,2.84E-05,0.000132141,-5.50E-06,1.87E-06
1144,1.07E-05,1.45E-05,3.43E-05,0.00014592,-6.62E-06,1.65E-07
1145,7.72E-07,1.29E-05,3.47E-05,6.56E-05,-6.71E-06,1.27E-06
1146,-4.03E-06,1.16E-05,3.09E-05,-4.58E-06,-4.31E-06,6.79E-06
1147,3.01E-06,1.17E-05,2.41E-05,-1.43E-05,1.02E-06,1.22E-05
1148,1.28E-05,1.33E-05,2.32E-05,4.14E-05,4.69E-06,1.41E-05
1149,1.63E-05,1.55E-05,3.09E-05,0.000129237,2.60E-06,1.48E-05
1150,6.83E-06,1.55E-05,3.69E-05,0.000143027,-3.09E-06,1.65E-05
1151,-9.66E-06,1.22E-05,3.79E-05,5.61E-05,-6.90E-06,2.00E-05
1152,-1.56E-05,9.85E-06,3.47E-05,-1.79E-05,-6.65E-06,2.72E-05
1153,-1.21E-05,1.03E-05,2.91E-05,-1.59E-05,-4.63E-06,3.00E-05
1154,-1.18E-05,1.27E-05,2.19E-05,1.05E-05,-3.06E-06,2.20E-05
1155,-1.24E-05,1.42E-05,1.81E-05,4.61E-06,-3.48E-06,1.29E-05
1156,-7.64E-06,1.38E-05,2.18E-05,7.52E-06,-6.62E-06,1.15E-05
1157,-3.11E-07,1.61E-05,2.89E-05,7.23E-05,-8.21E-06,1.60E-05
1158,2.28E-06,2.03E-05,3.40E-05,0.000143543,-5.44E-06,1.75E-05
1159,-7.23E-06,2.13E-05,3.37E-05,0.000114072,-4.24E-07,1.27E-05
1160,-2.06E-05,1.83E-05,2.68E-05,2.39E-05,2.63E-06,7.89E-06
1161,-2.19E-05,1.35E-05,1.37E-05,-3.44E-05,9.07E-07,7.49E-06
1162,-1.34E-05,1.01E-05,4.60E-06,-2.35E-05,-4.17E-06,8.20E-06
1163,-5.13E-06,1.03E-05,7.57E-06,6.69E-05,-9.35E-06,6.47E-06
1164,-6.66E-08,1.31E-05,1.30E-05,0.00016861,-1.26E-05,2.37E-06
1165,-1.96E-06,1.52E-05,1.42E-05,0.000171697,-1.34E-05,-1.01E-06
1166,-9.38E-06,1.53E-05,1.48E-05,8.32E-05,-1.36E-05,-9.04E-07
1167,-1.01E-05,1.44E-05,1.34E-05,4.39E-06,-1.43E-05,3.64E-06
1168,-4.36E-07,1.50E-05,9.90E-06,-1.02E-05,-1.42E-05,1.10E-05
1169,7.49E-06,1.72E-05,1.11E-05,5.42E-05,-1.05E-05,1.63E-05
1170,7.75E-06,1.82E-05,1.44E-05,0.000148095,-2.65E-06,1.57E-05
1171,3.39E-06,1.68E-05,1.51E-05,0.000159524,5.07E-06,1.01E-05
1172,-4.22E-06,1.49E-05,1.61E-05,6.83E-05,9.35E-06,5.31E-06
1173,-1.04E-05,1.37E-05,1.54E-05,-1.15E-05,1.21E-05,5.98E-06
1174,-1.10E-05,1.32E-05,8.77E-06,-1.89E-05,1.36E-05,1.13E-05
1175,-9.78E-06,1.40E-05,5.71E-06,4.96E-05,1.12E-05,1.67E-05
1176,-1.10E-05,1.57E-05,1.22E-05,0.000151046,4.14E-06,1.74E-05
1177,-1.49E-05,1.67E-05,1.88E-05,0.000170561,-2.90E-06,8.74E-06
1178,-1.85E-05,1.48E-05,2.20E-05,7.87E-05,-6.75E-06,-2.34E-06
1179,-1.73E-05,1.29E-05,2.14E-05,-1.83E-06,-9.00E-06,-2.14E-06
1180,-1.79E-05,1.38E-05,1.75E-05,1.27E-05,-9.39E-06,5.14E-06
1181,-2.60E-05,1.64E-05,1.37E-05,6.55E-05,-9.56E-06,1.17E-05
1182,-2.85E-05,1.77E-05,1.50E-05,5.71E-05,-1.05E-05,1.77E-05
1183,-2.33E-05,1.69E-05,1.93E-05,3.25E-05,-1.22E-05,2.18E-05
1184,-2.12E-05,1.59E-05,1.86E-05,8.48E-05,-1.35E-05,2.46E-05
1185,-2.59E-05,1.51E-05,1.40E-05,0.000159701,-1.24E-05,2.17E-05
1186,-3.57E-05,1.23E-05,1.12E-05,0.000131876,-1.16E-05,1.42E-05
1187,-4.27E-05,8.87E-06,1.20E-05,3.69E-05,-1.29E-05,9.77E-06
1188,-3.69E-05,7.80E-06,1.10E-05,-2.17E-05,-1.55E-05,1.31E-05
1189,-2.52E-05,9.31E-06,9.14E-06,-7.68E-06,-1.70E-05,1.81E-05
1190,-1.98E-05,1.36E-05,1.20E-05,7.81E-05,-1.74E-05,1.94E-05
1191,-2.08E-05,1.84E-05,1.49E-05,0.000166324,-1.84E-05,1.85E-05
1192,-2.49E-05,1.90E-05,1.57E-05,0.000155619,-1.95E-05,1.87E-05
1193,-3.07E-05,1.56E-05,1.72E-05,5.92E-05,-1.86E-05,2.18E-05
1194,-3.33E-05,1.19E-05,1.41E-05,-2.12E-05,-1.54E-05,2.52E-05
1195,-2.78E-05,1.08E-05,6.29E-06,-3.11E-05,-1.09E-05,2.53E-05
1196,-1.85E-05,1.29E-05,3.97E-06,3.94E-05,-5.51E-06,2.11E-05
1197,-1.43E-05,1.67E-05,8.08E-06,0.000135695,-1.58E-07,1.52E-05
1198,-2.08E-05,1.94E-05,1.33E-05,0.000148371,1.36E-06,8.61E-06
1199,-3.32E-05,1.87E-05,1.87E-05,6.27E-05,-2.47E-06,4.79E-06
1200,-3.41E-05,1.66E-05,1.74E-05,-1.15E-05,-7.38E-06,7.62E-06
1201,-1.76E-05,1.55E-05,8.58E-06,-2.37E-05,-1.15E-05,1.42E-05
1202,-2.45E-06,1.53E-05,6.57E-06,2.74E-05,-1.70E-05,1.72E-05
1203,-1.18E-06,1.53E-05,1.53E-05,0.000109888,-2.29E-05,1.60E-05
1204,-8.17E-06,1.39E-05,2.45E-05,0.000121639,-2.55E-05,1.14E-05
1205,-1.57E-05,1.02E-05,2.81E-05,3.35E-05,-2.43E-05,9.46E-06
1206,-1.55E-05,8.02E-06,2.57E-05,-3.97E-05,-1.96E-05,1.42E-05
1207,-5.06E-06,8.58E-06,1.76E-05,-2.81E-05,-1.19E-05,1.67E-05
1208,4.52E-06,8.90E-06,8.20E-06,9.44E-06,-4.83E-06,1.34E-05
1209,1.00E-05,6.81E-06,7.40E-06,8.36E-07,-2.47E-06,9.33E-06
1210,1.35E-05,4.57E-06,1.72E-05,-3.46E-06,-6.33E-06,6.90E-06
1211,1.07E-05,4.80E-06,2.69E-05,6.54E-05,-1.26E-05,7.61E-06
1212,7.47E-07,6.84E-06,3.09E-05,0.000139845,-1.82E-05,8.72E-06
1213,-1.44E-05,8.96E-06,3.16E-05,0.000108602,-2.45E-05,6.25E-06
1214,-2.73E-05,1.04E-05,2.96E-05,1.99E-05,-3.02E-05,3.05E-06
1215,-2.72E-05,1.11E-05,2.07E-05,-3.31E-05,-3.25E-05,4.98E-06
1216,-1.71E-05,1.06E-05,1.22E-05,-2.16E-05,-3.15E-05,9.67E-06
1217,-1.14E-05,9.34E-06,1.47E-05,6.03E-05,-2.51E-05,1.13E-05
1218,-1.52E-05,9.08E-06,2.25E-05,0.000150479,-1.01E-05,8.82E-06
1219,-2.60E-05,8.90E-06,2.78E-05,0.000143619,8.80E-06,4.86E-06
1220,-3.74E-05,7.37E-06,3.03E-05,4.87E-05,2.04E-05,3.55E-06
1221,-3.81E-05,6.09E-06,2.98E-05,-2.87E-05,1.89E-05,7.07E-06
1222,-2.49E-05,7.34E-06,2.67E-05,-3.08E-05,9.65E-06,1.30E-05
1223,-8.19E-06,1.19E-05,2.49E-05,4.58E-05,2.60E-06,1.65E-05
1224,1.46E-06,1.69E-05,2.58E-05,0.000141004,3.78E-06,1.57E-05
1225,-1.15E-06,1.82E-05,2.93E-05,0.00015003,8.66E-06,1.12E-05
1226,-1.48E-05,1.57E-05,3.32E-05,6.22E-05,8.48E-06,8.10E-06
1227,-2.43E-05,1.31E-05,3.20E-05,-1.35E-05,3.09E-06,1.07E-05
1228,-1.77E-05,1.20E-05,2.72E-05,-2.37E-05,2.52E-07,1.52E-05
1229,-4.83E-06,1.20E-05,2.95E-05,3.79E-05,2.14E-06,1.63E-05
1230,1.56E-06,1.40E-05,3.85E-05,0.000136494,3.04E-06,1.69E-05
1231,-2.46E-06,1.60E-05,4.42E-05,0.000155291,9.00E-08,1.66E-05
1232,-1.34E-05,1.49E-05,4.76E-05,6.14E-05,-4.00E-06,1.46E-05
1233,-1.46E-05,1.32E-05,4.87E-05,-1.92E-05,-6.45E-06,1.34E-05
1234,4.43E-07,1.26E-05,4.42E-05,-1.35E-05,-8.42E-06,1.15E-05
1235,1.48E-05,1.23E-05,3.71E-05,2.05E-05,-1.14E-05,9.09E-06
1236,2.00E-05,1.24E-05,3.53E-05,1.40E-05,-1.41E-05,8.13E-06
1237,1.97E-05,1.29E-05,4.26E-05,9.70E-06,-1.66E-05,9.26E-06
1238,1.79E-05,1.34E-05,4.83E-05,7.01E-05,-1.77E-05,1.33E-05
1239,1.38E-05,1.44E-05,4.51E-05,0.000139072,-1.60E-05,1.69E-05
1240,1.08E-06,1.46E-05,4.04E-05,0.000108588,-1.35E-05,1.36E-05
1241,-1.30E-05,1.22E-05,3.72E-05,1.75E-05,-1.22E-05,6.91E-06
1242,-1.47E-05,9.44E-06,2.81E-05,-3.97E-05,-1.25E-05,3.62E-06
1243,-7.57E-06,1.01E-05,1.89E-05,-2.84E-05,-1.35E-05,2.78E-06
1244,-2.55E-06,1.47E-05,2.13E-05,5.46E-05,-1.27E-05,2.37E-06
1245,-4.09E-06,1.94E-05,2.96E-05,0.000143976,-1.09E-05,1.77E-06
1246,-1.11E-05,1.94E-05,3.47E-05,0.000138351,-1.13E-05,2.13E-06
1247,-1.64E-05,1.64E-05,3.61E-05,5.11E-05,-1.47E-05,5.94E-06
1248,-1.10E-05,1.43E-05,3.42E-05,-1.69E-05,-1.90E-05,1.19E-05
1249,1.90E-06,1.33E-05,2.92E-05,-1.93E-05,-2.16E-05,1.51E-05
1250,9.01E-06,1.36E-05,2.81E-05,4.81E-05,-2.04E-05,1.53E-05
1251,5.18E-06,1.51E-05,3.19E-05,0.000137525,-1.72E-05,1.64E-05
1252,-4.39E-06,1.56E-05,3.50E-05,0.000146757,-1.56E-05,1.81E-05
1253,-1.20E-05,1.34E-05,3.57E-05,6.11E-05,-1.50E-05,1.96E-05
1254,-1.13E-05,1.09E-05,3.02E-05,-1.02E-05,-1.39E-05,2.28E-05
1255,-4.69E-06,1.05E-05,1.98E-05,-1.52E-05,-1.18E-05,2.71E-05
1256,-6.28E-07,1.22E-05,1.70E-05,4.59E-05,-1.11E-05,2.90E-05
1257,-2.23E-06,1.52E-05,2.52E-05,0.0001357,-1.37E-05,2.85E-05
1258,-1.06E-05,1.64E-05,3.47E-05,0.00014734,-1.68E-05,2.56E-05
1259,-2.24E-05,1.30E-05,4.35E-05,5.46E-05,-1.74E-05,2.15E-05
1260,-2.25E-05,8.57E-06,4.76E-05,-2.12E-05,-1.52E-05,1.93E-05
1261,-9.84E-06,6.02E-06,4.23E-05,-1.22E-05,-1.13E-05,1.73E-05
1262,-2.91E-06,5.37E-06,3.38E-05,2.03E-05,-9.94E-06,1.53E-05
1263,-3.96E-06,6.35E-06,2.91E-05,2.03E-05,-1.10E-05,1.64E-05
1264,-4.51E-06,8.93E-06,2.77E-05,3.15E-05,-1.08E-05,1.84E-05
1265,1.86E-06,1.36E-05,2.47E-05,9.69E-05,-9.56E-06,1.92E-05
1266,1.19E-05,1.75E-05,2.50E-05,0.000156966,-9.40E-06,1.83E-05
1267,1.41E-05,1.82E-05,3.12E-05,0.000112928,-9.54E-06,1.56E-05
1268,1.05E-05,1.53E-05,3.60E-05,1.53E-05,-9.06E-06,1.40E-05
1269,1.40E-05,1.11E-05,3.10E-05,-4.15E-05,-7.35E-06,1.51E-05
1270,2.31E-05,8.95E-06,2.37E-05,-2.65E-05,-5.74E-06,1.73E-05
1271,2.57E-05,9.84E-06,2.64E-05,6.53E-05,-7.18E-06,1.89E-05
1272,1.95E-05,1.24E-05,3.24E-05,0.000165737,-1.09E-05,1.70E-05
1273,9.78E-06,1.36E-05,3.42E-05,0.000164298,-1.33E-05,1.05E-05
1274,2.89E-06,1.08E-05,3.42E-05,6.60E-05,-1.22E-05,4.03E-06
1275,2.82E-06,6.29E-06,3.34E-05,-2.11E-05,-9.35E-06,3.99E-06
1276,8.06E-06,4.75E-06,2.90E-05,-3.20E-05,-8.02E-06,8.76E-06
1277,1.27E-05,6.79E-06,2.54E-05,4.01E-05,-8.68E-06,1.16E-05
1278,1.10E-05,9.39E-06,2.72E-05,0.000134513,-1.05E-05,9.06E-06
1279,2.79E-06,1.03E-05,3.34E-05,0.000142607,-1.27E-05,2.44E-06
1280,-5.16E-06,1.08E-05,3.96E-05,4.84E-05,-1.46E-05,-1.78E-06
1281,-6.32E-06,1.18E-05,3.91E-05,-3.44E-05,-1.57E-05,2.85E-06
1282,6.38E-07,1.33E-05,3.18E-05,-3.98E-05,-1.45E-05,1.12E-05
1283,8.37E-06,1.56E-05,2.87E-05,3.60E-05,-1.28E-05,1.26E-05
1284,7.76E-06,1.76E-05,3.50E-05,0.00014446,-1.40E-05,6.09E-06
1285,-5.83E-06,1.71E-05,4.30E-05,0.000170766,-1.59E-05,-1.87E-06
1286,-2.38E-05,1.38E-05,4.60E-05,8.37E-05,-1.42E-05,-4.49E-06
1287,-2.57E-05,9.58E-06,4.28E-05,6.10E-06,-1.03E-05,3.10E-06
1288,-1.20E-05,7.68E-06,3.54E-05,2.38E-05,-6.14E-06,1.42E-05
1289,-3.43E-06,8.24E-06,2.90E-05,7.63E-05,-3.89E-06,1.92E-05
1290,4.04E-07,7.90E-06,3.11E-05,6.59E-05,-5.94E-06,1.74E-05
1291,6.34E-06,7.26E-06,3.63E-05,4.23E-05,-1.03E-05,1.42E-05
1292,1.18E-05,1.03E-05,3.61E-05,9.72E-05,-1.31E-05,1.15E-05
1293,1.05E-05,1.59E-05,3.54E-05,0.000170555,-1.26E-05,6.03E-06
1294,-2.76E-06,1.77E-05,3.71E-05,0.000139275,-1.05E-05,-1.70E-07
1295,-1.75E-05,1.37E-05,3.80E-05,4.32E-05,-1.00E-05,-3.56E-07
1296,-1.84E-05,9.01E-06,3.10E-05,-1.49E-05,-1.11E-05,8.02E-06
1297,-5.30E-06,8.11E-06,2.06E-05,-2.83E-06,-1.14E-05,1.85E-05
1298,7.80E-06,1.23E-05,1.87E-05,7.57E-05,-1.12E-05,2.39E-05
1299,1.11E-05,1.78E-05,2.35E-05,0.000155638,-1.21E-05,2.10E-05
1300,4.81E-06,1.94E-05,3.05E-05,0.00014328,-1.36E-05,1.20E-05
1301,-3.77E-06,1.66E-05,3.64E-05,5.47E-05,-1.26E-05,4.61E-06
1302,-3.78E-06,1.35E-05,3.40E-05,-1.42E-05,-8.01E-06,4.53E-06
1303,5.71E-06,1.28E-05,2.31E-05,-1.74E-05,-2.77E-06,8.76E-06
1304,1.15E-05,1.46E-05,1.74E-05,5.02E-05,-2.99E-07,1.20E-05
1305,8.68E-06,1.74E-05,2.22E-05,0.000138347,-5.64E-07,1.17E-05
1306,2.91E-06,1.78E-05,3.06E-05,0.000141152,-1.47E-06,7.73E-06
1307,-2.88E-06,1.56E-05,3.71E-05,3.96E-05,-2.19E-06,5.63E-06
1308,-4.35E-06,1.31E-05,3.63E-05,-5.37E-05,-2.06E-06,1.07E-05
1309,1.50E-06,1.15E-05,2.96E-05,-7.31E-05,3.07E-07,2.04E-05
1310,1.13E-05,1.29E-05,2.91E-05,-1.12E-05,3.11E-06,2.91E-05
1311,1.94E-05,1.53E-05,3.47E-05,8.70E-05,3.33E-06,3.49E-05
1312,1.46E-05,1.42E-05,3.61E-05,0.000105646,2.23E-06,3.42E-05
1313,-3.52E-06,1.06E-05,3.48E-05,1.58E-05,1.47E-06,2.68E-05
1314,-1.13E-05,8.33E-06,3.35E-05,-5.87E-05,4.69E-07,2.15E-05
1315,-2.83E-07,8.40E-06,2.76E-05,-4.32E-05,-2.43E-06,2.04E-05
1316,7.39E-06,8.91E-06,1.87E-05,-1.42E-06,-6.31E-06,1.78E-05
1317,5.72E-06,6.82E-06,1.56E-05,3.66E-07,-9.24E-06,1.59E-05
1318,3.78E-06,3.35E-06,1.91E-05,9.37E-06,-1.06E-05,1.72E-05
1319,1.75E-06,3.14E-06,2.39E-05,7.67E-05,-9.88E-06,2.06E-05
1320,-2.09E-06,6.57E-06,2.65E-05,0.000140215,-6.93E-06,2.36E-05
1321,-1.20E-05,9.37E-06,2.82E-05,0.000100569,-3.70E-06,2.25E-05
1322,-2.27E-05,9.17E-06,2.92E-05,9.67E-06,-2.48E-06,1.92E-05
1323,-2.09E-05,6.23E-06,2.43E-05,-4.25E-05,-3.45E-06,1.75E-05
1324,-1.10E-05,3.44E-06,1.64E-05,-3.48E-05,-5.23E-06,1.75E-05
1325,-6.50E-06,4.78E-06,1.57E-05,3.72E-05,-6.98E-06,1.66E-05
1326,-8.10E-06,9.57E-06,2.13E-05,0.000119235,-6.59E-06,1.46E-05
1327,-1.18E-05,1.28E-05,2.71E-05,0.000111897,-4.01E-06,1.36E-05
1328,-1.72E-05,1.32E-05,3.05E-05,2.01E-05,-2.55E-06,1.40E-05
1329,-1.88E-05,1.34E-05,2.94E-05,-5.28E-05,-3.50E-06,1.44E-05
1330,-1.39E-05,1.37E-05,2.39E-05,-5.08E-05,-6.28E-06,1.42E-05
1331,-1.10E-05,1.35E-05,2.16E-05,2.64E-05,-1.05E-05,1.29E-05
1332,-1.53E-05,1.43E-05,2.49E-05,0.000119202,-1.37E-05,9.47E-06
1333,-2.26E-05,1.66E-05,2.90E-05,0.000126549,-1.24E-05,3.77E-06
1334,-2.60E-05,1.68E-05,3.33E-05,3.95E-05,-7.69E-06,6.51E-07
1335,-2.09E-05,1.40E-05,3.60E-05,-3.45E-05,-4.57E-06,4.51E-06
1336,-8.58E-06,1.09E-05,3.41E-05,-4.22E-05,-6.48E-06,1.07E-05
1337,1.91E-06,1.08E-05,3.52E-05,1.87E-05,-1.06E-05,1.31E-05
1338,5.09E-06,1.39E-05,4.08E-05,0.00010478,-1.13E-05,1.24E-05
1339,-2.10E-06,1.52E-05,4.20E-05,0.000112451,-6.31E-06,9.79E-06
1340,-1.67E-05,1.18E-05,4.17E-05,1.79E-05,-2.65E-07,6.66E-06
1341,-2.43E-05,8.46E-06,4.50E-05,-6.55E-05,-1.51E-06,8.55E-06
1342,-2.00E-05,9.10E-06,4.36E-05,-6.46E-05,-9.25E-06,1.46E-05
1343,-1.55E-05,1.17E-05,3.35E-05,-3.35E-05,-1.40E-05,2.07E-05
1344,-1.49E-05,1.32E-05,2.72E-05,-4.00E-05,-1.31E-05,2.34E-05
1345,-1.26E-05,1.37E-05,3.21E-05,-3.88E-05,-1.10E-05,2.06E-05
1346,-9.51E-06,1.48E-05,3.99E-05,2.78E-05,-9.56E-06,1.61E-05
1347,-8.89E-06,1.62E-05,4.29E-05,9.71E-05,-9.54E-06,1.11E-05
1348,-1.79E-05,1.61E-05,4.27E-05,6.38E-05,-9.71E-06,4.11E-06
1349,-3.23E-05,1.51E-05,4.07E-05,-2.09E-05,-9.59E-06,-8.72E-07
1350,-3.36E-05,1.53E-05,3.05E-05,-6.48E-05,-1.04E-05,1.14E-06
1351,-2.09E-05,1.52E-05,1.75E-05,-4.49E-05,-1.17E-05,7.52E-06
1352,-9.50E-06,1.49E-05,1.51E-05,4.07E-05,-1.14E-05,1.38E-05
1353,-6.32E-06,1.60E-05,2.01E-05,0.000134708,-9.65E-06,1.75E-05
1354,-1.04E-05,1.74E-05,2.09E-05,0.000139031,-8.88E-06,1.83E-05
1355,-1.70E-05,1.61E-05,1.52E-05,5.77E-05,-1.01E-05,1.87E-05
1356,-1.71E-05,1.34E-05,8.47E-06,-1.25E-05,-1.29E-05,2.08E-05
1357,-8.99E-06,1.32E-05,5.62E-06,-1.61E-05,-1.51E-05,2.19E-05
1358,4.36E-07,1.64E-05,9.42E-06,5.62E-05,-1.44E-05,1.80E-05
1359,4.24E-06,2.02E-05,1.51E-05,0.000151718,-1.14E-05,1.02E-05
1360,-1.94E-06,2.06E-05,1.82E-05,0.000165224,-8.21E-06,4.57E-06
1361,-1.39E-05,1.75E-05,2.14E-05,7.88E-05,-7.64E-06,6.13E-06
1362,-1.91E-05,1.45E-05,2.14E-05,2.96E-07,-9.14E-06,1.34E-05
1363,-1.33E-05,1.46E-05,1.44E-05,-9.07E-06,-1.02E-05,1.88E-05
1364,-4.16E-06,1.71E-05,9.19E-06,6.01E-05,-1.08E-05,1.81E-05
1365,2.84E-06,1.98E-05,1.26E-05,0.00016457,-1.03E-05,1.44E-05
1366,2.81E-06,2.06E-05,2.27E-05,0.000188365,-8.01E-06,1.03E-05
1367,-4.40E-06,1.82E-05,3.31E-05,0.000103439,-5.36E-06,5.85E-06
1368,-6.69E-06,1.52E-05,3.43E-05,2.68E-05,-4.00E-06,3.99E-06
1369,-2.88E-06,1.27E-05,2.80E-05,2.99E-05,-4.03E-06,5.44E-06
1370,-2.24E-06,1.17E-05,2.30E-05,5.91E-05,-5.84E-06,5.36E-06
1371,-4.39E-06,1.20E-05,2.59E-05,4.67E-05,-8.11E-06,4.72E-06
1372,-7.42E-06,1.16E-05,3.55E-05,4.08E-05,-8.67E-06,8.04E-06
1373,-1.04E-05,1.30E-05,4.08E-05,0.000106266,-8.44E-06,1.31E-05
1374,-1.25E-05,1.52E-05,3.97E-05,0.000184953,-9.49E-06,1.35E-05
1375,-2.11E-05,1.52E-05,3.69E-05,0.000156788,-1.04E-05,7.19E-06
1376,-3.50E-05,1.44E-05,3.45E-05,5.70E-05,-9.78E-06,7.43E-07
1377,-3.69E-05,1.52E-05,2.93E-05,-1.06E-05,-9.57E-06,1.34E-06
1378,-2.36E-05,1.68E-05,2.51E-05,-4.21E-06,-1.04E-05,7.55E-06
1379,-1.04E-05,1.80E-05,2.91E-05,7.77E-05,-1.04E-05,1.51E-05
1380,-5.95E-06,1.82E-05,3.45E-05,0.000165013,-7.44E-06,1.91E-05
1381,-9.53E-06,1.62E-05,3.51E-05,0.000159386,-2.81E-06,1.64E-05
1382,-1.71E-05,1.34E-05,3.32E-05,7.67E-05,6.39E-07,1.01E-05
1383,-2.19E-05,1.22E-05,2.89E-05,1.40E-05,7.59E-07,7.38E-06
1384,-2.17E-05,1.39E-05,2.24E-05,1.56E-05,-2.14E-06,1.20E-05
1385,-1.91E-05,1.67E-05,2.27E-05,8.58E-05,-5.03E-06,2.08E-05
1386,-1.62E-05,1.72E-05,3.09E-05,0.000171723,-6.01E-06,2.67E-05
1387,-1.81E-05,1.41E-05,3.90E-05,0.00016949,-5.52E-06,2.38E-05
1388,-2.56E-05,1.02E-05,4.29E-05,6.83E-05,-4.55E-06,1.55E-05
1389,-2.71E-05,8.94E-06,3.88E-05,-1.23E-05,-3.82E-06,1.14E-05
1390,-1.65E-05,9.21E-06,2.66E-05,-1.15E-05,-4.26E-06,1.41E-05
1391,-3.39E-06,1.02E-05,2.09E-05,6.87E-05,-6.14E-06,1.73E-05
1392,8.74E-07,1.30E-05,2.73E-05,0.000177401,-7.82E-06,1.72E-05
1393,-4.02E-06,1.60E-05,3.36E-05,0.000197785,-7.74E-06,1.44E-05
1394,-1.13E-05,1.64E-05,3.56E-05,0.000104012,-6.43E-06,1.31E-05
1395,-1.24E-05,1.45E-05,3.65E-05,2.25E-05,-5.86E-06,1.62E-05
1396,-5.19E-06,1.32E-05,3.40E-05,4.02E-05,-7.82E-06,1.84E-05
1397,1.27E-06,1.45E-05,2.50E-05,8.92E-05,-9.56E-06,1.64E-05
1398,4.85E-06,1.57E-05,1.92E-05,6.65E-05,-9.37E-06,1.50E-05
1399,8.00E-06,1.45E-05,2.34E-05,2.94E-05,-8.80E-06,1.79E-05
1400,9.69E-06,1.41E-05,2.96E-05,7.80E-05,-8.12E-06,2.29E-05
1401,8.36E-06,1.58E-05,3.10E-05,0.000149439,-6.51E-06,2.45E-05
1402,-1.68E-06,1.62E-05,3.00E-05,0.000113303,-4.55E-06,2.22E-05
1403,-1.52E-05,1.45E-05,3.06E-05,8.06E-06,-4.08E-06,2.11E-05
1404,-1.53E-05,1.18E-05,2.60E-05,-6.01E-05,-5.00E-06,2.19E-05
1405,-3.04E-06,1.02E-05,1.68E-05,-5.40E-05,-6.79E-06,2.13E-05
1406,7.04E-06,1.16E-05,1.15E-05,2.37E-05,-8.50E-06,1.96E-05
1407,6.97E-06,1.54E-05,1.09E-05,0.000105636,-1.07E-05,1.68E-05
1408,-2.50E-06,1.80E-05,1.51E-05,9.73E-05,-1.38E-05,1.23E-05
1409,-1.33E-05,1.75E-05,2.26E-05,1.44E-05,-1.75E-05,9.13E-06
1410,-1.41E-05,1.59E-05,2.34E-05,-4.68E-05,-2.26E-05,1.03E-05
1411,-5.03E-06,1.49E-05,1.45E-05,-4.25E-05,-2.82E-05,1.35E-05
1412,2.67E-06,1.37E-05,9.78E-06,3.00E-05,-3.01E-05,1.47E-05
1413,2.46E-06,1.23E-05,1.64E-05,0.000119749,-2.71E-05,1.26E-05
1414,-5.87E-06,1.14E-05,2.63E-05,0.000124488,-2.08E-05,7.50E-06
1415,-1.72E-05,9.54E-06,2.97E-05,3.33E-05,-1.17E-05,2.86E-06
1416,-1.97E-05,5.98E-06,2.32E-05,-4.02E-05,-1.37E-06,2.63E-06
1417,-1.17E-05,2.67E-06,1.31E-05,-4.34E-05,7.41E-06,6.96E-06
1418,-5.72E-06,2.93E-06,1.06E-05,2.30E-05,1.18E-05,1.14E-05
1419,-7.87E-06,5.77E-06,1.59E-05,0.00012134,9.31E-06,1.13E-05
1420,-1.72E-05,6.64E-06,2.11E-05,0.000139895,8.52E-07,4.86E-06
1421,-2.89E-05,6.17E-06,2.54E-05,4.80E-05,-8.73E-06,-1.84E-06
1422,-3.00E-05,8.41E-06,2.78E-05,-2.77E-05,-1.38E-05,-4.02E-07
1423,-2.20E-05,1.30E-05,2.36E-05,-1.30E-05,-1.26E-05,3.36E-06
1424,-2.10E-05,1.39E-05,1.51E-05,2.84E-05,-9.74E-06,4.94E-06
1425,-1.87E-05,1.00E-05,1.40E-05,2.20E-05,-4.41E-06,6.41E-06
1426,-4.21E-06,7.43E-06,2.31E-05,1.37E-05,4.25E-06,7.39E-06
1427,8.44E-06,1.01E-05,3.00E-05,7.19E-05,9.16E-06,9.56E-06
1428,5.29E-06,1.33E-05,2.95E-05,0.000134711,6.30E-06,1.11E-05
1429,-1.12E-05,1.14E-05,2.74E-05,9.48E-05,-6.00E-07,1.10E-05
1430,-2.56E-05,6.21E-06,2.63E-05,6.95E-06,-5.93E-06,1.07E-05
1431,-2.37E-05,2.11E-06,1.97E-05,-3.86E-05,-9.03E-06,1.36E-05
1432,-1.25E-05,5.84E-07,1.27E-05,-2.35E-05,-1.16E-05,1.79E-05
1433,-7.06E-06,1.62E-06,1.47E-05,5.58E-05,-1.42E-05,2.00E-05
1434,-9.20E-06,4.49E-06,2.12E-05,0.000138928,-1.60E-05,1.86E-05
1435,-1.47E-05,6.43E-06,2.57E-05,0.000124267,-1.65E-05,1.48E-05
1436,-1.87E-05,6.09E-06,2.75E-05,2.61E-05,-1.59E-05,1.35E-05
1437,-1.62E-05,3.65E-06,2.39E-05,-4.99E-05,-1.33E-05,1.70E-05
1438,-9.41E-06,1.35E-06,1.83E-05,-5.11E-05,-1.03E-05,2.04E-05
1439,-5.64E-06,2.77E-06,1.87E-05,2.37E-05,-1.01E-05,1.80E-05
1440,-3.95E-06,8.12E-06,2.13E-05,0.000113118,-1.14E-05,1.14E-05
1441,-3.95E-06,1.29E-05,2.21E-05,0.000111592,-1.09E-05,5.30E-06
1442,-8.55E-06,1.48E-05,2.33E-05,1.81E-05,-9.38E-06,3.34E-06
1443,-1.18E-05,1.55E-05,2.14E-05,-5.46E-05,-9.16E-06,5.46E-06
1444,-7.71E-06,1.39E-05,1.67E-05,-6.24E-05,-9.99E-06,9.15E-06
1445,-1.11E-06,1.09E-05,1.99E-05,1.70E-06,-9.57E-06,1.22E-05
1446,4.60E-06,1.10E-05,2.82E-05,0.0001107,-8.01E-06,1.45E-05
1447,6.29E-06,1.39E-05,2.98E-05,0.000149568,-7.70E-06,1.23E-05
1448,9.98E-08,1.69E-05,2.87E-05,7.29E-05,-9.27E-06,6.81E-06
1449,-5.27E-06,1.95E-05,2.93E-05,-7.60E-07,-1.14E-05,6.87E-06
1450,-1.74E-06,1.98E-05,2.86E-05,6.48E-06,-1.19E-05,1.25E-05
1451,3.50E-06,1.68E-05,2.49E-05,3.81E-05,-1.12E-05,1.72E-05
1452,7.37E-06,1.26E-05,2.33E-05,2.63E-05,-9.95E-06,2.12E-05
1453,9.76E-06,1.18E-05,2.78E-05,1.53E-05,-8.66E-06,2.53E-05
1454,7.62E-06,1.45E-05,3.15E-05,7.10E-05,-7.38E-06,2.79E-05
1455,2.40E-06,1.53E-05,3.14E-05,0.000141411,-6.48E-06,2.51E-05
1456,-8.14E-06,1.31E-05,3.07E-05,0.00011477,-8.02E-06,1.63E-05
1457,-1.91E-05,1.13E-05,3.17E-05,2.60E-05,-1.13E-05,7.50E-06
1458,-1.83E-05,1.23E-05,2.65E-05,-3.43E-05,-1.47E-05,3.52E-06
1459,-7.24E-06,1.44E-05,1.78E-05,-2.84E-05,-1.77E-05,3.22E-06
1460,6.59E-06,1.56E-05,1.77E-05,5.59E-05,-1.84E-05,3.90E-06
1461,1.70E-05,1.50E-05,2.44E-05,0.000150946,-1.71E-05,3.43E-06
1462,1.65E-05,1.28E-05,2.88E-05,0.000145363,-1.81E-05,8.43E-07
1463,6.87E-06,1.10E-05,2.92E-05,4.93E-05,-2.07E-05,-8.45E-07
1464,3.70E-06,1.03E-05,2.54E-05,-2.89E-05,-1.91E-05,7.40E-07
1465,1.33E-05,1.02E-05,1.97E-05,-3.31E-05,-1.10E-05,3.83E-06
1466,2.54E-05,1.04E-05,2.04E-05,4.23E-05,-6.27E-07,4.36E-06
1467,3.06E-05,1.14E-05,2.66E-05,0.00014199,4.39E-06,1.77E-06
1468,2.66E-05,1.15E-05,3.06E-05,0.000156878,1.36E-06,-2.08E-06
1469,1.75E-05,9.45E-06,3.12E-05,6.60E-05,-3.87E-06,-4.18E-06
1470,1.59E-05,7.37E-06,3.00E-05,-2.15E-05,-5.72E-06,-1.23E-06
1471,2.59E-05,8.02E-06,2.69E-05,-3.97E-05,-5.79E-06,6.01E-06
1472,3.54E-05,1.08E-05,2.76E-05,2.46E-05,-6.33E-06,1.17E-05
1473,3.60E-05,1.34E-05,3.04E-05,0.000128683,-6.39E-06,1.15E-05
1474,2.67E-05,1.46E-05,3.03E-05,0.000148996,-5.17E-06,7.95E-06
1475,1.09E-05,1.36E-05,3.17E-05,4.91E-05,-4.33E-06,9.12E-06
1476,4.42E-06,1.29E-05,3.26E-05,-4.15E-05,-5.66E-06,1.79E-05
1477,8.41E-06,1.44E-05,2.79E-05,-3.73E-05,-6.58E-06,2.49E-05
1478,7.21E-06,1.58E-05,2.12E-05,-1.22E-07,-5.67E-06,2.42E-05
1479,6.44E-06,1.59E-05,1.99E-05,-6.32E-06,-4.11E-06,2.16E-05
1480,1.46E-05,1.61E-05,2.57E-05,-8.26E-06,-1.83E-06,2.09E-05
1481,2.41E-05,1.81E-05,3.05E-05,5.65E-05,-1.96E-07,2.05E-05
1482,2.36E-05,2.12E-05,2.95E-05,0.000126226,5.66E-07,1.68E-05
1483,5.59E-06,2.15E-05,2.80E-05,9.24E-05,1.76E-06,9.54E-06
1484,-1.68E-05,1.76E-05,2.98E-05,1.52E-06,3.33E-06,5.14E-06
1485,-2.04E-05,1.15E-05,2.57E-05,-5.60E-05,2.86E-06,8.55E-06
1486,-7.29E-06,6.85E-06,1.83E-05,-4.69E-05,-1.70E-06,1.39E-05
1487,4.97E-06,6.99E-06,2.04E-05,3.79E-05,-8.57E-06,1.36E-05
1488,7.47E-06,9.68E-06,3.00E-05,0.000133247,-1.39E-05,8.40E-06
1489,2.19E-06,1.01E-05,3.62E-05,0.000133408,-1.53E-05,1.49E-06
1490,-4.32E-06,9.13E-06,3.44E-05,5.02E-05,-1.34E-05,-3.14E-06
1491,-2.19E-06,9.35E-06,2.68E-05,-1.64E-05,-1.12E-05,-1.23E-06
1492,9.29E-06,9.23E-06,2.06E-05,-1.56E-05,-1.06E-05,6.24E-06
1493,1.76E-05,8.19E-06,2.59E-05,6.05E-05,-1.06E-05,1.25E-05
1494,1.51E-05,8.11E-06,3.85E-05,0.000154683,-8.32E-06,1.21E-05
1495,4.66E-06,8.08E-06,4.55E-05,0.000159421,-3.67E-06,7.70E-06
1496,-6.66E-06,6.72E-06,4.47E-05,6.57E-05,-1.95E-07,8.31E-06
1497,-7.94E-06,5.10E-06,3.85E-05,-1.23E-05,-2.91E-07,1.55E-05
1498,2.58E-06,4.85E-06,3.01E-05,-2.14E-05,-2.68E-06,2.32E-05
1499,1.28E-05,5.37E-06,2.96E-05,4.59E-05,-4.55E-06,2.92E-05
1500,1.45E-05,4.79E-06,3.39E-05,0.000150599,-4.85E-06,3.30E-05
1501,5.94E-06,3.68E-06,3.45E-05,0.000169663,-4.95E-06,3.08E-05
1502,-6.98E-06,4.95E-06,3.57E-05,6.51E-05,-5.82E-06,2.55E-05
1503,-1.13E-05,8.65E-06,3.83E-05,-3.34E-05,-6.76E-06,2.40E-05
1504,-3.89E-06,1.01E-05,3.51E-05,-3.22E-05,-8.63E-06,2.40E-05
1505,3.62E-06,9.87E-06,2.86E-05,1.57E-05,-1.16E-05,2.13E-05
1506,9.50E-06,1.22E-05,3.08E-05,2.35E-05,-1.32E-05,1.89E-05
1507,1.54E-05,1.58E-05,4.06E-05,2.40E-05,-1.29E-05,2.04E-05
1508,1.55E-05,1.89E-05,5.02E-05,7.64E-05,-1.07E-05,2.44E-05
1509,8.40E-06,1.96E-05,5.34E-05,0.000131173,-7.24E-06,2.60E-05
1510,-3.43E-06,1.65E-05,4.94E-05,9.31E-05,-5.76E-06,2.29E-05
1511,-1.60E-05,1.25E-05,4.38E-05,7.21E-06,-6.59E-06,1.95E-05
1512,-2.12E-05,9.59E-06,3.53E-05,-4.35E-05,-8.25E-06,2.01E-05
1513,-1.99E-05,8.51E-06,2.60E-05,-2.98E-05,-1.04E-05,2.40E-05
1514,-1.66E-05,1.04E-05,2.19E-05,5.94E-05,-1.35E-05,2.83E-05
1515,-1.39E-05,1.31E-05,2.11E-05,0.000158282,-1.73E-05,3.02E-05
1516,-1.87E-05,1.36E-05,2.18E-05,0.000154304,-1.96E-05,2.73E-05
1517,-2.84E-05,1.21E-05,2.23E-05,5.69E-05,-1.90E-05,2.21E-05
1518,-2.98E-05,9.77E-06,1.81E-05,-1.88E-05,-1.71E-05,2.11E-05
1519,-2.10E-05,7.72E-06,1.16E-05,-1.13E-05,-1.65E-05,2.56E-05
1520,-1.37E-05,7.11E-06,1.34E-05,7.94E-05,-1.72E-05,2.94E-05
1521,-1.35E-05,8.37E-06,2.16E-05,0.000184183,-1.53E-05,2.68E-05
1522,-2.09E-05,9.66E-06,2.80E-05,0.000191698,-8.47E-06,2.03E-05
1523,-3.28E-05,9.30E-06,3.33E-05,9.36E-05,9.32E-07,1.75E-05
1524,-3.58E-05,9.75E-06,3.42E-05,8.21E-06,9.93E-06,1.94E-05
1525,-2.53E-05,1.43E-05,2.80E-05,-2.35E-06,1.34E-05,1.94E-05
1526,-1.46E-05,2.10E-05,2.55E-05,6.60E-05,9.07E-06,1.61E-05
1527,-1.02E-05,2.33E-05,3.05E-05,0.000165225,2.13E-06,1.44E-05
1528,-1.05E-05,1.80E-05,3.63E-05,0.000183199,-1.91E-06,1.30E-05
1529,-1.52E-05,1.16E-05,4.28E-05,9.47E-05,-4.45E-06,1.21E-05
1530,-1.62E-05,1.08E-05,4.86E-05,2.05E-05,-9.07E-06,1.52E-05
1531,-1.04E-05,1.32E-05,4.51E-05,2.39E-05,-1.29E-05,1.42E-05
1532,-7.81E-06,1.51E-05,3.58E-05,4.21E-05,-1.42E-05,8.62E-06
1533,-6.46E-06,1.48E-05,3.84E-05,1.83E-05,-1.49E-05,9.02E-06
1534,-2.10E-06,1.35E-05,4.77E-05,1.14E-05,-1.51E-05,1.26E-05
1535,-1.15E-07,1.42E-05,4.94E-05,7.98E-05,-1.46E-05,1.23E-05
1536,3.16E-07,1.57E-05,4.54E-05,0.000153231,-1.48E-05,4.96E-06
1537,-5.59E-06,1.50E-05,4.21E-05,0.000117647,-1.40E-05,-5.22E-06
1538,-1.77E-05,1.20E-05,3.97E-05,1.79E-05,-1.01E-05,-7.93E-06
1539,-2.01E-05,8.53E-06,3.06E-05,-4.86E-05,-5.20E-06,-8.62E-07
1540,-1.08E-05,6.44E-06,2.11E-05,-4.41E-05,-2.99E-06,8.55E-06
1541,-1.50E-06,8.56E-06,2.46E-05,3.91E-05,-4.03E-06,1.36E-05
1542,-5.48E-07,1.35E-05,3.58E-05,0.00013323,-5.66E-06,1.15E-05
1543,-9.88E-06,1.60E-05,4.26E-05,0.000130846,-6.71E-06,5.24E-06
1544,-2.18E-05,1.47E-05,4.22E-05,4.24E-05,-8.65E-06,2.36E-06
1545,-2.65E-05,1.39E-05,3.55E-05,-2.94E-05,-1.28E-05,6.52E-06
1546,-2.36E-05,1.48E-05,2.74E-05,-3.23E-05,-1.74E-05,1.37E-05
1547,-1.88E-05,1.37E-05,2.54E-05,4.16E-05,-1.92E-05,1.79E-05
1548,-1.60E-05,1.16E-05,2.77E-05,0.000136335,-1.75E-05,1.56E-05
1549,-2.04E-05,1.19E-05,2.86E-05,0.000145398,-1.45E-05,8.09E-06
1550,-3.15E-05,1.36E-05,2.86E-05,5.85E-05,-1.21E-05,3.04E-06
1551,-3.62E-05,1.46E-05,2.70E-05,-1.40E-05,-1.11E-05,6.01E-06
1552,-2.86E-05,1.47E-05,2.45E-05,-2.18E-05,-1.01E-05,1.07E-05
1553,-1.96E-05,1.43E-05,2.59E-05,3.92E-05,-8.18E-06,1.05E-05
1554,-1.99E-05,1.34E-05,3.02E-05,0.000134687,-5.79E-06,8.09E-06
1555,-3.01E-05,1.18E-05,3.25E-05,0.000155238,-3.89E-06,5.51E-06
1556,-3.83E-05,9.50E-06,3.49E-05,6.70E-05,-3.96E-06,3.55E-06
1557,-3.10E-05,8.90E-06,3.54E-05,-1.00E-05,-6.03E-06,5.76E-06
1558,-1.59E-05,1.12E-05,3.11E-05,-1.04E-06,-6.36E-06,1.03E-05
1559,-9.95E-06,1.49E-05,2.56E-05,3.55E-05,-5.69E-06,1.47E-05
1560,-9.26E-06,1.77E-05,2.36E-05,3.17E-05,-7.04E-06,2.05E-05
1561,-6.42E-06,1.76E-05,3.03E-05,3.16E-05,-8.44E-06,2.45E-05
1562,-3.97E-06,1.64E-05,3.98E-05,9.29E-05,-7.81E-06,2.28E-05
1563,-6.83E-06,1.73E-05,4.42E-05,0.00015451,-6.43E-06,1.49E-05
1564,-1.77E-05,1.97E-05,4.38E-05,0.000112863,-7.43E-06,6.49E-06
1565,-2.73E-05,2.09E-05,4.18E-05,1.83E-05,-1.16E-05,3.66E-06
1566,-2.11E-05,2.12E-05,3.46E-05,-3.94E-05,-1.60E-05,6.94E-06
1567,-7.16E-06,2.03E-05,2.60E-05,-2.96E-05,-1.84E-05,9.61E-06
1568,-1.15E-06,1.98E-05,2.60E-05,5.13E-05,-1.93E-05,7.72E-06
1569,-3.81E-06,2.05E-05,3.26E-05,0.000135073,-1.84E-05,5.75E-06
1570,-1.17E-05,1.84E-05,4.05E-05,0.000117997,-1.57E-05,6.54E-06
1571,-1.98E-05,1.19E-05,4.35E-05,1.78E-05,-1.32E-05,8.87E-06
1572,-1.94E-05,5.56E-06,3.84E-05,-5.66E-05,-1.20E-05,1.16E-05
1573,-1.17E-05,4.77E-06,2.97E-05,-5.45E-05,-1.19E-05,1.40E-05
1574,-6.93E-06,8.90E-06,2.61E-05,2.26E-05,-1.18E-05,1.52E-05
1575,-9.85E-06,1.32E-05,2.64E-05,0.000115779,-1.16E-05,1.54E-05
1576,-2.16E-05,1.41E-05,2.75E-05,0.000123239,-1.21E-05,1.29E-05
1577,-3.70E-05,1.25E-05,3.05E-05,3.32E-05,-1.33E-05,9.39E-06
1578,-3.80E-05,1.14E-05,2.94E-05,-4.70E-05,-1.36E-05,1.01E-05
1579,-1.90E-05,1.08E-05,2.14E-05,-6.41E-05,-1.10E-05,1.31E-05
1580,-2.65E-06,1.06E-05,1.71E-05,-5.84E-06,-8.06E-06,1.14E-05
1581,-3.39E-06,1.26E-05,2.40E-05,9.50E-05,-7.59E-06,6.56E-06
1582,-1.41E-05,1.51E-05,3.69E-05,0.000122105,-9.25E-06,1.45E-06
1583,-2.35E-05,1.40E-05,4.63E-05,3.51E-05,-1.16E-05,-3.17E-07
1584,-2.08E-05,1.16E-05,4.43E-05,-4.29E-05,-1.41E-05,6.61E-06
1585,-9.89E-06,1.46E-05,3.38E-05,-2.78E-05,-1.76E-05,1.37E-05
1586,-5.04E-06,2.03E-05,2.32E-05,1.99E-05,-2.22E-05,1.50E-05
1587,-1.33E-06,2.19E-05,2.10E-05,1.97E-05,-2.37E-05,1.71E-05
1588,8.64E-06,1.93E-05,2.65E-05,1.73E-05,-2.01E-05,2.11E-05
1589,1.86E-05,1.79E-05,2.82E-05,7.95E-05,-1.27E-05,2.42E-05
1590,1.90E-05,1.84E-05,2.52E-05,0.000146859,-2.78E-06,2.28E-05
1591,7.49E-06,1.57E-05,2.37E-05,0.000114231,5.00E-06,1.69E-05
1592,-5.59E-06,9.27E-06,2.07E-05,2.66E-05,3.57E-06,1.18E-05
1593,-5.75E-06,3.54E-06,9.37E-06,-3.08E-05,-5.14E-06,1.11E-05
1594,4.85E-06,2.73E-06,-2.19E-08,-2.84E-05,-1.35E-05,1.30E-05
1595,1.03E-05,6.87E-06,4.75E-06,4.18E-05,-1.72E-05,1.46E-05
1596,4.43E-06,1.20E-05,1.54E-05,0.000121675,-1.40E-05,1.25E-05
1597,-8.30E-06,1.34E-05,2.36E-05,0.000113711,-5.76E-06,6.82E-06
1598,-1.70E-05,1.15E-05,2.75E-05,2.93E-05,4.26E-06,4.47E-06
1599,-1.19E-05,9.11E-06,2.60E-05,-3.42E-05,1.30E-05,9.65E-06
1600,4.08E-06,7.10E-06,2.26E-05,-2.84E-05,1.81E-05,1.72E-05
1601,1.74E-05,5.22E-06,2.56E-05,4.77E-05,1.73E-05,2.09E-05
1602,2.09E-05,3.15E-06,3.24E-05,0.000134783,1.03E-05,1.97E-05
1603,1.58E-05,7.64E-07,3.45E-05,0.00013178,2.03E-06,1.63E-05
1604,6.32E-06,-4.17E-08,3.41E-05,3.52E-05,-1.00E-06,1.60E-05
1605,1.64E-06,1.38E-06,3.29E-05,-3.71E-05,6.16E-07,2.02E-05
1606,5.48E-06,3.07E-06,2.93E-05,-3.73E-05,7.08E-07,2.64E-05
1607,9.01E-06,5.92E-06,2.96E-05,2.51E-05,-1.50E-06,2.95E-05
1608,6.33E-06,1.00E-05,3.32E-05,0.000114411,-4.67E-06,2.67E-05
1609,-3.47E-06,1.39E-05,3.40E-05,0.000133005,-7.79E-06,2.01E-05
1610,-1.48E-05,1.65E-05,3.47E-05,5.18E-05,-7.52E-06,1.69E-05
1611,-1.41E-05,1.58E-05,3.27E-05,-1.37E-05,-3.05E-06,2.23E-05
1612,-6.49E-06,1.11E-05,2.56E-05,4.34E-06,1.15E-06,2.65E-05
1613,-7.07E-06,6.72E-06,1.71E-05,4.19E-05,2.79E-07,2.47E-05
1614,-8.95E-06,8.23E-06,1.54E-05,3.00E-05,-6.13E-06,2.24E-05
1615,-6.08E-06,1.33E-05,2.09E-05,2.02E-05,-1.38E-05,1.98E-05
1616,-5.14E-06,1.82E-05,2.28E-05,7.37E-05,-1.92E-05,1.75E-05
1617,-1.07E-05,2.11E-05,1.76E-05,0.000131093,-2.15E-05,1.42E-05
1618,-2.30E-05,2.16E-05,1.39E-05,9.24E-05,-2.05E-05,9.98E-06
1619,-3.18E-05,2.05E-05,1.54E-05,8.35E-06,-1.83E-05,7.45E-06
1620,-2.27E-05,1.88E-05,1.22E-05,-3.07E-05,-1.78E-05,9.16E-06
1621,-1.54E-06,1.75E-05,5.06E-06,-6.69E-07,-1.90E-05,1.29E-05
1622,1.28E-05,1.76E-05,6.10E-06,9.30E-05,-1.95E-05,1.52E-05
1623,1.21E-05,1.95E-05,1.43E-05,0.000181536,-1.56E-05,1.32E-05
1624,9.36E-07,2.04E-05,2.23E-05,0.000170213,-6.60E-06,8.85E-06
1625,-1.06E-05,1.87E-05,2.71E-05,7.99E-05,2.71E-06,6.99E-06
1626,-1.38E-05,1.71E-05,2.61E-05,1.04E-05,7.52E-06,8.56E-06
1627,-7.37E-06,1.67E-05,1.94E-05,6.69E-06,6.89E-06,1.15E-05
1628,3.51E-06,1.59E-05,1.46E-05,7.23E-05,2.00E-06,1.41E-05
1629,1.18E-05,1.48E-05,1.48E-05,0.000156273,-4.42E-06,1.61E-05
1630,9.37E-06,1.43E-05,1.84E-05,0.000159792,-6.87E-06,1.46E-05
1631,-4.55E-06,1.42E-05,2.37E-05,7.24E-05,-1.82E-06,1.07E-05
1632,-1.76E-05,1.52E-05,2.30E-05,-2.66E-06,4.63E-06,9.37E-06
1633,-1.74E-05,1.83E-05,1.40E-05,-1.85E-05,5.19E-06,1.18E-05
1634,-7.92E-06,1.95E-05,1.24E-05,3.74E-05,2.71E-06,1.32E-05
1635,1.95E-06,1.70E-05,2.13E-05,0.000136538,2.63E-06,1.11E-05
1636,2.36E-06,1.36E-05,2.73E-05,0.000163247,4.07E-06,5.61E-06
1637,-4.63E-06,1.04E-05,3.05E-05,7.68E-05,2.75E-06,5.65E-08
1638,-3.39E-06,8.31E-06,3.03E-05,-7.82E-06,-2.17E-06,-6.15E-07
1639,3.67E-06,8.07E-06,2.39E-05,-1.30E-05,-7.88E-06,4.08E-06
1640,1.56E-06,8.73E-06,1.83E-05,1.33E-05,-1.34E-05,1.05E-05
1641,-6.74E-06,8.88E-06,2.29E-05,6.27E-06,-1.61E-05,1.75E-05
1642,-1.21E-05,8.28E-06,3.23E-05,4.09E-06,-1.69E-05,2.30E-05
1643,-1.22E-05,9.25E-06,3.29E-05,6.22E-05,-1.76E-05,2.34E-05
1644,-1.16E-05,1.30E-05,2.57E-05,0.000130113,-1.70E-05,1.64E-05
1645,-2.21E-05,1.60E-05,2.34E-05,0.000112052,-1.44E-05,6.66E-06
1646,-3.77E-05,1.75E-05,2.51E-05,4.93E-05,-1.10E-05,2.83E-06
1647,-4.07E-05,1.85E-05,1.87E-05,1.80E-05,-1.05E-05,6.54E-06
1648,-3.26E-05,1.79E-05,9.27E-06,4.45E-05,-1.21E-05,1.13E-05
1649,-2.67E-05,1.63E-05,1.03E-05,0.000138251,-1.31E-05,1.28E-05
1650,-2.71E-05,1.61E-05,1.81E-05,0.000234628,-1.25E-05,1.12E-05
1651,-3.16E-05,1.62E-05,2.25E-05,0.000225612,-1.16E-05,6.93E-06
1652,-3.47E-05,1.48E-05,2.16E-05,0.000126659,-1.13E-05,2.88E-06
1653,-2.65E-05,1.19E-05,1.61E-05,4.78E-05,-1.09E-05,2.76E-06
1654,-9.32E-06,9.86E-06,1.06E-05,4.08E-05,-9.52E-06,6.92E-06
1655,2.78E-06,9.69E-06,1.34E-05,0.000107057,-6.95E-06,1.12E-05
1656,3.74E-06,1.02E-05,2.16E-05,0.000193505,-3.38E-06,1.04E-05
1657,-1.97E-06,9.96E-06,2.63E-05,0.000198984,-3.08E-06,3.10E-06
1658,-8.79E-06,8.96E-06,2.90E-05,0.000107063,-9.07E-06,-3.29E-06
1659,-8.42E-06,7.87E-06,2.90E-05,2.32E-05,-1.64E-05,-1.94E-06
1660,2.15E-06,7.66E-06,2.28E-05,-4.98E-07,-1.89E-05,3.62E-06
1661,1.35E-05,8.40E-06,1.93E-05,4.56E-05,-1.59E-05,8.41E-06
1662,1.60E-05,1.05E-05,2.37E-05,0.000130345,-1.01E-05,1.16E-05
1663,7.36E-06,1.36E-05,2.96E-05,0.000145187,-4.02E-06,1.10E-05
1664,-2.80E-06,1.44E-05,3.43E-05,5.65E-05,-1.06E-06,7.35E-06
1665,-1.54E-06,1.12E-05,3.52E-05,-2.31E-05,-1.59E-06,5.69E-06
1666,7.41E-06,6.74E-06,3.56E-05,-2.38E-05,-2.20E-06,6.42E-06
1667,1.20E-05,5.74E-06,3.50E-05,3.35E-06,-2.66E-06,8.21E-06
1668,1.37E-05,8.80E-06,2.97E-05,-8.90E-06,-4.00E-06,9.84E-06
1669,1.75E-05,1.24E-05,2.65E-05,-1.96E-05,-5.24E-06,1.07E-05
1670,1.99E-05,1.51E-05,2.84E-05,3.05E-05,-7.01E-06,1.14E-05
1671,1.65E-05,1.60E-05,3.06E-05,9.21E-05,-8.91E-06,1.15E-05
1672,4.99E-06,1.52E-05,3.09E-05,6.62E-05,-1.14E-05,1.14E-05
1673,-8.23E-06,1.57E-05,3.10E-05,-1.14E-05,-1.54E-05,1.26E-05
1674,-9.40E-06,1.86E-05,2.67E-05,-5.77E-05,-1.87E-05,1.54E-05
1675,1.71E-06,2.00E-05,2.11E-05,-4.16E-05,-1.90E-05,1.82E-05
1676,1.02E-05,1.90E-05,2.20E-05,4.01E-05,-1.68E-05,2.06E-05
1677,5.58E-06,1.78E-05,2.41E-05,0.000119024,-1.34E-05,2.19E-05
1678,-7.82E-06,1.69E-05,2.46E-05,9.90E-05,-1.07E-05,1.95E-05
1679,-1.75E-05,1.55E-05,2.75E-05,4.60E-07,-1.02E-05,1.58E-05
1680,-1.36E-05,1.37E-05,2.93E-05,-7.51E-05,-1.17E-05,1.52E-05
1681,-1.09E-06,1.25E-05,2.48E-05,-7.85E-05,-1.40E-05,1.71E-05
1682,7.25E-06,1.21E-05,2.15E-05,-6.73E-06,-1.55E-05,1.79E-05
1683,6.20E-06,1.25E-05,2.42E-05,8.02E-05,-1.59E-05,1.68E-05
1684,-3.83E-06,1.24E-05,2.72E-05,7.78E-05,-1.53E-05,1.64E-05
1685,-1.85E-05,1.04E-05,2.89E-05,-1.52E-05,-1.39E-05,2.06E-05
1686,-2.43E-05,6.18E-06,2.90E-05,-8.07E-05,-1.29E-05,2.92E-05
1687,-1.65E-05,1.76E-06,2.49E-05,-7.18E-05,-1.31E-05,3.47E-05
1688,-1.10E-05,1.53E-06,2.29E-05,5.08E-06,-1.37E-05,3.13E-05
1689,-1.43E-05,5.45E-06,2.85E-05,0.000108279,-1.28E-05,2.28E-05
1690,-1.80E-05,8.35E-06,3.43E-05,0.000127056,-1.14E-05,1.34E-05
1691,-1.82E-05,8.10E-06,3.73E-05,3.46E-05,-1.03E-05,6.39E-06
1692,-1.27E-05,6.27E-06,3.72E-05,-4.17E-05,-8.44E-06,7.25E-06
1693,-6.80E-06,5.53E-06,2.92E-05,-3.15E-05,-6.84E-06,1.19E-05
1694,-8.20E-06,6.89E-06,1.69E-05,-1.32E-06,-7.39E-06,1.35E-05
1695,-3.22E-06,8.17E-06,1.36E-05,-1.67E-05,-9.80E-06,1.30E-05
1696,1.40E-05,7.90E-06,2.31E-05,-2.13E-05,-1.05E-05,1.15E-05
1697,2.86E-05,8.47E-06,3.36E-05,4.08E-05,-6.28E-06,7.74E-06
1698,3.04E-05,1.11E-05,3.75E-05,0.000104441,-8.60E-07,2.37E-06
1699,1.89E-05,1.33E-05,3.76E-05,7.04E-05,-5.30E-07,2.82E-07
1700,6.67E-06,1.53E-05,3.79E-05,-1.15E-05,-3.54E-06,3.96E-06
1701,8.37E-06,1.86E-05,3.32E-05,-5.49E-05,-5.95E-06,1.06E-05
1702,1.78E-05,2.18E-05,2.59E-05,-3.28E-05,-7.16E-06,1.35E-05
1703,2.22E-05,2.37E-05,2.47E-05,6.09E-05,-7.90E-06,1.01E-05
1704,1.88E-05,2.43E-05,2.67E-05,0.000156665,-1.03E-05,5.46E-06
1705,8.65E-06,2.33E-05,2.73E-05,0.000149313,-1.38E-05,4.28E-06
1706,-2.95E-06,2.09E-05,2.90E-05,5.46E-05,-1.55E-05,7.41E-06
1707,-4.83E-06,1.89E-05,2.99E-05,-2.23E-05,-1.47E-05,1.19E-05
1708,4.84E-06,1.88E-05,2.71E-05,-2.73E-05,-1.34E-05,1.45E-05
1709,1.34E-05,2.01E-05,2.73E-05,4.51E-05,-1.19E-05,1.59E-05
1710,1.24E-05,2.05E-05,3.28E-05,0.000136362,-9.48E-06,1.78E-05
1711,4.45E-06,1.93E-05,3.63E-05,0.00014161,-6.94E-06,1.82E-05
1712,-4.98E-06,1.77E-05,3.51E-05,4.97E-05,-3.75E-06,1.72E-05
1713,-9.90E-06,1.65E-05,3.03E-05,-2.88E-05,1.06E-07,1.78E-05
1714,-8.09E-06,1.49E-05,2.37E-05,-4.04E-05,-4.63E-07,1.91E-05
1715,-6.86E-06,1.30E-05,2.35E-05,1.92E-05,-6.71E-06,1.88E-05
1716,-1.26E-05,1.27E-05,3.07E-05,0.000116092,-1.19E-05,1.85E-05
1717,-2.60E-05,1.37E-05,3.42E-05,0.000140267,-1.19E-05,1.91E-05
1718,-4.01E-05,1.31E-05,3.27E-05,5.35E-05,-8.73E-06,1.95E-05
1719,-3.95E-05,1.28E-05,3.30E-05,-2.38E-05,-7.00E-06,2.14E-05
1720,-2.71E-05,1.42E-05,3.22E-05,-1.33E-05,-8.82E-06,2.19E-05
1721,-2.10E-05,1.51E-05,2.95E-05,2.42E-05,-1.21E-05,1.90E-05
1722,-2.00E-05,1.43E-05,3.15E-05,2.01E-05,-1.34E-05,1.92E-05
1723,-1.63E-05,1.16E-05,3.64E-05,2.17E-05,-1.14E-05,2.11E-05
1724,-8.38E-06,9.18E-06,3.73E-05,8.44E-05,-9.90E-06,2.10E-05
1725,-2.53E-06,8.35E-06,3.47E-05,0.00014434,-9.91E-06,1.76E-05
1726,-7.73E-06,7.00E-06,3.32E-05,0.000102445,-1.08E-05,1.29E-05
1727,-1.81E-05,5.03E-06,3.24E-05,1.35E-05,-1.36E-05,1.14E-05
1728,-1.70E-05,3.18E-06,2.69E-05,-3.45E-05,-1.49E-05,1.37E-05
1729,-4.07E-06,2.07E-06,2.14E-05,-2.02E-05,-1.22E-05,1.47E-05
1730,7.57E-06,3.25E-06,2.50E-05,6.02E-05,-7.01E-06,1.28E-05
1731,1.07E-05,5.43E-06,3.32E-05,0.000147784,-2.91E-06,1.17E-05
1732,3.88E-06,5.94E-06,3.92E-05,0.000142723,-4.20E-07,1.24E-05
1733,-6.98E-06,4.80E-06,4.03E-05,5.40E-05,1.46E-06,1.45E-05
1734,-8.87E-06,2.60E-06,3.47E-05,-2.09E-05,1.16E-06,1.67E-05
1735,8.37E-07,-1.33E-07,2.60E-05,-3.00E-05,-1.04E-06,1.73E-05
1736,1.11E-05,-9.80E-07,2.52E-05,3.92E-05,-1.34E-06,1.52E-05
1737,1.62E-05,1.38E-06,3.40E-05,0.000134424,3.30E-07,1.30E-05
1738,1.54E-05,3.74E-06,4.30E-05,0.000143174,1.29E-06,1.02E-05
1739,8.88E-06,4.36E-06,4.61E-05,4.76E-05,1.11E-06,6.66E-06
1740,3.24E-06,5.71E-06,4.06E-05,-3.44E-05,-1.11E-06,7.91E-06
1741,1.40E-06,9.05E-06,2.85E-05,-4.05E-05,-4.98E-06,1.45E-05
1742,-1.52E-06,1.22E-05,2.28E-05,3.26E-05,-7.86E-06,1.95E-05
1743,-6.79E-06,1.22E-05,2.92E-05,0.000142046,-8.21E-06,1.93E-05
1744,-1.65E-05,9.47E-06,3.78E-05,0.000171212,-5.00E-06,1.40E-05
1745,-2.86E-05,7.05E-06,4.18E-05,8.31E-05,1.46E-07,9.06E-06
1746,-3.13E-05,6.38E-06,3.63E-05,-2.61E-06,2.92E-06,1.04E-05
1747,-2.47E-05,6.73E-06,2.37E-05,-5.58E-06,3.18E-06,1.34E-05
1748,-2.23E-05,7.38E-06,1.69E-05,2.63E-05,2.19E-06,1.30E-05
1749,-1.99E-05,6.90E-06,2.39E-05,2.06E-05,-2.28E-07,1.34E-05
1750,-1.23E-05,5.32E-06,3.61E-05,1.27E-05,-3.11E-06,1.56E-05
1751,-7.20E-06,6.23E-06,3.91E-05,6.62E-05,-5.71E-06,1.81E-05
1752,-1.05E-05,8.82E-06,3.39E-05,0.000129927,-8.31E-06,1.79E-05
1753,-2.49E-05,7.62E-06,3.04E-05,9.90E-05,-1.18E-05,1.45E-05
1754,-3.87E-05,4.97E-06,3.12E-05,1.57E-05,-1.66E-05,1.26E-05
1755,-3.51E-05,6.08E-06,2.80E-05,-3.39E-05,-2.15E-05,1.20E-05
1756,-2.09E-05,8.83E-06,2.20E-05,-2.34E-05,-2.34E-05,1.09E-05
1757,-1.08E-05,1.02E-05,2.16E-05,5.50E-05,-1.80E-05,1.05E-05
1758,-6.81E-06,9.00E-06,2.48E-05,0.000141478,-6.40E-06,1.23E-05
1759,-9.03E-06,6.34E-06,2.97E-05,0.000133413,3.78E-06,1.52E-05
1760,-1.55E-05,5.17E-06,3.63E-05,4.03E-05,6.70E-06,1.87E-05
1761,-1.72E-05,5.32E-06,3.90E-05,-3.50E-05,4.79E-06,2.36E-05
1762,-1.10E-05,5.20E-06,3.62E-05,-3.85E-05,5.17E-06,2.73E-05
1763,-4.21E-06,5.83E-06,3.61E-05,3.39E-05,1.14E-05,2.54E-05
1764,-2.25E-06,8.52E-06,3.87E-05,0.000123437,1.79E-05,1.82E-05
1765,-6.40E-06,1.11E-05,3.89E-05,0.000125819,1.54E-05,9.84E-06
1766,-1.32E-05,1.07E-05,4.02E-05,3.27E-05,5.05E-06,5.67E-06
1767,-1.16E-05,9.03E-06,4.11E-05,-4.26E-05,-3.72E-06,7.47E-06
1768,6.95E-07,9.43E-06,3.68E-05,-4.53E-05,-6.98E-06,1.16E-05
1769,9.51E-06,1.21E-05,3.43E-05,2.47E-05,-6.81E-06,1.36E-05
1770,9.98E-06,1.67E-05,3.74E-05,0.000126954,-7.07E-06,1.24E-05
1771,5.47E-06,2.33E-05,3.98E-05,0.000150313,-8.17E-06,8.68E-06
1772,-1.31E-06,2.70E-05,4.11E-05,6.14E-05,-8.36E-06,5.70E-06
1773,-2.80E-06,2.57E-05,4.06E-05,-1.30E-05,-6.98E-06,6.49E-06
1774,-1.97E-07,2.35E-05,3.38E-05,-1.05E-06,-4.93E-06,7.94E-06
1775,-5.23E-06,2.23E-05,2.64E-05,3.21E-05,-7.08E-06,7.85E-06
1776,-1.39E-05,2.15E-05,2.69E-05,2.73E-05,-1.22E-05,7.59E-06
1777,-1.37E-05,2.10E-05,3.23E-05,3.35E-05,-1.44E-05,7.23E-06
1778,-6.97E-06,2.06E-05,3.63E-05,0.000104482,-1.25E-05,6.20E-06
1779,-2.06E-06,1.90E-05,3.75E-05,0.000178024,-1.11E-05,9.79E-07
1780,-7.87E-06,1.75E-05,3.84E-05,0.0001427,-1.24E-05,-6.54E-06
1781,-2.09E-05,1.68E-05,3.97E-05,4.47E-05,-1.35E-05,-8.73E-06
1782,-2.50E-05,1.75E-05,3.20E-05,-1.58E-05,-1.27E-05,-3.55E-06
1783,-1.91E-05,1.76E-05,1.95E-05,-2.65E-06,-1.05E-05,3.92E-06
1784,-1.46E-05,1.66E-05,1.70E-05,8.97E-05,-8.62E-06,8.00E-06
1785,-1.71E-05,1.56E-05,2.27E-05,0.000187907,-9.13E-06,7.82E-06
1786,-2.41E-05,1.41E-05,2.86E-05,0.000180828,-1.12E-05,4.13E-06
1787,-2.89E-05,1.19E-05,3.00E-05,8.21E-05,-1.15E-05,1.15E-06
1788,-2.54E-05,1.05E-05,2.54E-05,1.37E-06,-1.10E-05,2.84E-06
1789,-1.49E-05,1.18E-05,1.90E-05,-5.06E-06,-1.15E-05,6.77E-06
1790,-4.92E-06,1.48E-05,1.89E-05,6.68E-05,-1.25E-05,8.69E-06
1791,-1.06E-06,1.63E-05,2.46E-05,0.000156212,-1.46E-05,7.79E-06
1792,-6.81E-06,1.43E-05,2.99E-05,0.000156293,-1.75E-05,5.26E-06
1793,-1.88E-05,1.04E-05,3.45E-05,6.14E-05,-2.00E-05,4.45E-06
1794,-2.32E-05,7.95E-06,3.42E-05,-1.20E-05,-2.27E-05,8.79E-06
1795,-1.56E-05,8.54E-06,2.68E-05,-1.50E-05,-2.55E-05,1.53E-05
1796,-5.37E-06,1.07E-05,2.45E-05,5.02E-05,-2.66E-05,1.83E-05
1797,2.66E-06,1.38E-05,3.13E-05,0.000146466,-2.58E-05,1.88E-05
1798,2.12E-06,1.47E-05,3.71E-05,0.000160936,-2.31E-05,1.72E-05
1799,-8.40E-06,1.21E-05,4.23E-05,6.25E-05,-1.81E-05,1.43E-05
1800,-1.28E-05,1.00E-05,4.34E-05,-2.29E-05,-1.30E-05,1.54E-05
1801,-3.47E-06,1.15E-05,3.47E-05,-1.62E-05,-1.24E-05,1.68E-05
1802,3.43E-06,1.41E-05,2.63E-05,2.08E-05,-1.61E-05,1.62E-05
1803,2.14E-06,1.47E-05,2.66E-05,1.23E-05,-1.71E-05,1.79E-05
1804,2.84E-06,1.45E-05,3.08E-05,1.02E-08,-1.43E-05,2.03E-05
1805,4.49E-06,1.62E-05,3.40E-05,4.94E-05,-1.10E-05,1.96E-05
1806,1.99E-07,2.01E-05,3.61E-05,0.00011299,-8.70E-06,1.64E-05
1807,-1.08E-05,2.18E-05,3.87E-05,8.64E-05,-9.49E-06,1.28E-05
1808,-2.06E-05,1.99E-05,3.91E-05,7.22E-06,-1.19E-05,1.13E-05
1809,-1.99E-05,1.79E-05,3.00E-05,-3.96E-05,-1.35E-05,1.11E-05
1810,-1.01E-05,1.70E-05,1.85E-05,-2.28E-05,-1.38E-05,1.04E-05
1811,6.84E-07,1.70E-05,1.63E-05,6.55E-05,-1.29E-05,9.65E-06
1812,6.46E-06,1.82E-05,1.88E-05,0.000157362,-1.02E-05,8.78E-06
1813,4.38E-06,1.94E-05,1.98E-05,0.00014909,-6.09E-06,8.08E-06
1814,-1.70E-06,1.98E-05,1.94E-05,5.59E-05,-2.77E-06,9.45E-06
1815,-1.73E-06,2.03E-05,1.62E-05,-2.02E-05,-1.25E-06,1.40E-05
1816,4.06E-06,2.23E-05,1.07E-05,-3.07E-05,-5.91E-07,1.96E-05
1817,7.33E-06,2.54E-05,9.33E-06,3.06E-05,-1.65E-06,2.28E-05
1818,5.33E-06,2.72E-05,1.40E-05,0.000115404,-6.52E-06,2.11E-05
1819,-2.00E-06,2.60E-05,2.02E-05,0.000122976,-1.32E-05,1.44E-05
1820,-1.28E-05,2.34E-05,2.53E-05,4.02E-05,-1.80E-05,8.21E-06
1821,-1.57E-05,2.14E-05,2.52E-05,-2.69E-05,-1.98E-05,9.50E-06
1822,-6.90E-06,1.98E-05,1.87E-05,-3.26E-05,-1.90E-05,1.56E-05
1823,2.08E-06,1.76E-05,1.69E-05,2.47E-05,-1.63E-05,1.79E-05
1824,4.12E-06,1.67E-05,2.42E-05,0.000117525,-1.38E-05,1.47E-05
1825,-5.38E-06,1.80E-05,2.92E-05,0.00014012,-1.41E-05,9.19E-06
1826,-2.18E-05,1.94E-05,2.91E-05,5.43E-05,-1.44E-05,5.32E-06
1827,-2.47E-05,1.91E-05,2.76E-05,-1.95E-05,-1.30E-05,9.20E-06
1828,-1.43E-05,1.71E-05,2.37E-05,-4.10E-06,-1.23E-05,1.83E-05
1829,-1.17E-05,1.68E-05,2.02E-05,3.43E-05,-1.06E-05,2.34E-05
1830,-1.67E-05,1.84E-05,2.18E-05,2.27E-05,-6.27E-06,2.32E-05
1831,-1.99E-05,1.93E-05,2.65E-05,1.23E-05,-5.03E-07,1.81E-05
1832,-1.90E-05,2.02E-05,2.80E-05,6.92E-05,3.53E-06,1.19E-05
1833,-1.55E-05,2.03E-05,2.68E-05,0.000141097,3.48E-06,8.42E-06
1834,-1.46E-05,1.88E-05,2.90E-05,0.000117312,-1.28E-08,7.45E-06
1835,-1.67E-05,1.53E-05,3.35E-05,2.70E-05,-4.69E-06,9.06E-06
1836,-1.48E-05,8.91E-06,2.91E-05,-4.02E-05,-9.18E-06,1.18E-05
1837,-7.82E-06,1.97E-06,1.87E-05,-3.98E-05,-1.21E-05,1.37E-05
1838,-1.96E-06,-6.98E-07,1.53E-05,4.19E-05,-1.36E-05,1.43E-05
1839,-4.89E-07,1.15E-06,1.76E-05,0.000137403,-1.60E-05,1.35E-05
1840,-4.45E-06,1.86E-06,1.90E-05,0.000134902,-1.76E-05,1.15E-05
1841,-1.22E-05,-3.38E-07,1.87E-05,4.32E-05,-1.60E-05,1.31E-05
1842,-1.44E-05,-1.42E-06,1.61E-05,-3.15E-05,-1.27E-05,1.97E-05
1843,-5.92E-06,4.05E-07,1.03E-05,-3.47E-05,-9.90E-06,2.59E-05
1844,3.26E-06,3.46E-06,7.67E-06,3.70E-05,-7.47E-06,2.64E-05
1845,1.83E-06,6.11E-06,9.98E-06,0.000127394,-5.41E-06,2.17E-05
1846,-1.07E-05,6.53E-06,1.39E-05,0.000133814,-4.66E-06,1.54E-05
1847,-2.35E-05,4.40E-06,1.82E-05,4.43E-05,-5.71E-06,1.14E-05
1848,-2.42E-05,1.81E-06,1.78E-05,-2.83E-05,-7.50E-06,1.12E-05
1849,-1.51E-05,7.38E-07,1.04E-05,-3.11E-05,-7.19E-06,1.41E-05
1850,-8.46E-06,1.51E-06,7.33E-06,3.46E-05,-3.52E-06,1.78E-05
1851,-9.80E-06,3.08E-06,1.29E-05,0.000135276,7.36E-07,2.01E-05
1852,-1.74E-05,3.85E-06,1.76E-05,0.000162519,3.18E-06,1.80E-05
1853,-2.62E-05,3.46E-06,1.92E-05,7.38E-05,3.68E-06,1.53E-05
1854,-2.38E-05,3.18E-06,1.95E-05,-1.18E-05,2.62E-06,1.95E-05
1855,-9.43E-06,5.12E-06,1.56E-05,-5.77E-06,-1.15E-07,2.56E-05
1856,-3.87E-06,7.55E-06,9.06E-06,3.61E-05,-3.66E-06,2.58E-05
1857,-7.66E-06,7.37E-06,8.14E-06,3.40E-05,-6.59E-06,2.23E-05
1858,-4.71E-06,6.45E-06,1.68E-05,2.43E-05,-7.47E-06,2.03E-05
1859,4.09E-06,7.73E-06,2.62E-05,7.25E-05,-6.81E-06,1.84E-05
1860,8.20E-06,9.88E-06,2.76E-05,0.00013516,-5.44E-06,1.40E-05
1861,-1.76E-07,9.84E-06,2.46E-05,0.000110438,-5.31E-06,9.74E-06
1862,-1.16E-05,9.18E-06,2.22E-05,3.44E-05,-6.70E-06,9.36E-06
1863,-6.83E-06,9.83E-06,1.56E-05,-1.14E-05,-6.44E-06,1.27E-05
1864,9.30E-06,9.38E-06,9.40E-06,7.79E-07,-4.68E-06,1.34E-05
1865,1.80E-05,8.05E-06,1.49E-05,8.05E-05,-4.53E-06,9.76E-06
1866,1.59E-05,7.75E-06,2.43E-05,0.000165917,-5.76E-06,4.83E-06
1867,1.04E-05,8.95E-06,2.80E-05,0.000157471,-6.09E-06,-1.24E-07
1868,6.49E-06,1.09E-05,2.78E-05,7.02E-05,-6.58E-06,-2.57E-06
1869,8.66E-06,1.19E-05,2.48E-05,-4.32E-07,-8.23E-06,6.22E-07
1870,1.76E-05,1.19E-05,1.95E-05,-1.07E-05,-9.95E-06,8.67E-06
1871,2.62E-05,1.27E-05,1.92E-05,5.05E-05,-9.84E-06,1.67E-05
1872,2.89E-05,1.55E-05,2.26E-05,0.000140158,-8.62E-06,2.02E-05
1873,2.30E-05,1.89E-05,2.28E-05,0.000154172,-8.85E-06,1.84E-05
1874,1.09E-05,2.08E-05,2.35E-05,7.06E-05,-1.19E-05,1.49E-05
1875,5.22E-06,2.02E-05,2.32E-05,-7.33E-06,-1.44E-05,1.48E-05
1876,1.12E-05,1.65E-05,1.63E-05,-2.13E-05,-1.19E-05,1.82E-05
1877,1.61E-05,1.14E-05,1.32E-05,3.95E-05,-5.53E-06,2.03E-05
1878,1.22E-05,1.09E-05,1.90E-05,0.00013731,2.09E-07,1.78E-05
1879,9.87E-07,1.37E-05,2.64E-05,0.00016102,8.67E-07,1.12E-05
1880,-1.05E-05,1.30E-05,3.38E-05,7.42E-05,-4.35E-06,6.85E-06
1881,-9.77E-06,9.89E-06,3.59E-05,-1.06E-05,-1.22E-05,1.09E-05
1882,-2.35E-06,8.21E-06,2.98E-05,-1.76E-05,-1.69E-05,1.75E-05
1883,-3.16E-06,7.71E-06,2.34E-05,1.22E-05,-1.71E-05,1.92E-05
1884,-6.56E-06,8.70E-06,2.54E-05,1.56E-05,-1.62E-05,1.79E-05
1885,-3.89E-06,8.89E-06,3.45E-05,2.28E-05,-1.49E-05,1.52E-05
1886,1.05E-06,8.41E-06,4.01E-05,8.64E-05,-1.30E-05,1.30E-05
1887,9.91E-07,8.86E-06,3.88E-05,0.000147631,-1.06E-05,1.32E-05
1888,-1.17E-05,8.99E-06,3.69E-05,0.000105719,-7.52E-06,1.30E-05
1889,-2.73E-05,8.97E-06,3.79E-05,1.16E-05,-6.21E-06,1.33E-05
1890,-2.36E-05,8.98E-06,3.25E-05,-4.47E-05,-8.37E-06,1.76E-05
1891,-4.51E-06,9.44E-06,2.21E-05,-3.50E-05,-1.17E-05,2.31E-05
1892,9.69E-06,9.77E-06,1.97E-05,4.96E-05,-1.33E-05,2.45E-05
1893,1.10E-05,1.09E-05,2.41E-05,0.000146456,-1.25E-05,1.95E-05
1894,2.80E-06,1.25E-05,2.99E-05,0.00014703,-1.07E-05,1.19E-05
1895,-8.56E-06,1.38E-05,3.69E-05,5.69E-05,-8.93E-06,7.78E-06
1896,-1.30E-05,1.58E-05,4.12E-05,-2.00E-05,-6.48E-06,9.13E-06
1897,-7.18E-06,1.75E-05,3.82E-05,-2.57E-05,-6.02E-06,1.26E-05
1898,-7.10E-07,1.78E-05,3.50E-05,4.36E-05,-9.42E-06,1.39E-05
1899,-1.15E-06,1.82E-05,3.57E-05,0.000129673,-1.29E-05,1.19E-05
1900,-6.82E-06,1.81E-05,3.87E-05,0.000131015,-1.25E-05,7.33E-06
1901,-1.13E-05,1.48E-05,4.38E-05,3.87E-05,-9.59E-06,2.96E-06
1902,-6.33E-06,1.04E-05,4.44E-05,-3.78E-05,-8.32E-06,2.64E-06
1903,5.10E-06,8.34E-06,3.53E-05,-4.47E-05,-8.73E-06,5.27E-06
1904,9.21E-06,8.96E-06,2.60E-05,2.20E-05,-8.23E-06,9.11E-06
1905,3.94E-06,1.08E-05,2.37E-05,0.000124548,-7.92E-06,1.35E-05
1906,-3.57E-06,1.13E-05,2.51E-05,0.000148009,-8.05E-06,1.13E-05
1907,-7.76E-06,1.01E-05,2.94E-05,5.32E-05,-7.86E-06,3.41E-06
1908,-2.08E-06,9.57E-06,3.29E-05,-3.29E-05,-1.01E-05,3.03E-06
1909,9.18E-06,1.01E-05,2.91E-05,-2.94E-05,-1.34E-05,7.25E-06
1910,1.31E-05,1.21E-05,1.96E-05,1.68E-06,-1.10E-05,6.95E-06
1911,1.23E-05,1.44E-05,2.11E-05,-7.32E-06,-3.67E-06,5.32E-06
1912,1.30E-05,1.43E-05,3.47E-05,-1.10E-05,9.51E-07,7.03E-06
1913,1.55E-05,1.59E-05,4.26E-05,4.87E-05,-4.55E-07,1.20E-05
1914,1.58E-05,2.05E-05,4.15E-05,0.0001136,-3.10E-06,1.39E-05
1915,6.65E-06,2.33E-05,3.99E-05,7.89E-05,-5.11E-06,1.14E-05
1916,-8.64E-06,2.33E-05,3.90E-05,-6.32E-06,-8.40E-06,9.81E-06
1917,-1.40E-05,2.19E-05,3.07E-05,-4.92E-05,-1.14E-05,1.21E-05
1918,-6.51E-06,1.99E-05,2.19E-05,-2.79E-05,-1.28E-05,1.67E-05
1919,4.08E-06,1.80E-05,2.43E-05,5.76E-05,-1.35E-05,2.12E-05
1920,1.06E-05,1.73E-05,3.07E-05,0.000145727,-1.61E-05,2.27E-05
1921,8.52E-06,1.61E-05,3.21E-05,0.000135098,-2.09E-05,1.93E-05
1922,8.92E-07,1.31E-05,3.09E-05,4.04E-05,-2.60E-05,1.48E-05
1923,-5.66E-07,1.17E-05,3.05E-05,-2.92E-05,-2.75E-05,1.36E-05
1924,5.75E-06,1.32E-05,3.02E-05,-2.31E-05,-2.59E-05,1.45E-05
1925,9.57E-06,1.52E-05,3.30E-05,5.20E-05,-2.37E-05,1.37E-05
1926,6.46E-06,1.53E-05,3.76E-05,0.000136193,-2.07E-05,9.70E-06
1927,-3.10E-06,1.36E-05,4.04E-05,0.000134064,-1.58E-05,4.04E-06
1928,-1.58E-05,1.14E-05,4.24E-05,4.17E-05,-9.62E-06,1.86E-06
1929,-2.09E-05,9.64E-06,4.12E-05,-3.44E-05,-2.44E-06,6.11E-06
