Time_Index,DELTOID_Affected,DELTOID_NonAffected,BICEPS_Affected,BICEPS_NonAffected,FOREARM_Affected,FOREARM_NonAffected
1,-8.46695e-06,4.36063e-05,3.09525e-05,4.8765e-05,-1.52933e-05,9.34984e-06
2,-1.37372e-05,4.04067e-05,2.24142e-05,4.81097e-05,-1.28033e-05,7.80498e-06
3,-2.77206e-05,3.72204e-05,1.7685e-05,5.00043e-05,-9.59023e-06,7.14932e-06
4,-3.08704e-05,3.15326e-05,2.20132e-05,5.09479e-05,-9.25425e-06,9.48833e-06
5,-1.20845e-05,2.88909e-05,3.27837e-05,4.82541e-05,-1.17485e-05,1.29801e-05
6,2.60718e-06,2.77603e-05,3.73273e-05,4.55625e-05,-1.30947e-05,1.37304e-05
7,3.56085e-06,2.56282e-05,3.38689e-05,4.82228e-05,-1.20579e-05,1.39222e-05
8,3.42831e-06,2.09186e-05,2.84523e-05,5.17525e-05,-1.2636e-05,1.51173e-05
9,2.85115e-06,1.61921e-05,2.43808e-05,5.11943e-05,-1.36111e-05,1.4081e-05
10,4.1824e-06,1.1958e-05,2.79669e-05,4.63452e-05,-1.32813e-05,1.40448e-05
11,-1.80039e-06,5.88345e-06,3.31589e-05,4.27841e-05,-1.19556e-05,1.40746e-05
12,-1.47125e-05,-1.90937e-06,3.42086e-05,4.34025e-05,-1.06636e-05,1.31757e-05
13,-1.75317e-05,-9.28801e-06,3.15966e-05,4.47815e-05,-1.03214e-05,1.24222e-05
14,-7.89409e-06,-1.28156e-05,2.8812e-05,4.51163e-05,-8.01185e-06,1.39713e-05
15,8.09416e-07,-1.34122e-05,2.79643e-05,4.48264e-05,-7.14473e-06,1.59709e-05
16,2.65792e-06,-1.01167e-05,2.85977e-05,4.48227e-05,-1.18854e-05,1.59457e-05
17,-3.55834e-06,-5.4907e-06,2.69502e-05,4.73307e-05,-1.79623e-05,1.32649e-05
18,-1.53638e-05,-5.65559e-06,2.16525e-05,5.29382e-05,-1.8328e-05,9.51342e-06
19,-1.5693e-05,-9.27568e-06,1.92093e-05,5.73693e-05,-1.45767e-05,8.00597e-06
20,6.03213e-07,-9.42602e-06,2.41063e-05,5.82193e-05,-1.34092e-05,9.71023e-06
21,1.68323e-05,-3.61713e-06,3.23332e-05,5.69095e-05,-1.68835e-05,1.30861e-05
22,2.02987e-05,4.35042e-06,3.48199e-05,5.49588e-05,-2.2959e-05,1.43034e-05
23,1.19087e-05,8.44679e-06,3.04525e-05,5.32168e-05,-2.58167e-05,1.27155e-05
24,-5.77585e-06,5.98659e-06,2.46178e-05,5.22672e-05,-2.27641e-05,1.12055e-05
25,-1.72793e-05,4.98051e-07,2.59671e-05,4.9911e-05,-1.7471e-05,1.34973e-05
26,-1.13034e-05,-2.96261e-06,3.36061e-05,4.53159e-05,-1.30806e-05,1.75174e-05
27,6.03921e-07,-3.16342e-06,3.80519e-05,4.27347e-05,-1.14307e-05,1.78147e-05
28,2.68346e-06,-3.46243e-07,3.8479e-05,4.46634e-05,-9.54592e-06,1.57444e-05
29,-7.31954e-06,2.08225e-06,3.92496e-05,4.7101e-05,-4.01518e-06,1.39346e-05
30,-2.58512e-05,-2.2953e-06,3.9147e-05,4.78925e-05,3.32793e-06,1.09619e-05
31,-3.19311e-05,-8.50297e-06,4.18279e-05,4.85756e-05,7.95593e-06,1.03053e-05
32,-1.33863e-05,-6.70018e-06,4.59078e-05,4.86848e-05,7.83808e-06,1.22539e-05
33,-6.89647e-07,-2.41836e-06,4.60742e-05,4.91522e-05,3.58637e-06,1.43404e-05
34,-2.97927e-06,-2.85717e-06,4.40692e-05,5.21981e-05,-2.81824e-06,1.598e-05
35,-7.1285e-06,-2.35433e-06,4.18845e-05,5.58135e-05,-7.53396e-06,1.67282e-05
36,-1.17632e-05,2.79924e-06,3.84629e-05,5.62708e-05,-1.13408e-05,1.69581e-05
37,-1.25486e-05,1.28864e-05,3.76739e-05,5.315e-05,-1.05396e-05,1.57256e-05
38,-1.92968e-05,2.26293e-05,4.07607e-05,4.93388e-05,-7.91421e-06,1.29185e-05
39,-3.43427e-05,2.53612e-05,3.96196e-05,4.92374e-05,-9.42742e-06,1.18342e-05
40,-3.74861e-05,2.28884e-05,3.38116e-05,5.03725e-05,-1.24301e-05,1.42427e-05
41,-2.35309e-05,1.81872e-05,2.93532e-05,4.92755e-05,-1.08173e-05,1.67058e-05
42,-1.21556e-05,1.66546e-05,2.63169e-05,4.6847e-05,-6.43479e-06,1.59009e-05
43,-9.84029e-06,2.00435e-05,2.30931e-05,4.60307e-05,-8.21315e-06,1.47662e-05
44,-1.51364e-05,2.23608e-05,1.8979e-05,4.77388e-05,-1.65563e-05,1.41677e-05
45,-2.18204e-05,1.75142e-05,1.85965e-05,5.01869e-05,-2.35875e-05,1.19795e-05
46,-1.9377e-05,9.37761e-06,2.37674e-05,5.0648e-05,-2.30392e-05,8.21994e-06
47,-6.62819e-06,5.44364e-06,2.90911e-05,4.78427e-05,-1.8385e-05,6.51948e-06
48,6.27888e-06,7.99063e-06,2.88528e-05,4.4096e-05,-1.59288e-05,9.5797e-06
49,1.04396e-05,9.82182e-06,2.71504e-05,3.96106e-05,-1.60525e-05,1.53621e-05
50,6.1287e-06,5.08037e-06,2.86765e-05,3.73027e-05,-1.45456e-05,1.7712e-05
51,-4.59962e-06,-2.93111e-06,3.00191e-05,4.03166e-05,-1.26591e-05,1.38475e-05
52,-9.94487e-06,-8.23529e-06,3.07716e-05,4.42375e-05,-1.08315e-05,9.08712e-06
53,-2.08187e-06,-9.73119e-06,3.27507e-05,4.33892e-05,-6.98783e-06,8.826e-06
54,7.44661e-06,-7.64733e-06,3.49631e-05,4.23111e-05,-1.70437e-06,1.11341e-05
55,6.40905e-06,7.62202e-09,3.61888e-05,4.67904e-05,1.97348e-06,1.29325e-05
56,-2.31004e-06,8.66114e-06,3.62182e-05,5.14814e-05,1.4043e-06,1.51501e-05
57,-1.66046e-05,9.78461e-06,3.38422e-05,5.02997e-05,-1.70201e-06,1.58037e-05
58,-2.00759e-05,2.88338e-06,3.47074e-05,4.59083e-05,-5.76512e-06,1.68194e-05
59,-1.85061e-06,3.51143e-06,3.97408e-05,4.30221e-05,-7.2267e-06,1.92314e-05
60,5.8564e-06,1.27839e-05,3.91019e-05,4.25946e-05,-2.50987e-06,2.09256e-05
61,-4.11538e-06,1.68047e-05,3.41757e-05,4.26685e-05,2.55696e-06,2.32183e-05
62,-9.75443e-06,1.09174e-05,3.29207e-05,4.21566e-05,3.2547e-06,2.41497e-05
63,-1.03203e-05,5.37158e-06,3.37505e-05,4.23828e-05,-2.68451e-07,2.27694e-05
64,-6.04583e-06,1.15784e-05,3.47347e-05,4.22644e-05,-2.92583e-07,2.13852e-05
65,-9.17677e-06,2.06152e-05,3.28571e-05,4.22916e-05,5.18516e-06,1.70384e-05
66,-1.86949e-05,2.20648e-05,3.32762e-05,4.60545e-05,7.69964e-06,1.12964e-05
67,-1.55544e-05,1.86905e-05,3.79711e-05,5.00167e-05,6.80844e-06,7.7995e-06
68,1.01439e-06,1.50716e-05,4.44482e-05,5.01919e-05,7.2429e-06,9.00284e-06
69,1.38375e-05,1.32496e-05,4.82311e-05,4.78589e-05,1.13983e-05,1.17256e-05
70,1.71958e-05,1.44266e-05,4.7554e-05,4.68641e-05,1.41175e-05,1.29446e-05
71,1.08485e-05,1.43138e-05,4.34194e-05,4.88847e-05,1.31817e-05,1.33999e-05
72,-5.09641e-07,9.15078e-06,4.06937e-05,5.22744e-05,1.08245e-05,1.38161e-05
73,-3.60712e-06,5.19149e-06,4.58114e-05,5.71249e-05,9.30858e-06,1.43556e-05
74,4.11001e-06,6.8225e-06,5.22394e-05,6.14812e-05,8.22689e-06,1.51154e-05
75,1.17235e-05,1.10328e-05,5.20691e-05,6.28574e-05,5.77725e-06,1.51103e-05
76,1.13247e-05,1.44837e-05,4.62833e-05,6.09501e-05,1.93743e-06,1.22877e-05
77,3.50426e-06,1.796e-05,4.012e-05,5.95355e-05,-3.46744e-07,9.36945e-06
78,-9.55116e-06,1.93357e-05,3.68267e-05,6.08996e-05,1.40542e-07,8.69076e-06
79,-1.35286e-05,1.82565e-05,3.83657e-05,6.23669e-05,-4.5972e-07,1.04393e-05
80,-4.13988e-06,1.80562e-05,4.53237e-05,6.15513e-05,-4.07787e-06,1.36613e-05
81,5.75576e-06,1.95881e-05,5.33913e-05,5.94036e-05,-8.54e-06,1.56907e-05
82,7.47916e-06,2.43017e-05,5.43171e-05,5.70209e-05,-1.35716e-05,1.60963e-05
83,3.05967e-06,3.17983e-05,4.77935e-05,5.55044e-05,-1.97076e-05,1.89977e-05
84,-8.25507e-06,3.49373e-05,4.03691e-05,5.46969e-05,-2.39392e-05,2.15283e-05
85,-1.18648e-05,3.11605e-05,3.99854e-05,5.23322e-05,-2.56427e-05,2.23583e-05
86,2.37641e-06,2.77309e-05,4.44456e-05,4.87503e-05,-2.58673e-05,2.30294e-05
87,1.11362e-05,2.73533e-05,4.86588e-05,4.6622e-05,-2.19671e-05,2.22258e-05
88,9.48823e-06,2.90138e-05,5.09767e-05,4.56505e-05,-1.56645e-05,2.0997e-05
89,8.31451e-06,3.04845e-05,4.98076e-05,4.50204e-05,-1.51661e-05,2.01901e-05
90,8.41343e-06,3.23865e-05,4.39262e-05,4.4185e-05,-1.61792e-05,2.05839e-05
91,8.65314e-06,3.78013e-05,4.03735e-05,4.33421e-05,-1.47179e-05,2.12748e-05
92,-1.59815e-07,4.1488e-05,3.75807e-05,4.61315e-05,-1.63294e-05,1.94636e-05
93,-1.68468e-05,3.61639e-05,3.13447e-05,5.09716e-05,-1.96767e-05,1.74092e-05
94,-2.05373e-05,2.84995e-05,3.10718e-05,5.27241e-05,-1.6789e-05,1.87749e-05
95,-5.86792e-06,2.51333e-05,3.87566e-05,5.13105e-05,-1.0342e-05,2.22957e-05
96,6.03293e-06,2.38894e-05,4.51046e-05,5.03259e-05,-8.53018e-06,2.22085e-05
97,8.49547e-06,2.33804e-05,4.72919e-05,4.94155e-05,-1.16186e-05,1.84339e-05
98,1.89827e-07,2.167e-05,4.58609e-05,4.86227e-05,-1.67762e-05,1.38843e-05
99,-1.35872e-05,1.62877e-05,4.17237e-05,4.91421e-05,-2.02301e-05,1.15289e-05
100,-1.72777e-05,1.02396e-05,4.16679e-05,5.05617e-05,-2.26705e-05,1.14746e-05
101,-8.18759e-06,8.82376e-06,4.85011e-05,5.01736e-05,-2.39188e-05,1.09724e-05
102,-1.68899e-06,1.24887e-05,5.54035e-05,4.75178e-05,-2.27149e-05,7.56711e-06
103,-5.09956e-06,1.65263e-05,5.51919e-05,4.67882e-05,-1.9201e-05,3.14973e-06
104,-1.41632e-05,1.65678e-05,4.86353e-05,5.08626e-05,-1.39456e-05,1.75897e-06
105,-2.6788e-05,1.07828e-05,4.12389e-05,5.66484e-05,-8.84966e-06,1.59837e-06
106,-3.10988e-05,4.2749e-06,3.98357e-05,5.94334e-05,-6.53433e-06,-4.56769e-07
107,-2.05606e-05,4.34782e-06,4.27164e-05,5.86214e-05,-6.09393e-06,-2.58015e-06
108,-8.61311e-06,7.77999e-06,4.145e-05,5.62919e-05,-2.67343e-06,-3.5134e-07
109,-6.51437e-06,1.135e-05,3.62482e-05,5.42111e-05,1.1624e-06,4.08631e-06
110,-1.03669e-05,1.34008e-05,3.44652e-05,5.59548e-05,1.21856e-06,4.84552e-06
111,-2.26392e-05,7.70821e-06,3.45957e-05,6.19904e-05,-4.41328e-07,7.36749e-07
112,-2.73184e-05,-1.82087e-07,3.61712e-05,6.46551e-05,1.57645e-07,-2.26424e-06
113,-1.23413e-05,6.2159e-08,3.74626e-05,6.19696e-05,2.14512e-06,-4.89865e-07
114,-6.94165e-07,4.99912e-06,3.4702e-05,5.53301e-05,1.11545e-06,3.27506e-06
115,1.6881e-07,1.00448e-05,3.16784e-05,5.18636e-05,-1.04598e-06,5.8929e-06
116,-2.18751e-06,1.17414e-05,3.13232e-05,5.50318e-05,-8.32856e-07,7.28277e-06
117,-3.75041e-06,9.93022e-06,2.98918e-05,5.72937e-05,-1.07185e-06,6.23009e-06
118,-4.71575e-06,9.06639e-06,2.99834e-05,5.46346e-05,-2.84387e-06,4.90008e-06
119,-1.24923e-05,9.11347e-06,3.29779e-05,5.10702e-05,-5.38333e-06,3.59394e-06
120,-2.27328e-05,6.07346e-06,3.52261e-05,4.9813e-05,-9.70142e-06,2.66141e-06
121,-2.23503e-05,-4.63204e-07,3.88582e-05,4.99966e-05,-1.29853e-05,2.38979e-06
122,-1.25121e-05,-3.93143e-06,4.4006e-05,4.99e-05,-1.40276e-05,2.3326e-06
123,-6.43029e-06,-1.28761e-06,4.48335e-05,4.60049e-05,-1.34427e-05,3.15439e-06
124,-6.36005e-06,4.02206e-06,4.16644e-05,4.4755e-05,-1.34362e-05,4.67265e-06
125,-1.28105e-05,7.10194e-06,3.8588e-05,5.03365e-05,-1.64977e-05,5.34368e-06
126,-2.08627e-05,4.99959e-06,3.65395e-05,5.69287e-05,-2.14261e-05,5.31552e-06
127,-1.97102e-05,1.04949e-06,3.86019e-05,5.90842e-05,-2.32978e-05,6.75791e-06
128,-7.31132e-06,-1.21063e-06,4.56196e-05,5.72479e-05,-2.15247e-05,9.19906e-06
129,3.41874e-06,-1.34221e-06,5.04631e-05,5.48658e-05,-1.8787e-05,1.08864e-05
130,3.71831e-06,2.25184e-07,4.71065e-05,5.34291e-05,-1.73588e-05,1.0511e-05
131,-5.46281e-06,1.72544e-06,3.91135e-05,5.31793e-05,-1.85525e-05,8.67929e-06
132,-1.9378e-05,-1.08789e-06,3.35817e-05,5.33049e-05,-1.98571e-05,6.54396e-06
133,-2.34973e-05,-6.78998e-06,3.63055e-05,5.30226e-05,-1.90349e-05,6.04354e-06
134,-1.13781e-05,-1.22991e-05,4.34839e-05,5.13402e-05,-1.72808e-05,7.25817e-06
135,-1.14519e-06,-1.64798e-05,4.79063e-05,4.95583e-05,-1.6589e-05,9.4074e-06
136,-5.39248e-06,-1.47673e-05,4.74357e-05,4.8682e-05,-1.48675e-05,1.05017e-05
137,-1.75401e-05,-6.74146e-06,4.33957e-05,4.82611e-05,-1.24411e-05,1.11681e-05
138,-3.38625e-05,-1.81791e-06,3.59725e-05,4.90767e-05,-8.34221e-06,9.01643e-06
139,-3.65989e-05,-5.86433e-07,2.95087e-05,5.05112e-05,-2.83561e-06,4.98605e-06
140,-1.2691e-05,5.71179e-06,2.89396e-05,5.26551e-05,2.8849e-07,3.58461e-06
141,9.17948e-06,1.58592e-05,3.0291e-05,5.36109e-05,9.06733e-07,4.49692e-06
142,1.16318e-05,2.29309e-05,2.96153e-05,5.13557e-05,1.71819e-06,7.01722e-06
143,7.68695e-06,2.55689e-05,3.08921e-05,4.93736e-05,1.39268e-06,8.62372e-06
144,6.3044e-06,2.94069e-05,3.69144e-05,4.90398e-05,-1.3912e-06,8.22934e-06
145,8.58277e-06,3.54951e-05,4.30841e-05,4.8235e-05,-3.72262e-06,8.05976e-06
146,3.82751e-06,3.88575e-05,4.29237e-05,4.52927e-05,-3.52861e-06,9.05458e-06
147,-5.79302e-06,3.43262e-05,3.73621e-05,4.48276e-05,-1.92833e-06,8.22876e-06
148,-5.93652e-06,2.7281e-05,3.70839e-05,4.61922e-05,-1.05985e-06,7.07388e-06
149,3.39399e-06,2.16279e-05,4.44968e-05,4.70672e-05,-3.16971e-06,9.24261e-06
150,7.27674e-06,1.84049e-05,5.13652e-05,4.7344e-05,-8.93916e-06,1.31086e-05
151,2.07362e-06,1.82828e-05,5.2638e-05,4.55459e-05,-1.46025e-05,1.54785e-05
152,-1.1696e-05,1.83452e-05,4.87713e-05,4.24809e-05,-1.50801e-05,1.69176e-05
153,-2.52933e-05,1.52658e-05,4.57901e-05,3.95203e-05,-1.00038e-05,1.65451e-05
154,-2.7148e-05,1.07428e-05,4.96169e-05,3.70936e-05,-3.95705e-06,1.43031e-05
155,-1.74776e-05,7.58547e-06,5.68905e-05,3.58974e-05,-1.78891e-06,1.30628e-05
156,-7.73198e-06,6.05489e-06,5.93131e-05,3.61553e-05,-3.5653e-06,1.35316e-05
157,-5.26605e-06,6.98301e-06,5.3361e-05,3.71985e-05,-5.59425e-06,1.40487e-05
158,-1.05334e-05,9.994e-06,4.23207e-05,3.79201e-05,-6.15352e-06,1.1802e-05
159,-2.05862e-05,1.21772e-05,3.33419e-05,3.82455e-05,-4.91921e-06,8.12318e-06
160,-2.13002e-05,1.19924e-05,3.17972e-05,3.93915e-05,-1.48955e-06,7.24049e-06
161,-7.65691e-06,1.16531e-05,3.30973e-05,3.97945e-05,2.0179e-06,1.02493e-05
162,7.59941e-06,1.0904e-05,3.12545e-05,4.05104e-05,2.02162e-06,1.27643e-05
163,1.35458e-05,1.25763e-05,2.54129e-05,4.10301e-05,-6.59004e-07,1.1982e-05
164,5.87572e-06,1.47504e-05,1.67021e-05,4.00192e-05,-3.03989e-06,1.05086e-05
165,-1.62283e-05,1.28739e-05,1.09715e-05,4.0049e-05,-4.01926e-06,9.73202e-06
166,-2.73843e-05,8.08075e-06,1.66728e-05,4.06712e-05,-5.57766e-06,7.1159e-06
167,-1.29319e-05,5.30638e-06,2.88056e-05,3.89769e-05,-9.0224e-06,6.16481e-06
168,-4.19184e-06,8.99836e-06,2.98781e-05,3.65004e-05,-1.29564e-05,7.30856e-06
169,-5.3764e-06,1.68673e-05,2.52137e-05,3.74662e-05,-1.41469e-05,8.99438e-06
170,-3.86866e-06,2.12927e-05,2.50745e-05,4.33862e-05,-1.51391e-05,1.08762e-05
171,-6.1537e-06,2.19088e-05,2.71799e-05,4.70321e-05,-1.72892e-05,9.4167e-06
172,-7.79456e-06,2.30606e-05,2.89182e-05,4.58718e-05,-1.64505e-05,7.00903e-06
173,-1.67781e-05,2.39267e-05,2.67422e-05,4.21327e-05,-1.43277e-05,7.21955e-06
174,-2.74779e-05,2.02786e-05,2.18174e-05,3.89026e-05,-1.17219e-05,9.51493e-06
175,-2.25706e-05,1.48885e-05,2.06921e-05,3.82261e-05,-1.13126e-05,9.93556e-06
176,-3.33353e-06,1.39537e-05,2.2533e-05,4.04759e-05,-1.44091e-05,9.4141e-06
177,1.0867e-05,1.76972e-05,2.24467e-05,4.32542e-05,-1.72552e-05,1.08703e-05
178,1.20766e-05,2.16624e-05,2.04422e-05,4.38286e-05,-1.78047e-05,1.46617e-05
179,6.35335e-07,2.09074e-05,1.97108e-05,4.62077e-05,-1.61294e-05,1.80609e-05
180,-1.3644e-05,1.59373e-05,2.03223e-05,5.07178e-05,-1.45217e-05,1.99403e-05
181,-1.41353e-05,1.26112e-05,2.34269e-05,5.32841e-05,-1.30508e-05,1.99435e-05
182,8.85802e-08,1.27958e-05,2.92701e-05,5.21021e-05,-1.00726e-05,1.89937e-05
183,1.08545e-05,1.40239e-05,3.31973e-05,5.10627e-05,-5.32401e-06,1.92576e-05
184,6.80959e-06,1.43602e-05,3.28073e-05,5.10808e-05,-1.87379e-06,2.06639e-05
185,-5.49876e-06,1.3141e-05,3.13448e-05,4.99355e-05,-2.23464e-06,2.0673e-05
186,-2.11854e-05,9.43434e-06,3.21644e-05,4.76929e-05,-5.31332e-06,1.96237e-05
187,-2.7493e-05,3.49296e-06,3.61617e-05,4.76471e-05,-5.24155e-06,2.12192e-05
188,-2.03334e-05,-2.75558e-06,4.35472e-05,4.89612e-05,-8.74215e-07,2.50261e-05
189,-1.18084e-05,-9.9591e-06,5.17456e-05,4.8484e-05,3.36673e-07,2.69509e-05
190,-1.05263e-05,-1.25635e-05,5.31551e-05,4.77487e-05,-3.11243e-06,2.32659e-05
191,-1.59734e-05,-7.5094e-06,4.493e-05,4.65746e-05,-4.87752e-06,1.75777e-05
192,-3.41788e-05,-6.63578e-07,3.81428e-05,4.76879e-05,-6.13075e-06,1.35014e-05
193,-4.92518e-05,4.75397e-06,3.76697e-05,5.17707e-05,-9.27111e-06,1.02702e-05
194,-3.85382e-05,1.06592e-05,4.04245e-05,5.32634e-05,-1.06017e-05,1.26903e-05
195,-2.28971e-05,1.78157e-05,4.11139e-05,5.13721e-05,-8.26901e-06,1.77708e-05
196,-1.70952e-05,2.55964e-05,4.20171e-05,5.16779e-05,-1.33505e-06,1.84262e-05
197,-1.20192e-05,3.16776e-05,4.72435e-05,5.56602e-05,1.68402e-06,1.47916e-05
198,-8.56233e-06,3.59664e-05,5.11679e-05,5.9168e-05,-2.34028e-06,1.10023e-05
199,-7.64925e-06,4.32274e-05,5.15454e-05,5.80055e-05,-5.35316e-06,1.48194e-05
200,-1.5533e-05,4.91084e-05,4.99383e-05,5.39047e-05,-6.18423e-06,2.10735e-05
201,-2.4813e-05,4.45229e-05,4.91738e-05,5.40558e-05,-6.78398e-06,2.37988e-05
202,-1.88843e-05,3.46357e-05,5.16097e-05,5.57643e-05,-5.75688e-06,2.24815e-05
203,-2.23207e-06,2.9077e-05,5.36526e-05,5.63596e-05,-1.59194e-06,2.18547e-05
204,3.85962e-06,3.12702e-05,5.25114e-05,5.5076e-05,2.01604e-06,2.35352e-05
205,-1.79303e-06,3.38757e-05,4.97586e-05,5.50268e-05,-3.15032e-07,2.28182e-05
206,-1.28818e-05,2.84103e-05,4.62545e-05,5.81847e-05,-7.9071e-06,1.84585e-05
207,-2.16414e-05,1.61732e-05,4.07871e-05,6.22641e-05,-1.55429e-05,1.28503e-05
208,-1.82562e-05,5.14287e-06,3.46289e-05,6.36291e-05,-1.98793e-05,9.815e-06
209,-5.50007e-06,-9.91438e-07,3.14248e-05,6.00659e-05,-2.10124e-05,8.13004e-06
210,3.5788e-06,-4.09382e-06,3.10877e-05,5.51267e-05,-1.94097e-05,6.23237e-06
211,3.54687e-06,-6.28773e-06,3.09425e-05,5.2441e-05,-1.62542e-05,5.26527e-06
212,-4.90898e-06,-1.00456e-05,2.89755e-05,5.41373e-05,-1.3593e-05,6.19899e-06
213,-1.89474e-05,-1.54605e-05,2.77516e-05,5.88534e-05,-1.11778e-05,8.22407e-06
214,-2.19514e-05,-1.71926e-05,3.04817e-05,6.27457e-05,-7.30761e-06,1.14637e-05
215,-1.05896e-05,-1.39962e-05,3.30815e-05,6.09355e-05,-5.54113e-06,1.4132e-05
216,-2.65007e-06,-1.21776e-05,3.29783e-05,5.45609e-05,-1.13462e-05,1.39054e-05
217,-5.67227e-06,-1.18121e-05,3.20557e-05,4.95561e-05,-1.98904e-05,1.31845e-05
218,-1.37663e-05,-1.17258e-05,3.05656e-05,4.81793e-05,-2.2621e-05,1.57949e-05
219,-2.90804e-05,-1.16517e-05,2.7415e-05,4.94196e-05,-1.69203e-05,1.56878e-05
220,-3.41103e-05,-1.01364e-05,2.64297e-05,5.36898e-05,-1.09533e-05,9.6823e-06
221,-1.79394e-05,-4.39314e-06,3.49517e-05,5.76621e-05,-1.12013e-05,4.85959e-06
222,-7.47959e-06,8.46892e-06,4.18779e-05,5.98969e-05,-1.00053e-05,4.07969e-06
223,-9.77662e-06,1.95277e-05,4.0113e-05,5.81213e-05,-6.51011e-06,3.55417e-06
224,-1.16878e-05,2.19081e-05,3.52035e-05,5.23983e-05,-4.50913e-06,4.45194e-06
225,-1.48404e-05,2.17137e-05,3.404e-05,4.50239e-05,-7.96219e-06,7.17978e-06
226,-1.5926e-05,2.46166e-05,3.99174e-05,3.89485e-05,-1.63277e-05,7.8385e-06
227,-2.01814e-05,2.79463e-05,4.18763e-05,3.93397e-05,-2.14523e-05,7.47303e-06
228,-2.98469e-05,2.48648e-05,3.83887e-05,4.47931e-05,-2.085e-05,6.84328e-06
229,-2.97336e-05,1.9446e-05,3.83802e-05,4.69982e-05,-1.99551e-05,5.07208e-06
230,-1.31762e-05,1.51702e-05,4.11636e-05,4.52255e-05,-2.1301e-05,3.7284e-06
231,2.13306e-06,1.15675e-05,4.23498e-05,4.22739e-05,-1.87341e-05,4.86517e-06
232,4.3128e-06,8.7632e-06,4.2467e-05,4.06989e-05,-1.26208e-05,7.21167e-06
233,-3.13492e-06,5.35623e-06,4.08909e-05,4.24007e-05,-8.11575e-06,6.85209e-06
234,-5.90917e-06,1.22043e-06,3.51742e-05,4.82926e-05,-8.88978e-06,4.66121e-06
235,3.71204e-06,9.80408e-07,2.9963e-05,5.49745e-05,-1.16373e-05,5.77729e-06
236,1.82286e-05,4.79986e-06,3.10319e-05,5.5564e-05,-1.22234e-05,1.00436e-05
237,2.44818e-05,9.47559e-06,3.39446e-05,5.20941e-05,-1.12106e-05,1.24071e-05
238,2.12169e-05,1.26198e-05,3.26974e-05,5.04968e-05,-9.89681e-06,1.10189e-05
239,1.28192e-05,1.08469e-05,2.8945e-05,5.39338e-05,-7.66862e-06,8.50267e-06
240,1.41716e-06,4.2393e-06,2.7993e-05,5.79347e-05,-4.68453e-06,7.27356e-06
241,-9.36765e-07,-1.30596e-06,3.23553e-05,5.73306e-05,-3.50998e-06,9.09324e-06
242,8.09962e-06,3.78111e-07,3.77893e-05,5.2954e-05,-5.12793e-06,1.34229e-05
243,1.60485e-05,7.76774e-06,3.97052e-05,4.93913e-05,-8.63766e-06,1.83648e-05
244,1.59038e-05,1.71831e-05,3.63545e-05,4.64412e-05,-1.1376e-05,2.22103e-05
245,1.09741e-05,2.34533e-05,2.88824e-05,4.43995e-05,-1.20046e-05,2.3828e-05
246,-4.66245e-06,1.98243e-05,2.5754e-05,4.48723e-05,-1.33793e-05,2.01164e-05
247,-1.3159e-05,1.02552e-05,3.08727e-05,4.75388e-05,-1.50513e-05,1.39754e-05
248,2.5515e-08,6.57378e-06,3.55598e-05,4.94162e-05,-1.24612e-05,1.36874e-05
249,9.44889e-06,9.17579e-06,3.33757e-05,4.75056e-05,-8.27521e-06,1.45937e-05
250,9.41454e-06,9.59932e-06,3.18615e-05,4.49475e-05,-5.8133e-06,1.28263e-05
251,1.11829e-05,6.49132e-06,3.41083e-05,4.52096e-05,-3.99718e-06,1.37998e-05
252,1.27917e-05,5.32008e-06,3.45162e-05,4.41992e-05,-3.91567e-06,1.82844e-05
253,1.35576e-05,7.72825e-06,3.14224e-05,4.2312e-05,-3.88569e-06,2.21567e-05
254,6.26728e-06,1.01746e-05,2.74183e-05,4.42525e-05,-3.7854e-06,2.04723e-05
255,-4.69389e-06,8.3033e-06,2.72325e-05,4.93272e-05,-3.78091e-06,1.6057e-05
256,-2.66903e-06,5.88568e-06,3.09784e-05,5.32049e-05,7.72131e-07,1.40411e-05
257,1.1344e-05,5.23669e-06,3.44764e-05,5.34487e-05,4.35685e-06,1.46418e-05
258,1.98972e-05,6.37817e-06,3.61524e-05,5.01178e-05,1.89401e-06,1.65436e-05
259,1.79701e-05,8.49535e-06,3.56481e-05,4.80062e-05,-2.37962e-06,1.84563e-05
260,4.71188e-06,9.70207e-06,3.4651e-05,4.97399e-05,-9.66925e-07,1.83988e-05
261,-1.11794e-05,6.05581e-06,3.60683e-05,5.3248e-05,4.40343e-06,1.62985e-05
262,-1.28223e-05,-5.1719e-07,3.89989e-05,5.36715e-05,8.74991e-06,1.46883e-05
263,1.90332e-06,-3.65241e-06,4.02195e-05,4.83075e-05,1.07478e-05,1.46986e-05
264,1.40869e-05,1.70371e-07,3.91034e-05,4.25867e-05,1.27591e-05,1.58515e-05
265,1.27417e-05,6.96941e-06,3.80644e-05,4.04911e-05,1.63634e-05,1.65906e-05
266,1.46475e-06,9.40595e-06,3.66834e-05,4.14945e-05,1.96864e-05,1.73874e-05
267,-1.43199e-05,7.18054e-06,3.58032e-05,4.53415e-05,2.01088e-05,1.74788e-05
268,-1.79987e-05,4.63627e-06,3.99713e-05,5.16251e-05,1.61909e-05,1.44426e-05
269,-4.40395e-06,5.70543e-06,4.82139e-05,5.3781e-05,1.12876e-05,1.13296e-05
270,1.01087e-05,4.84187e-06,5.29116e-05,4.99274e-05,7.45883e-06,1.31691e-05
271,1.38577e-05,1.65811e-06,5.32371e-05,4.33028e-05,2.09328e-06,1.64333e-05
272,7.14559e-06,1.97965e-06,5.19573e-05,3.92853e-05,-3.97991e-06,1.5434e-05
273,-1.24089e-05,2.16562e-06,4.92942e-05,4.10919e-05,-7.80532e-06,1.13008e-05
274,-2.71329e-05,5.03682e-07,5.23739e-05,4.65567e-05,-1.04868e-05,7.89041e-06
275,-1.87397e-05,3.18847e-06,6.02385e-05,5.23666e-05,-1.12474e-05,7.53878e-06
276,-1.16037e-05,9.05687e-06,5.91762e-05,5.36424e-05,-1.32165e-05,8.58196e-06
277,-1.69613e-05,1.30457e-05,5.28471e-05,5.14847e-05,-1.3187e-05,9.66617e-06
278,-1.96131e-05,1.78674e-05,5.03845e-05,5.10482e-05,-7.98815e-06,1.1542e-05
279,-1.759e-05,2.49605e-05,5.00437e-05,4.94955e-05,-7.90086e-07,9.92115e-06
280,-1.35084e-05,3.24172e-05,4.72924e-05,4.60493e-05,-1.0787e-07,5.38376e-06
281,-2.12338e-05,3.97611e-05,3.891e-05,4.66451e-05,-9.44536e-06,2.74512e-06
282,-3.37024e-05,4.11866e-05,3.07362e-05,5.31037e-05,-1.9928e-05,2.40999e-06
283,-3.10169e-05,4.1302e-05,3.02479e-05,5.77052e-05,-2.34457e-05,4.70826e-06
284,-1.33572e-05,4.34141e-05,3.35957e-05,5.68863e-05,-2.11745e-05,7.69348e-06
285,1.92184e-06,4.44948e-05,3.50823e-05,5.40497e-05,-2.10986e-05,8.31173e-06
286,7.61227e-06,4.56029e-05,3.55787e-05,5.24641e-05,-2.51351e-05,5.31557e-06
287,1.62798e-06,4.59728e-05,3.35857e-05,5.32641e-05,-2.95499e-05,1.72896e-06
288,-9.62128e-06,4.36757e-05,2.88405e-05,5.51773e-05,-3.23083e-05,2.19692e-06
289,-8.90141e-06,3.88627e-05,2.79356e-05,5.64874e-05,-3.31495e-05,7.00615e-06
290,3.91186e-06,3.40354e-05,3.44248e-05,5.48076e-05,-3.08703e-05,1.29579e-05
291,1.372e-05,3.13277e-05,4.13009e-05,5.12855e-05,-2.73889e-05,1.60785e-05
292,1.35877e-05,3.00789e-05,4.0213e-05,4.9284e-05,-2.52958e-05,1.47781e-05
293,4.2811e-06,2.7812e-05,3.33419e-05,4.98405e-05,-2.43477e-05,1.1973e-05
294,-1.32019e-05,2.23233e-05,2.95608e-05,5.11821e-05,-2.2019e-05,1.12408e-05
295,-2.28352e-05,1.5229e-05,3.20013e-05,5.13969e-05,-1.71579e-05,1.19629e-05
296,-1.18822e-05,1.09406e-05,3.43798e-05,5.0103e-05,-1.06251e-05,1.32301e-05
297,6.31274e-06,8.1068e-06,3.17136e-05,4.97496e-05,-6.14673e-06,1.50427e-05
298,1.31571e-05,7.22251e-06,2.67456e-05,5.17812e-05,-5.16674e-06,1.6231e-05
299,5.69433e-06,8.62751e-06,2.06143e-05,5.57429e-05,-3.56846e-06,1.59579e-05
300,-1.3125e-05,1.03646e-05,1.63756e-05,5.95831e-05,-1.49957e-06,1.35201e-05
301,-2.17241e-05,1.36596e-05,1.78916e-05,6.18345e-05,1.11487e-08,1.13204e-05
302,-9.65361e-06,1.99262e-05,2.26061e-05,5.95373e-05,4.52333e-07,1.13258e-05
303,-3.30055e-07,2.33249e-05,2.15318e-05,5.53707e-05,-1.27875e-08,9.70002e-06
304,1.94179e-06,2.09385e-05,1.5626e-05,5.68499e-05,-2.60576e-06,9.0655e-06
305,3.9272e-06,1.51329e-05,1.53418e-05,5.77829e-05,-9.10542e-06,1.07914e-05
306,9.13459e-07,1.16881e-05,1.68156e-05,5.46899e-05,-1.14784e-05,1.05449e-05
307,-3.11551e-06,1.50388e-05,1.49181e-05,5.09897e-05,-8.44004e-06,1.02125e-05
308,-1.13074e-05,1.78491e-05,1.247e-05,5.0417e-05,-5.23098e-06,1.06661e-05
309,-2.23025e-05,1.68225e-05,1.62529e-05,5.37298e-05,-4.01286e-06,1.0729e-05
310,-2.35945e-05,1.65267e-05,2.56362e-05,5.54257e-05,-3.91957e-06,9.61824e-06
311,-1.39986e-05,1.96004e-05,3.44773e-05,5.69865e-05,-2.0641e-06,9.80899e-06
312,-7.86095e-06,2.28619e-05,4.0416e-05,5.94702e-05,1.53795e-06,1.23666e-05
313,-3.4936e-06,2.57631e-05,4.36761e-05,6.19741e-05,2.98668e-06,1.61662e-05
314,-3.24847e-06,2.76154e-05,4.48266e-05,6.23976e-05,-2.4687e-06,1.91776e-05
315,-1.16863e-05,2.31615e-05,4.36316e-05,6.13335e-05,-1.19196e-05,2.03631e-05
316,-1.53288e-05,1.41799e-05,4.30227e-05,5.87044e-05,-1.792e-05,1.9998e-05
317,-6.92844e-06,8.44397e-06,4.24061e-05,5.49185e-05,-1.54748e-05,1.78106e-05
318,3.83741e-06,8.37355e-06,4.02292e-05,5.04379e-05,-9.13754e-06,1.37436e-05
319,6.95122e-06,1.01304e-05,3.79455e-05,4.56986e-05,-7.39676e-06,9.27422e-06
320,6.47581e-07,1.15894e-05,3.71447e-05,4.42963e-05,-1.11819e-05,6.716e-06
321,-1.40468e-05,1.00688e-05,3.74361e-05,4.67909e-05,-1.50101e-05,5.76987e-06
322,-2.00575e-05,4.28154e-06,4.08456e-05,4.94292e-05,-1.82008e-05,6.52936e-06
323,-1.01115e-05,-4.57799e-07,4.65329e-05,4.88325e-05,-1.97313e-05,9.62181e-06
324,-3.45169e-07,-1.56429e-06,4.96505e-05,4.84531e-05,-1.61545e-05,1.23777e-05
325,-7.64648e-07,-2.37054e-06,4.78244e-05,4.93805e-05,-1.39005e-05,1.31156e-05
326,-8.09534e-06,-5.22871e-06,4.26253e-05,5.07222e-05,-1.81815e-05,1.23416e-05
327,-2.42783e-05,-1.25733e-05,3.51961e-05,5.29304e-05,-2.21531e-05,8.71133e-06
328,-3.15038e-05,-1.72063e-05,3.15216e-05,5.35426e-05,-2.24786e-05,4.17001e-06
329,-1.65627e-05,-1.42247e-05,3.67366e-05,5.32306e-05,-2.04169e-05,4.66009e-06
330,-5.7602e-06,-9.85503e-06,4.44007e-05,4.94826e-05,-1.62677e-05,9.55278e-06
331,-8.09779e-06,-8.46086e-06,5.0661e-05,4.35723e-05,-1.65022e-05,1.09824e-05
332,-1.30985e-05,-1.07799e-05,5.12577e-05,4.36542e-05,-1.92399e-05,1.10246e-05
333,-1.92774e-05,-1.05693e-05,4.77709e-05,4.69133e-05,-1.9963e-05,1.11264e-05
334,-2.22058e-05,-2.25031e-06,5.09351e-05,4.74363e-05,-2.16725e-05,1.0605e-05
335,-2.73003e-05,5.32833e-06,5.83356e-05,4.54019e-05,-2.37611e-05,9.81958e-06
336,-3.3056e-05,4.66288e-06,5.95946e-05,4.53534e-05,-2.15773e-05,8.39318e-06
337,-2.73975e-05,2.28844e-06,5.57448e-05,4.37566e-05,-1.66309e-05,7.5731e-06
338,-1.24256e-05,3.33639e-06,5.19081e-05,4.23333e-05,-1.13035e-05,7.38744e-06
339,-3.74662e-06,6.76879e-06,5.02769e-05,4.23447e-05,-6.63096e-06,6.57768e-06
340,-6.31135e-06,1.14062e-05,5.1592e-05,4.36603e-05,-5.5484e-06,4.48881e-06
341,-1.72545e-05,1.4227e-05,5.32514e-05,4.50909e-05,-5.62182e-06,1.99591e-06
342,-2.85958e-05,1.38696e-05,5.22797e-05,4.48299e-05,-7.09813e-06,3.01814e-07
343,-2.904e-05,1.34418e-05,5.03487e-05,4.40627e-05,-1.01042e-05,4.49917e-08
344,-1.87531e-05,1.34593e-05,4.98879e-05,4.39938e-05,-1.31464e-05,8.95443e-08
345,-9.45493e-06,1.21154e-05,5.10021e-05,4.5752e-05,-1.42735e-05,2.24567e-06
346,-8.40656e-06,1.14542e-05,5.1555e-05,4.71055e-05,-1.24324e-05,7.155e-06
347,-1.63173e-05,1.51532e-05,4.99638e-05,4.85804e-05,-1.07579e-05,9.53604e-06
348,-3.05789e-05,1.74606e-05,4.80688e-05,5.0354e-05,-1.17382e-05,5.46263e-06
349,-3.55307e-05,1.44949e-05,5.05264e-05,5.199e-05,-1.26708e-05,1.30946e-06
350,-2.36175e-05,1.01267e-05,5.77764e-05,5.25676e-05,-1.195e-05,3.97391e-06
351,-1.31008e-05,7.60089e-06,6.15702e-05,5.00782e-05,-9.64528e-06,1.05834e-05
352,-1.47018e-05,8.86656e-06,5.71119e-05,4.45876e-05,-6.69218e-06,1.61925e-05
353,-2.34194e-05,1.21424e-05,4.96403e-05,4.10062e-05,-8.17466e-06,1.70015e-05
354,-4.20267e-05,1.20998e-05,4.2488e-05,3.92361e-05,-1.37165e-05,1.2949e-05
355,-4.91707e-05,8.13738e-06,3.97878e-05,3.71368e-05,-1.85211e-05,1.06369e-05
356,-3.09361e-05,1.07662e-05,4.27734e-05,3.73981e-05,-1.79629e-05,1.14215e-05
357,-1.35332e-05,2.56628e-05,4.24333e-05,3.97391e-05,-1.34662e-05,1.16393e-05
358,-1.06134e-05,3.97797e-05,3.79177e-05,4.05784e-05,-1.07832e-05,1.15152e-05
359,-1.45428e-05,4.08985e-05,3.31871e-05,4.29181e-05,-1.13719e-05,1.05049e-05
360,-1.72393e-05,3.36685e-05,3.18095e-05,4.47977e-05,-1.24635e-05,9.07236e-06
361,-1.55417e-05,2.8037e-05,3.60119e-05,4.50983e-05,-1.10613e-05,1.00707e-05
362,-2.0898e-05,2.59931e-05,3.91905e-05,4.4366e-05,-9.57042e-06,1.01382e-05
363,-3.17105e-05,2.34029e-05,3.80931e-05,4.56809e-05,-9.51515e-06,9.31551e-06
364,-3.07364e-05,1.90833e-05,3.88065e-05,5.12572e-05,-8.77504e-06,7.27465e-06
365,-1.76373e-05,1.36245e-05,4.06235e-05,5.64465e-05,-7.94027e-06,6.23736e-06
366,-9.38365e-06,9.57298e-06,3.90873e-05,5.69864e-05,-7.21633e-06,8.72302e-06
367,-1.06951e-05,1.22037e-05,3.50857e-05,5.51542e-05,-5.86786e-06,1.27123e-05
368,-2.04737e-05,1.75404e-05,3.04618e-05,5.63719e-05,-4.73453e-06,1.4392e-05
369,-3.08517e-05,1.7595e-05,2.56027e-05,6.08807e-05,-5.30056e-06,1.19008e-05
370,-2.73888e-05,1.27439e-05,2.31452e-05,6.49631e-05,-4.65207e-06,9.16483e-06
371,-1.02413e-05,8.36105e-06,2.43354e-05,6.5093e-05,-3.1155e-06,8.82104e-06
372,3.53854e-06,8.7107e-06,2.60715e-05,6.2245e-05,-2.8943e-06,9.4785e-06
373,4.68053e-06,1.49408e-05,2.57629e-05,5.74018e-05,-4.06841e-06,8.89656e-06
374,-4.40362e-06,2.30887e-05,2.25514e-05,5.33345e-05,-7.1364e-06,8.31931e-06
375,-1.75117e-05,2.33484e-05,1.87841e-05,5.3006e-05,-1.13558e-05,7.60403e-06
376,-1.92792e-05,1.56581e-05,1.99763e-05,5.44505e-05,-1.29311e-05,7.6262e-06
377,-6.71931e-06,1.02128e-05,2.41635e-05,5.38878e-05,-9.94739e-06,9.75375e-06
378,7.50186e-07,1.08459e-05,2.25508e-05,5.26213e-05,-5.17977e-06,1.30874e-05
379,-3.05196e-06,1.48787e-05,1.63269e-05,5.06612e-05,-1.19274e-06,1.27343e-05
380,-7.83038e-06,1.83684e-05,1.18687e-05,4.85965e-05,1.01264e-06,1.04328e-05
381,-1.94166e-05,1.67781e-05,1.12892e-05,4.96928e-05,-8.43286e-07,1.0478e-05
382,-2.42669e-05,1.18928e-05,1.73989e-05,5.29367e-05,-4.60574e-06,1.31405e-05
383,-9.36576e-06,7.27392e-06,2.8589e-05,5.55048e-05,-7.6355e-06,1.55266e-05
384,4.99858e-06,3.36667e-06,2.80816e-05,5.57593e-05,-1.14233e-05,1.40503e-05
385,1.13358e-05,3.80506e-06,1.81132e-05,5.2314e-05,-1.23811e-05,1.10754e-05
386,1.27887e-05,8.45834e-06,1.38412e-05,4.71229e-05,-9.39994e-06,1.03717e-05
387,9.69181e-06,1.3738e-05,1.57409e-05,4.07079e-05,-6.08031e-06,1.13387e-05
388,4.4385e-06,1.67632e-05,1.66929e-05,3.55922e-05,-2.95258e-06,1.34458e-05
389,-7.65386e-06,1.67911e-05,1.16451e-05,3.65211e-05,2.44289e-06,1.32931e-05
390,-1.92814e-05,1.54898e-05,9.89592e-06,3.93902e-05,5.38576e-06,9.98245e-06
391,-1.71405e-05,1.40525e-05,1.56074e-05,3.91991e-05,4.16301e-06,1.14207e-05
392,-1.83948e-06,1.32975e-05,2.30818e-05,3.9914e-05,4.88112e-07,1.73619e-05
393,1.05623e-05,1.39122e-05,2.69402e-05,4.15213e-05,-3.18228e-06,2.20262e-05
394,1.54943e-05,1.56485e-05,2.74827e-05,4.4096e-05,-3.51712e-06,2.35744e-05
395,1.14301e-05,1.32412e-05,2.40872e-05,4.58593e-05,-1.27744e-06,2.30618e-05
396,4.75306e-06,5.53439e-06,1.77549e-05,4.68838e-05,1.5737e-07,2.28275e-05
397,7.2547e-06,2.37932e-07,1.61622e-05,4.93605e-05,1.23872e-07,2.39795e-05
398,1.73333e-05,8.81439e-07,2.07359e-05,5.18936e-05,-1.80907e-06,2.56908e-05
399,2.27167e-05,3.17695e-06,2.37171e-05,5.37998e-05,-3.7731e-06,2.72929e-05
400,1.95457e-05,3.69535e-06,2.13935e-05,5.39915e-05,-1.46855e-06,3.0083e-05
401,1.17274e-05,2.55151e-06,1.95225e-05,5.38894e-05,3.53995e-06,3.25982e-05
402,-2.46382e-08,-1.8676e-06,2.00153e-05,5.47715e-05,5.03572e-06,3.18017e-05
403,-3.94375e-06,-8.66457e-06,2.17404e-05,5.52082e-05,1.86819e-06,2.88826e-05
404,5.71835e-06,-1.40687e-05,2.49515e-05,5.17691e-05,-1.3851e-07,2.47448e-05
405,1.74396e-05,-1.70479e-05,2.87775e-05,4.81249e-05,1.69224e-06,2.14109e-05
406,2.04512e-05,-1.54185e-05,3.21905e-05,4.86859e-05,3.34041e-06,2.35043e-05
407,1.68342e-05,-9.5594e-06,3.0477e-05,5.19654e-05,1.17052e-06,2.8034e-05
408,1.71761e-06,-5.98456e-06,2.23033e-05,5.53879e-05,-1.2513e-06,2.77262e-05
409,-8.12141e-06,-5.74374e-06,1.65022e-05,5.71133e-05,-1.79884e-06,2.43806e-05
410,6.97195e-06,-2.58427e-06,2.05695e-05,5.69404e-05,-5.46281e-07,2.26846e-05
411,2.17785e-05,5.38141e-06,3.07883e-05,5.59304e-05,4.52774e-07,2.09786e-05
412,2.5154e-05,1.18924e-05,3.67972e-05,5.18311e-05,4.88285e-11,1.67486e-05
413,2.67701e-05,1.58344e-05,3.614e-05,4.75601e-05,-1.82002e-06,1.52207e-05
414,2.62257e-05,2.17077e-05,3.32733e-05,4.64621e-05,-2.1527e-06,1.8736e-05
415,2.65437e-05,2.98212e-05,3.62102e-05,4.76268e-05,-4.26281e-06,1.9971e-05
416,1.69713e-05,3.61697e-05,4.18599e-05,4.63496e-05,-7.8983e-06,1.72817e-05
417,2.11296e-06,3.62342e-05,4.15441e-05,4.45021e-05,-1.15839e-05,1.3889e-05
418,6.98414e-07,3.19895e-05,3.82755e-05,4.33538e-05,-1.67659e-05,1.13681e-05
419,1.21733e-05,2.65413e-05,3.72329e-05,4.25748e-05,-1.94347e-05,9.09727e-06
420,2.05743e-05,2.40114e-05,3.67592e-05,4.43547e-05,-1.91729e-05,6.30141e-06
421,2.036e-05,2.5095e-05,3.55107e-05,4.67281e-05,-1.82985e-05,4.9894e-06
422,1.17288e-05,2.23698e-05,3.43866e-05,4.72451e-05,-1.90789e-05,3.30031e-06
423,-9.20091e-07,1.18674e-05,3.44523e-05,4.48891e-05,-1.94263e-05,-6.56683e-07
424,-6.81779e-06,1.72529e-06,3.75499e-05,4.14295e-05,-1.70978e-05,-1.90678e-06
425,-4.44486e-06,-2.13925e-06,4.18104e-05,3.80392e-05,-1.17704e-05,2.07549e-06
426,-2.31792e-06,-2.56855e-06,4.22008e-05,3.63705e-05,-6.49759e-06,6.33274e-06
427,-6.95251e-06,-1.69982e-06,3.86977e-05,3.58961e-05,-3.68202e-06,6.88013e-06
428,-1.77986e-05,-5.30189e-07,3.52126e-05,3.62199e-05,-4.37107e-06,4.63043e-06
429,-3.09567e-05,-2.61802e-07,3.33924e-05,3.71468e-05,-5.95799e-06,3.07276e-06
430,-3.22105e-05,2.37806e-06,3.76015e-05,3.81136e-05,-6.46173e-06,4.98253e-06
431,-1.87315e-05,9.90228e-06,4.45347e-05,3.69022e-05,-6.6868e-06,8.78134e-06
432,-8.79918e-06,2.10316e-05,4.5796e-05,3.56116e-05,-6.31802e-06,1.06501e-05
433,-1.24212e-05,3.37971e-05,4.0791e-05,3.64996e-05,-9.6208e-06,1.10065e-05
434,-2.01885e-05,4.24149e-05,3.47677e-05,3.82971e-05,-1.35897e-05,1.07096e-05
435,-3.1609e-05,4.13802e-05,3.33859e-05,4.32625e-05,-1.26808e-05,7.04499e-06
436,-3.6293e-05,3.41056e-05,4.01904e-05,5.07977e-05,-1.1781e-05,2.85579e-06
437,-2.04655e-05,2.9276e-05,5.34391e-05,5.43896e-05,-1.07611e-05,6.42471e-06
438,-6.06076e-06,2.56199e-05,5.88519e-05,5.12461e-05,-9.73975e-06,1.22517e-05
439,-6.72912e-06,2.11001e-05,5.6384e-05,4.77186e-05,-1.07822e-05,1.25943e-05
440,-1.1135e-05,1.68516e-05,5.23386e-05,4.86271e-05,-1.01789e-05,9.84517e-06
441,-1.36364e-05,1.55221e-05,4.83636e-05,5.05542e-05,-6.99764e-06,7.68539e-06
442,-1.35726e-05,1.90812e-05,4.74845e-05,5.228e-05,-5.61523e-06,7.28672e-06
443,-2.07189e-05,2.4899e-05,4.47953e-05,5.50691e-05,-1.24645e-05,7.37127e-06
444,-3.35462e-05,2.36758e-05,4.49032e-05,5.94975e-05,-2.28395e-05,6.27424e-06
445,-3.41091e-05,1.55642e-05,4.94536e-05,6.09672e-05,-2.51321e-05,4.20641e-06
446,-2.04495e-05,6.90485e-06,5.74716e-05,5.88231e-05,-2.03349e-05,2.46564e-06
447,-8.33238e-06,1.21495e-06,6.00174e-05,5.52429e-05,-1.73646e-05,1.59122e-07
448,-3.50145e-06,3.25123e-06,5.41691e-05,5.23885e-05,-1.88188e-05,-2.15898e-07
449,-6.22954e-06,5.96111e-06,4.5464e-05,5.09184e-05,-2.05166e-05,6.79384e-08
450,-1.24266e-05,3.5995e-06,4.08761e-05,5.05707e-05,-1.96709e-05,4.7445e-07
451,-1.07161e-05,8.25698e-07,4.27751e-05,5.19532e-05,-1.78617e-05,1.76282e-06
452,1.66664e-06,2.41836e-06,4.56293e-05,5.20663e-05,-1.841e-05,4.9492e-06
453,1.11951e-05,7.95448e-06,4.74954e-05,4.95924e-05,-2.26118e-05,9.20363e-06
454,1.01328e-05,1.32077e-05,4.76609e-05,4.65607e-05,-2.55513e-05,1.29783e-05
455,2.63474e-07,1.44738e-05,4.57913e-05,4.79038e-05,-2.45685e-05,1.3753e-05
456,-1.46454e-05,1.28861e-05,4.06395e-05,5.36897e-05,-2.01284e-05,1.06457e-05
457,-1.91799e-05,1.34521e-05,3.88028e-05,5.80304e-05,-1.54261e-05,9.64438e-06
458,-8.20724e-06,1.72894e-05,4.31318e-05,5.76006e-05,-1.42144e-05,1.17446e-05
459,3.07439e-06,2.1337e-05,5.07982e-05,5.78155e-05,-1.53697e-05,1.38335e-05
460,4.24148e-06,2.60243e-05,5.48437e-05,6.03188e-05,-1.55207e-05,1.54872e-05
461,-2.16776e-06,3.03597e-05,5.23192e-05,6.13004e-05,-1.65427e-05,1.58001e-05
462,-1.31538e-05,2.96423e-05,4.7901e-05,5.97429e-05,-1.90189e-05,1.23467e-05
463,-1.70182e-05,2.36851e-05,4.97901e-05,5.96039e-05,-2.07172e-05,9.10245e-06
464,-4.34044e-06,1.85344e-05,5.9857e-05,6.26848e-05,-2.18368e-05,1.20347e-05
465,6.9029e-06,1.76459e-05,6.58169e-05,6.37117e-05,-2.37261e-05,1.52809e-05
466,6.11111e-06,1.6244e-05,6.44157e-05,5.75085e-05,-2.81242e-05,1.54914e-05
467,4.82093e-06,1.08319e-05,6.28233e-05,5.08803e-05,-2.99849e-05,1.75517e-05
468,4.72291e-06,6.73122e-06,6.1287e-05,4.917e-05,-2.62035e-05,1.7683e-05
469,4.72213e-06,9.94187e-06,5.84702e-05,4.83971e-05,-1.80671e-05,1.46726e-05
470,-1.53469e-07,1.60638e-05,4.97217e-05,4.87682e-05,-1.15226e-05,1.22058e-05
471,-1.09029e-05,1.69809e-05,3.9207e-05,4.94229e-05,-1.10302e-05,1.35833e-05
472,-1.41531e-05,1.55509e-05,3.25793e-05,4.74489e-05,-1.61206e-05,1.49206e-05
473,-5.99448e-06,1.4136e-05,3.13648e-05,4.40064e-05,-2.07215e-05,1.33288e-05
474,1.25557e-06,1.23108e-05,3.35197e-05,3.97968e-05,-1.98828e-05,1.11993e-05
475,3.78938e-06,1.2401e-05,3.44822e-05,3.71256e-05,-1.55241e-05,1.10754e-05
476,-2.82193e-06,1.39377e-05,3.24049e-05,3.80886e-05,-1.20696e-05,9.99119e-06
477,-1.48332e-05,1.41273e-05,3.15819e-05,4.16106e-05,-9.85477e-06,5.49717e-06
478,-1.69253e-05,1.23127e-05,3.48171e-05,4.48738e-05,-6.65656e-06,2.09854e-06
479,-4.40333e-06,8.79325e-06,3.58322e-05,4.5882e-05,-6.01027e-06,1.84268e-06
480,8.53378e-06,5.35803e-06,3.18557e-05,4.62248e-05,-8.92687e-06,1.30414e-06
481,1.11906e-05,3.98968e-06,2.85719e-05,4.65711e-05,-1.05661e-05,-1.19517e-06
482,3.56942e-06,5.79986e-06,2.87504e-05,4.69587e-05,-8.69378e-06,-2.36226e-06
483,-1.11038e-05,8.165e-06,2.77252e-05,4.83472e-05,-7.6488e-06,-1.51202e-06
484,-1.66154e-05,7.17135e-06,2.70606e-05,5.07946e-05,-9.13981e-06,6.88681e-07
485,-5.04888e-06,2.12528e-06,2.84929e-05,5.04326e-05,-8.47911e-06,1.88548e-06
486,6.02673e-06,-3.18067e-06,3.01689e-05,4.79858e-05,-4.08642e-06,8.72688e-07
487,9.18984e-07,-1.16534e-06,3.03284e-05,4.62357e-05,-1.03681e-07,-4.3234e-09
488,-1.29809e-05,4.61934e-06,2.73654e-05,4.75117e-05,4.01888e-06,1.47477e-07
489,-2.88555e-05,5.35008e-06,2.15288e-05,5.0874e-05,9.97091e-06,8.5082e-07
490,-3.47437e-05,3.70365e-06,2.07635e-05,5.17232e-05,1.30574e-05,2.45528e-06
491,-2.33516e-05,8.44122e-06,2.50137e-05,5.08686e-05,1.13928e-05,5.55313e-06
492,-1.35299e-05,1.61616e-05,2.7067e-05,4.84151e-05,9.2749e-06,9.42191e-06
493,-8.79147e-06,1.90071e-05,2.85408e-05,4.76933e-05,5.97865e-06,1.01128e-05
494,-1.28385e-06,1.62356e-05,3.30693e-05,4.82207e-05,1.90913e-06,1.00171e-05
495,2.19445e-06,1.34523e-05,3.3611e-05,4.7823e-05,3.62191e-07,1.16551e-05
496,-1.56603e-06,1.5314e-05,3.03416e-05,4.68952e-05,2.11381e-06,1.22738e-05
497,-1.68753e-05,1.87204e-05,3.01168e-05,4.60042e-05,4.24398e-06,1.07897e-05
498,-3.42463e-05,1.74018e-05,3.39862e-05,4.86161e-05,4.23858e-06,9.15337e-06
499,-3.40451e-05,1.21407e-05,3.89679e-05,4.91724e-05,4.75905e-06,1.05714e-05
500,-1.66101e-05,8.17583e-06,4.00815e-05,4.78154e-05,7.11632e-06,1.51877e-05
501,-1.58051e-07,7.96637e-06,3.96561e-05,4.54564e-05,8.27272e-06,1.77447e-05
502,5.35459e-06,1.23286e-05,3.97749e-05,4.24908e-05,6.86594e-06,1.70362e-05
503,-3.87605e-06,1.80228e-05,3.6638e-05,4.15661e-05,4.46392e-06,1.47419e-05
504,-2.00632e-05,1.91782e-05,3.08933e-05,4.19933e-05,3.31651e-06,1.21602e-05
505,-2.39167e-05,1.64939e-05,3.21126e-05,4.30698e-05,3.54723e-06,9.47784e-06
506,-1.00956e-05,1.29058e-05,4.06299e-05,4.52547e-05,5.38634e-06,7.00836e-06
507,4.52526e-06,1.15027e-05,4.48254e-05,4.92279e-05,7.25879e-06,6.0668e-06
508,7.98619e-06,1.43306e-05,3.94465e-05,5.3941e-05,6.17744e-06,7.22562e-06
509,8.82735e-07,1.69043e-05,2.97023e-05,5.6588e-05,3.70611e-06,9.24287e-06
510,-1.39904e-05,1.41304e-05,2.16676e-05,5.51733e-05,2.80505e-06,8.43421e-06
511,-2.07484e-05,1.11741e-05,2.04507e-05,5.39889e-05,3.23532e-06,6.43681e-06
512,-8.23118e-06,1.29643e-05,2.6931e-05,5.48242e-05,6.34536e-07,8.00961e-06
513,6.43506e-06,1.56073e-05,3.49313e-05,5.38271e-05,-3.82332e-06,1.30132e-05
514,9.29698e-06,1.74652e-05,4.00225e-05,5.04094e-05,-6.74347e-06,1.7152e-05
515,3.29343e-06,1.84341e-05,4.16489e-05,4.91657e-05,-7.74829e-06,1.76574e-05
516,-1.3062e-05,1.47856e-05,4.20511e-05,4.96721e-05,-8.71539e-06,1.49101e-05
517,-1.83184e-05,4.43258e-06,4.15988e-05,5.13203e-05,-1.14578e-05,1.34959e-05
518,-3.0161e-06,-3.40361e-06,4.21581e-05,5.31109e-05,-1.58988e-05,1.6807e-05
519,6.04548e-06,-1.01764e-06,4.48721e-05,5.46639e-05,-1.85306e-05,1.94117e-05
520,5.90807e-06,4.15491e-06,4.79475e-05,5.39611e-05,-1.8749e-05,1.92891e-05
521,5.1077e-06,3.34172e-06,4.99302e-05,5.31706e-05,-1.60877e-05,1.98404e-05
522,1.69075e-06,-2.66789e-06,4.72353e-05,5.39978e-05,-9.91824e-06,1.90566e-05
523,-2.40213e-06,-5.83348e-06,4.25647e-05,5.16235e-05,-5.55818e-06,1.9238e-05
524,-1.01246e-05,-5.94237e-07,3.79752e-05,4.97174e-05,-7.02045e-06,2.02996e-05
525,-1.71675e-05,1.70554e-06,3.61015e-05,5.15259e-05,-1.22593e-05,1.96539e-05
526,-1.04344e-05,-1.69464e-06,3.83473e-05,5.32048e-05,-1.55497e-05,1.71451e-05
527,6.0288e-06,-2.65561e-06,4.20909e-05,5.26088e-05,-1.44981e-05,1.67097e-05
528,1.17492e-05,2.17689e-06,4.38629e-05,5.06513e-05,-1.16897e-05,1.89252e-05
529,3.68484e-06,9.31073e-06,4.25653e-05,4.78645e-05,-1.08404e-05,1.91006e-05
530,-1.27534e-05,1.24851e-05,3.91184e-05,4.64825e-05,-1.13241e-05,1.64969e-05
531,-2.75195e-05,1.09825e-05,3.51479e-05,4.75123e-05,-1.1581e-05,1.35348e-05
532,-2.91333e-05,8.73138e-06,3.46304e-05,4.96555e-05,-1.03258e-05,1.16958e-05
533,-1.96496e-05,8.75964e-06,3.95414e-05,4.99166e-05,-7.69881e-06,1.15481e-05
534,-1.05279e-05,1.15927e-05,4.61266e-05,4.94795e-05,-4.45833e-06,1.32768e-05
535,-6.47254e-06,1.58669e-05,4.73319e-05,5.23639e-05,-3.99779e-07,1.56036e-05
536,-8.35708e-06,1.81938e-05,4.22207e-05,5.67144e-05,2.43559e-06,1.71895e-05
537,-1.58281e-05,1.65639e-05,3.715e-05,5.77837e-05,2.33998e-06,1.76038e-05
538,-1.50573e-05,1.41419e-05,3.81163e-05,5.91406e-05,1.85194e-07,1.77551e-05
539,1.71884e-07,1.66069e-05,4.16508e-05,6.29673e-05,-8.45874e-07,1.82502e-05
540,1.06706e-05,2.02499e-05,4.12627e-05,6.32679e-05,-8.36929e-07,1.85692e-05
541,3.15861e-06,2.25083e-05,4.02958e-05,5.84963e-05,-3.0125e-06,1.83345e-05
542,-1.1634e-05,2.60664e-05,4.28405e-05,5.39618e-05,-4.89369e-06,1.81243e-05
543,-2.85492e-05,2.48021e-05,4.09932e-05,5.61034e-05,-4.84658e-06,1.67518e-05
544,-3.42978e-05,1.63492e-05,3.52369e-05,5.94563e-05,-6.57421e-06,1.71898e-05
545,-1.82019e-05,1.10296e-05,3.63255e-05,6.10016e-05,-9.28128e-06,2.14395e-05
546,-2.29658e-06,1.13261e-05,3.84787e-05,5.96414e-05,-9.34461e-06,2.48336e-05
547,3.05591e-06,1.35803e-05,3.58195e-05,5.40925e-05,-6.54389e-06,2.55719e-05
548,7.83766e-06,1.89171e-05,3.73383e-05,5.07744e-05,-4.45062e-06,2.48061e-05
549,1.21368e-05,2.72005e-05,4.30431e-05,5.08799e-05,-1.64904e-06,2.11486e-05
550,1.13966e-05,3.28259e-05,4.41889e-05,5.10408e-05,5.06839e-06,1.72559e-05
551,-3.76566e-06,3.31762e-05,3.70443e-05,4.79767e-05,1.01321e-05,1.43547e-05
552,-2.18779e-05,2.73435e-05,3.09883e-05,4.42443e-05,1.10693e-05,1.44179e-05
553,-2.02527e-05,2.02956e-05,3.33596e-05,4.34233e-05,1.20281e-05,1.69599e-05
554,-6.59734e-06,1.61165e-05,3.71974e-05,4.43493e-05,1.28952e-05,1.88731e-05
555,-9.57364e-07,1.53245e-05,3.55042e-05,4.23164e-05,1.17667e-05,1.84782e-05
556,-2.7554e-06,1.82183e-05,3.31367e-05,3.919e-05,6.84693e-06,1.65743e-05
557,-1.17212e-05,2.2023e-05,3.00434e-05,3.99264e-05,-1.66965e-08,1.28708e-05
558,-2.44182e-05,2.58335e-05,2.46783e-05,4.40298e-05,-4.30997e-06,7.75974e-06
559,-2.78879e-05,3.22984e-05,2.2531e-05,4.6545e-05,-4.26958e-06,7.20025e-06
560,-1.99749e-05,4.18192e-05,2.56091e-05,4.49422e-05,-1.02166e-06,1.04203e-05
561,-1.08607e-05,5.21911e-05,3.09081e-05,4.29302e-05,1.16457e-06,1.06513e-05
562,-9.50562e-06,6.03797e-05,3.52512e-05,4.31434e-05,-4.02848e-07,7.62854e-06
563,-1.75316e-05,6.08427e-05,3.77484e-05,4.63585e-05,-5.34971e-06,8.04158e-06
564,-3.10102e-05,5.00036e-05,3.61021e-05,5.20304e-05,-1.09075e-05,1.01016e-05
565,-3.38348e-05,3.4517e-05,3.3878e-05,5.51053e-05,-1.52693e-05,1.04559e-05
566,-1.98072e-05,2.52291e-05,3.42975e-05,5.17873e-05,-1.70981e-05,1.01357e-05
567,-6.99758e-06,1.99875e-05,3.4714e-05,4.45941e-05,-1.66143e-05,8.7475e-06
568,-5.55886e-06,1.64745e-05,3.46864e-05,3.721e-05,-1.64678e-05,5.28955e-06
569,-9.68129e-06,1.65971e-05,3.64596e-05,3.72552e-05,-1.73857e-05,2.24384e-06
570,-2.24627e-05,1.27004e-05,3.80082e-05,4.46656e-05,-2.05456e-05,2.92875e-07
571,-2.90664e-05,2.50996e-06,3.86147e-05,4.90786e-05,-2.40928e-05,-6.23281e-07
572,-1.26934e-05,-5.68579e-06,3.93371e-05,4.82263e-05,-2.50476e-05,1.40715e-06
573,3.1594e-08,-6.65133e-06,3.85006e-05,4.79536e-05,-2.54598e-05,3.72887e-06
574,-2.57678e-06,-1.8722e-06,3.91226e-05,4.85279e-05,-2.62286e-05,6.14017e-06
575,-5.80072e-06,8.30122e-08,4.16566e-05,4.91352e-05,-2.61261e-05,7.27222e-06
576,-9.02276e-06,6.61124e-08,4.26632e-05,4.71964e-05,-2.31312e-05,5.97021e-06
577,-8.59375e-06,5.46237e-06,4.41025e-05,4.26599e-05,-1.77442e-05,6.64665e-06
578,-1.30167e-05,1.17883e-05,4.28006e-05,4.37995e-05,-1.33875e-05,8.03577e-06
579,-2.54435e-05,9.34573e-06,4.08313e-05,5.17011e-05,-1.06593e-05,9.30851e-06
580,-2.74592e-05,3.51517e-06,4.21613e-05,5.95332e-05,-1.01032e-05,1.13325e-05
581,-1.53001e-05,-1.24928e-08,4.46451e-05,6.08758e-05,-1.21868e-05,1.47858e-05
582,-3.94173e-06,1.66559e-08,4.2298e-05,5.68411e-05,-1.28056e-05,1.77912e-05
583,-9.80131e-08,3.25908e-06,3.67356e-05,5.30842e-05,-1.18536e-05,1.81116e-05
584,-5.01852e-06,6.2025e-06,3.12805e-05,5.1754e-05,-1.02894e-05,1.66441e-05
585,-1.46866e-05,7.82092e-06,2.8506e-05,5.20162e-05,-8.36265e-06,1.6642e-05
586,-1.67806e-05,9.63801e-06,3.19535e-05,5.07874e-05,-8.18768e-06,1.79265e-05
587,-7.37229e-06,1.21171e-05,3.7243e-05,4.84798e-05,-1.12072e-05,1.90809e-05
588,1.03631e-06,1.4519e-05,3.84154e-05,4.7212e-05,-1.40734e-05,2.19999e-05
589,7.02324e-08,1.52656e-05,3.75141e-05,4.5493e-05,-1.23699e-05,2.60681e-05
590,-6.8559e-06,1.22599e-05,3.96959e-05,4.23563e-05,-8.79114e-06,2.77629e-05
591,-1.81772e-05,5.68703e-06,4.24238e-05,4.17661e-05,-8.20414e-06,2.58339e-05
592,-2.23429e-05,-8.82246e-08,4.5129e-05,4.5256e-05,-9.37474e-06,2.39535e-05
593,-1.11156e-05,9.31463e-07,4.57373e-05,4.79834e-05,-7.00855e-06,2.34777e-05
594,1.48524e-06,6.62109e-06,4.33126e-05,4.93261e-05,-1.82215e-06,2.09827e-05
595,2.89631e-06,1.26958e-05,3.98345e-05,5.07875e-05,1.21093e-06,1.56208e-05
596,-4.55732e-06,1.56948e-05,3.56355e-05,5.2976e-05,-1.96238e-07,9.37164e-06
597,-2.22834e-05,1.12411e-05,3.11142e-05,5.63396e-05,-4.87364e-06,5.27649e-06
598,-3.18786e-05,1.87098e-06,3.24491e-05,5.64711e-05,-8.96843e-06,4.86009e-06
599,-1.71276e-05,-2.51793e-06,3.94313e-05,5.32792e-05,-7.1228e-06,5.3671e-06
600,-7.42885e-06,-1.10565e-06,4.35577e-05,4.96746e-05,-3.89631e-06,7.3354e-06
601,-9.7624e-06,1.78011e-06,4.24646e-05,4.51583e-05,-5.00335e-06,7.04611e-06
602,-1.18209e-05,3.224e-06,3.87467e-05,4.59038e-05,-8.12475e-06,4.35202e-06
603,-1.36728e-05,4.40465e-06,3.75127e-05,5.0525e-05,-8.65653e-06,1.12562e-06
604,-9.38961e-06,6.95096e-06,3.44521e-05,5.15488e-05,-5.40723e-06,-8.70285e-07
605,-1.0023e-05,8.88399e-06,2.48133e-05,5.28919e-05,-2.07194e-06,-4.90173e-07
606,-1.7534e-05,6.8609e-06,1.92183e-05,5.67746e-05,-2.22306e-06,1.67846e-06
607,-1.51881e-05,4.55014e-06,2.12721e-05,6.00425e-05,-5.88004e-06,5.51368e-06
608,-9.43849e-07,3.09433e-06,2.63018e-05,6.13792e-05,-9.12448e-06,9.27728e-06
609,9.99308e-06,9.21534e-07,2.71806e-05,6.07501e-05,-8.19675e-06,1.22443e-05
610,1.38353e-05,8.69564e-08,2.50754e-05,5.88177e-05,-4.27928e-06,1.45317e-05
611,8.86101e-06,-3.91748e-07,2.26755e-05,5.69192e-05,-1.60579e-06,1.52679e-05
612,-1.27379e-06,-3.89159e-06,2.17843e-05,5.89596e-05,-3.58643e-06,1.3882e-05
613,-3.35413e-06,-8.29073e-06,2.42708e-05,6.37722e-05,-8.71768e-06,1.22521e-05
614,5.92547e-06,-9.72826e-06,2.83013e-05,6.51543e-05,-1.36544e-05,1.17941e-05
615,1.63465e-05,-7.27291e-06,3.06622e-05,6.04906e-05,-1.77873e-05,1.19408e-05
616,1.91018e-05,-1.24237e-06,3.11257e-05,5.39699e-05,-2.12638e-05,1.10237e-05
617,1.14654e-05,3.80369e-06,3.30612e-05,5.20676e-05,-2.27508e-05,1.14836e-05
618,-4.12241e-06,3.88929e-06,3.37249e-05,5.52302e-05,-2.19733e-05,1.50177e-05
619,-1.02047e-05,1.43364e-06,3.37094e-05,5.78135e-05,-2.17787e-05,1.94142e-05
620,1.08615e-06,4.47203e-07,3.53575e-05,5.71749e-05,-2.47812e-05,2.16426e-05
621,1.39091e-05,6.07354e-07,3.75062e-05,5.64916e-05,-2.84178e-05,2.12886e-05
622,1.42641e-05,4.5776e-06,3.7043e-05,5.62013e-05,-3.02578e-05,2.04184e-05
623,5.17192e-06,1.18973e-05,3.41055e-05,5.28641e-05,-3.08133e-05,1.97052e-05
624,-1.12767e-05,1.59335e-05,3.01379e-05,4.85568e-05,-2.71049e-05,1.70063e-05
625,-1.70654e-05,1.3485e-05,3.08504e-05,4.71561e-05,-2.15127e-05,1.54896e-05
626,-2.94331e-07,1.1269e-05,3.41754e-05,4.72257e-05,-1.67033e-05,1.55118e-05
627,1.09409e-05,1.18431e-05,3.28659e-05,4.61648e-05,-1.84678e-05,1.36738e-05
628,5.62609e-06,1.33105e-05,3.13323e-05,4.28982e-05,-2.3141e-05,1.15496e-05
629,3.81468e-07,1.3377e-05,3.31316e-05,4.34467e-05,-2.23016e-05,1.28687e-05
630,-1.48907e-06,1.06122e-05,3.72023e-05,4.69254e-05,-1.87993e-05,1.41531e-05
631,-1.6074e-06,9.54979e-06,3.7624e-05,4.66888e-05,-1.22077e-05,1.22808e-05
632,-8.81939e-06,1.06428e-05,3.41597e-05,4.25816e-05,-8.79209e-06,1.00883e-05
633,-2.33191e-05,7.80401e-06,3.40442e-05,4.06567e-05,-1.08147e-05,7.91196e-06
634,-2.6598e-05,3.23928e-06,3.52225e-05,4.30662e-05,-1.51685e-05,7.83369e-06
635,-1.32404e-05,3.39989e-06,3.48961e-05,4.41374e-05,-1.99185e-05,7.70862e-06
636,2.13002e-06,8.43839e-06,3.29591e-05,4.06546e-05,-2.36922e-05,4.48359e-06
637,6.86251e-06,1.52804e-05,3.32199e-05,3.44632e-05,-2.37937e-05,2.22093e-06
638,-2.11678e-06,1.96427e-05,3.3315e-05,3.28024e-05,-1.72468e-05,3.04642e-06
639,-1.64771e-05,1.91586e-05,3.17657e-05,3.69682e-05,-9.94133e-06,3.25135e-06
640,-2.27572e-05,1.52336e-05,3.52003e-05,4.2165e-05,-7.62716e-06,1.74889e-06
641,-1.64521e-05,1.19328e-05,4.21625e-05,4.56047e-05,-9.54678e-06,-1.8791e-07
642,-6.46507e-06,1.15098e-05,4.34934e-05,4.77322e-05,-1.18193e-05,-1.08299e-06
643,-3.90534e-06,1.315e-05,3.97012e-05,4.83266e-05,-1.5301e-05,-2.22134e-07
644,-1.32076e-05,1.52507e-05,3.81257e-05,4.71833e-05,-1.84504e-05,8.51754e-07
645,-2.8884e-05,1.61856e-05,4.06868e-05,4.57704e-05,-1.6174e-05,1.68488e-06
646,-3.13579e-05,1.62183e-05,4.59729e-05,4.64731e-05,-7.95047e-06,2.1626e-06
647,-1.42376e-05,1.58851e-05,4.93147e-05,4.91387e-05,1.80092e-06,1.66666e-06
648,2.32416e-06,1.60755e-05,4.8406e-05,5.03977e-05,7.13672e-06,1.60784e-06
649,4.93782e-06,2.00825e-05,4.47657e-05,4.95768e-05,4.65923e-06,4.57846e-06
650,-2.89656e-06,2.57016e-05,4.07549e-05,4.72548e-05,3.11927e-07,9.31686e-06
651,-1.55592e-05,2.59989e-05,3.77621e-05,4.48315e-05,-2.45501e-06,1.31466e-05
652,-1.49173e-05,2.13858e-05,3.79869e-05,4.19572e-05,-3.46916e-06,1.49771e-05
653,4.32725e-06,2.00303e-05,4.245e-05,3.95707e-05,-5.2508e-06,1.45689e-05
654,1.50391e-05,2.0034e-05,4.378e-05,4.14548e-05,-8.83694e-06,1.24449e-05
655,1.64964e-05,1.61468e-05,3.85015e-05,4.79446e-05,-9.83535e-06,1.34517e-05
656,1.92673e-05,1.11834e-05,3.47707e-05,5.3678e-05,-1.10249e-05,1.74654e-05
657,1.81052e-05,1.14104e-05,3.54221e-05,5.6101e-05,-1.44594e-05,1.90348e-05
658,1.42135e-05,1.86232e-05,3.63813e-05,5.46979e-05,-1.99766e-05,1.97202e-05
659,6.72806e-07,2.20083e-05,3.55244e-05,5.36249e-05,-2.56744e-05,2.03629e-05
660,-1.71959e-05,1.50013e-05,3.59049e-05,5.76227e-05,-2.76197e-05,1.95276e-05
661,-2.11917e-05,6.14833e-06,3.96004e-05,6.0648e-05,-2.4203e-05,1.69915e-05
662,-1.24107e-05,3.30041e-06,4.3247e-05,5.95055e-05,-1.99781e-05,1.55613e-05
663,-8.9158e-06,4.81169e-06,4.188e-05,5.51286e-05,-1.69612e-05,1.63988e-05
664,-1.30489e-05,7.11248e-06,3.85224e-05,5.24283e-05,-1.54355e-05,1.80008e-05
665,-2.05946e-05,6.4994e-06,3.4173e-05,5.42272e-05,-1.67927e-05,1.71409e-05
666,-2.70386e-05,2.90258e-07,2.95122e-05,5.72187e-05,-2.11563e-05,1.3916e-05
667,-2.54946e-05,-5.98939e-06,2.90335e-05,5.76631e-05,-2.23268e-05,1.21358e-05
668,-1.46938e-05,-5.9706e-06,3.34814e-05,5.49107e-05,-1.68574e-05,1.28806e-05
669,-4.55881e-06,-7.64397e-07,3.50695e-05,5.09738e-05,-9.78815e-06,1.1924e-05
670,-2.66617e-06,3.76019e-06,2.97794e-05,4.69331e-05,-5.34734e-06,8.49411e-06
671,-9.15221e-06,4.59659e-06,2.23745e-05,4.53898e-05,-2.50628e-06,5.83724e-06
672,-2.06434e-05,-1.03948e-06,2.03746e-05,4.81558e-05,8.75644e-07,5.0481e-06
673,-2.53301e-05,-1.06576e-05,2.88269e-05,5.24217e-05,4.66515e-06,6.67915e-06
674,-1.67994e-05,-1.64075e-05,3.95323e-05,5.28696e-05,8.34673e-06,9.61163e-06
675,-6.41854e-06,-1.50087e-05,4.08446e-05,5.03766e-05,8.89555e-06,1.09065e-05
676,-6.64306e-06,-6.31746e-06,3.46592e-05,4.90799e-05,4.58915e-06,1.0023e-05
677,-1.69916e-05,2.72386e-06,3.09644e-05,4.91348e-05,-1.49117e-06,1.07719e-05
678,-3.33334e-05,2.87301e-06,3.03682e-05,4.96461e-05,-3.83403e-06,1.0623e-05
679,-3.5728e-05,-3.67911e-06,3.20623e-05,4.82868e-05,-3.74296e-06,1.02949e-05
680,-1.60714e-05,-6.36249e-06,3.67855e-05,4.76569e-05,-2.67003e-06,1.35425e-05
681,2.07995e-07,-3.75844e-07,4.29297e-05,4.84989e-05,-2.23617e-06,1.6192e-05
682,3.30948e-06,8.30312e-06,4.75676e-05,4.60511e-05,-1.269e-06,1.77721e-05
683,3.57793e-06,1.18705e-05,4.83196e-05,4.48044e-05,2.44622e-06,1.95606e-05
684,2.12682e-06,1.60325e-05,4.74194e-05,4.72934e-05,7.65033e-06,1.97018e-05
685,2.3832e-06,2.85178e-05,4.90949e-05,5.04515e-05,7.59565e-06,1.75974e-05
686,1.27218e-06,4.26279e-05,4.74563e-05,5.12801e-05,1.18935e-06,1.43816e-05
687,-3.62719e-06,4.8499e-05,4.19523e-05,5.43679e-05,-5.60551e-06,1.13263e-05
688,-2.75472e-06,4.81543e-05,4.17933e-05,5.81942e-05,-1.29874e-05,9.33457e-06
689,7.05313e-06,5.01198e-05,4.71784e-05,5.59883e-05,-1.92268e-05,1.19261e-05
690,1.10446e-05,5.59445e-05,4.86546e-05,5.02378e-05,-2.10502e-05,1.5641e-05
691,5.84682e-06,6.16694e-05,4.33265e-05,4.69142e-05,-1.65099e-05,1.91572e-05
692,-7.65129e-06,6.28523e-05,3.61145e-05,4.75726e-05,-1.03119e-05,2.08312e-05
693,-2.17416e-05,5.79484e-05,3.07776e-05,5.03404e-05,-6.46546e-06,1.85733e-05
694,-2.32583e-05,5.09193e-05,2.99874e-05,5.35836e-05,-5.26438e-06,1.35919e-05
695,-1.22313e-05,4.44205e-05,3.09072e-05,5.41313e-05,-3.81271e-06,9.32088e-06
696,-1.11295e-06,3.98203e-05,2.80651e-05,5.30242e-05,-3.53522e-06,7.52528e-06
697,-1.99215e-06,3.82017e-05,2.30477e-05,5.03219e-05,-7.42437e-06,8.14391e-06
698,-1.49068e-05,4.02215e-05,2.08916e-05,4.57121e-05,-1.42014e-05,1.18401e-05
699,-2.93233e-05,4.38985e-05,2.23993e-05,4.14963e-05,-2.1247e-05,1.49061e-05
700,-2.57468e-05,4.84508e-05,2.86506e-05,4.06269e-05,-2.56694e-05,1.39735e-05
701,-3.66242e-06,5.44404e-05,3.74779e-05,4.24177e-05,-2.54892e-05,1.08082e-05
702,1.58912e-05,5.76991e-05,3.87457e-05,4.36075e-05,-2.29422e-05,1.01395e-05
703,1.81335e-05,5.44926e-05,3.085e-05,4.19865e-05,-2.47789e-05,1.01257e-05
704,8.56375e-06,4.60329e-05,2.51119e-05,3.99363e-05,-3.00603e-05,8.80641e-06
705,-1.12034e-05,3.41549e-05,2.39805e-05,4.1532e-05,-3.08797e-05,8.25481e-06
706,-2.34517e-05,2.11714e-05,2.43358e-05,4.53777e-05,-2.5365e-05,8.78922e-06
707,-9.36917e-06,1.4463e-05,2.93948e-05,4.48177e-05,-1.80475e-05,4.83693e-06
708,4.97518e-06,1.17991e-05,3.26268e-05,4.18747e-05,-1.20838e-05,-5.98991e-07
709,4.28883e-06,8.76585e-06,3.08507e-05,4.21997e-05,-1.10388e-05,-1.77861e-06
710,3.25149e-06,5.10231e-06,3.08813e-05,4.54601e-05,-1.11379e-05,1.13395e-06
711,4.30303e-06,1.13266e-06,3.23497e-05,4.7635e-05,-9.29627e-06,3.77209e-06
712,5.13371e-06,2.32466e-06,3.50091e-05,4.70858e-05,-8.33043e-06,4.28999e-06
713,-2.56639e-06,6.97874e-06,3.626e-05,4.66825e-05,-1.10486e-05,3.20839e-06
714,-1.57357e-05,7.08251e-06,3.37625e-05,4.62938e-05,-1.40713e-05,1.91871e-06
715,-1.51959e-05,1.54379e-06,2.86854e-05,4.56293e-05,-1.42855e-05,4.44827e-06
716,-6.13163e-07,-4.00121e-06,2.85765e-05,4.53443e-05,-1.26174e-05,8.47352e-06
717,1.11477e-05,-7.47398e-06,3.49583e-05,4.43677e-05,-9.87583e-06,9.44381e-06
718,1.108e-05,-9.26367e-06,4.0709e-05,4.38138e-05,-7.61403e-06,6.82837e-06
719,-2.79804e-06,-1.13618e-05,3.91137e-05,4.64181e-05,-7.48358e-06,4.16763e-06
720,-2.09633e-05,-1.64445e-05,3.35807e-05,5.00626e-05,-1.00169e-05,4.34904e-06
721,-2.6705e-05,-2.10861e-05,3.497e-05,5.08955e-05,-1.37706e-05,7.11959e-06
722,-1.64568e-05,-2.13101e-05,4.3973e-05,4.86551e-05,-1.79852e-05,1.07373e-05
723,-3.50839e-06,-1.80781e-05,5.15852e-05,4.66971e-05,-2.21319e-05,1.32508e-05
724,1.20268e-06,-1.56856e-05,5.19482e-05,4.64067e-05,-2.41235e-05,1.39336e-05
725,-5.07657e-06,-1.77743e-05,4.75619e-05,4.76905e-05,-2.33844e-05,1.25946e-05
726,-1.92502e-05,-2.25445e-05,4.25557e-05,5.00104e-05,-2.09665e-05,1.06335e-05
727,-2.38718e-05,-2.41529e-05,4.2201e-05,5.32302e-05,-1.65189e-05,1.10591e-05
728,-8.6397e-06,-2.22147e-05,4.54777e-05,5.49764e-05,-1.25183e-05,1.48978e-05
729,9.04619e-06,-1.9724e-05,4.61113e-05,5.39341e-05,-1.06712e-05,1.79268e-05
730,9.87405e-06,-1.48148e-05,4.11632e-05,5.14656e-05,-7.66191e-06,1.66069e-05
731,-3.08882e-06,-3.46234e-06,3.65924e-05,4.72569e-05,-1.9284e-06,1.13346e-05
732,-2.29977e-05,9.7715e-06,3.64301e-05,4.60435e-05,2.98186e-06,7.07858e-06
733,-2.77568e-05,1.64112e-05,3.72149e-05,4.98649e-05,5.44099e-06,6.50604e-06
734,-6.58326e-06,1.71458e-05,3.9255e-05,5.36712e-05,7.23443e-06,6.81642e-06
735,9.16595e-06,1.56349e-05,4.19234e-05,5.28428e-05,6.4329e-06,6.18891e-06
736,9.8465e-06,1.38005e-05,4.38974e-05,5.03099e-05,3.53215e-06,5.51165e-06
737,7.3689e-06,1.45604e-05,4.50466e-05,5.17305e-05,2.42581e-06,7.89335e-06
738,6.19899e-06,1.71471e-05,4.33328e-05,5.34833e-05,3.64886e-06,8.54604e-06
739,7.42803e-06,2.14392e-05,3.93469e-05,5.19836e-05,5.09466e-06,7.2719e-06
740,-1.11631e-06,2.41804e-05,3.41992e-05,4.99882e-05,3.86756e-06,5.18173e-06
741,-1.51943e-05,2.09552e-05,3.40334e-05,4.98225e-05,2.90213e-06,3.23011e-06
742,-1.52262e-05,1.41159e-05,4.20635e-05,4.90716e-05,4.0947e-06,2.7979e-06
743,-4.25372e-07,5.69127e-06,5.11166e-05,5.16039e-05,9.43055e-06,5.32498e-06
744,1.17358e-05,-7.24102e-07,5.11792e-05,5.66456e-05,1.52108e-05,1.14976e-05
745,1.38874e-05,-1.64087e-06,4.55596e-05,5.91198e-05,1.60808e-05,1.68311e-05
746,3.88093e-06,-1.13517e-06,4.23326e-05,5.91819e-05,1.38732e-05,1.86065e-05
747,-1.14099e-05,-3.68289e-06,4.24521e-05,5.8477e-05,1.35543e-05,1.57369e-05
748,-1.64774e-05,-4.90009e-06,4.48323e-05,5.74441e-05,1.45271e-05,1.33421e-05
749,-8.6339e-06,-3.47329e-06,4.79379e-05,5.47159e-05,1.47431e-05,1.52744e-05
750,-1.99519e-06,-9.88738e-07,4.77211e-05,5.10178e-05,1.2122e-05,1.84809e-05
751,-2.74263e-06,4.06965e-06,4.13474e-05,4.82091e-05,7.35743e-06,1.85663e-05
752,-8.57774e-06,9.54238e-06,3.26415e-05,4.91535e-05,4.72264e-06,1.63329e-05
753,-1.8822e-05,9.12218e-06,2.78717e-05,5.43114e-05,3.99648e-06,1.31458e-05
754,-2.22707e-05,3.59594e-06,3.11749e-05,6.06461e-05,3.61582e-06,1.24407e-05
755,-1.36429e-05,-1.71614e-06,3.60703e-05,6.25837e-05,5.09404e-06,1.68482e-05
756,-6.22631e-06,-2.65226e-06,3.48009e-05,5.91742e-05,9.30238e-06,2.04949e-05
757,-8.40739e-06,3.14724e-06,2.93127e-05,5.19451e-05,1.27927e-05,1.92083e-05
758,-1.71803e-05,1.07676e-05,2.67706e-05,4.73369e-05,1.50987e-05,1.49911e-05
759,-3.02454e-05,1.02249e-05,2.74796e-05,4.83759e-05,1.25038e-05,1.11912e-05
760,-3.24487e-05,4.05912e-06,3.26998e-05,5.03831e-05,6.3026e-06,1.29301e-05
761,-1.64529e-05,2.8718e-06,3.83391e-05,4.94601e-05,1.67298e-06,1.79257e-05
762,-5.77522e-06,7.31474e-06,3.42703e-05,4.41677e-05,9.02191e-07,1.92106e-05
763,-5.97641e-06,9.78004e-06,2.97053e-05,4.08709e-05,6.21885e-07,1.80824e-05
764,-3.58473e-06,7.00527e-06,3.07879e-05,4.17069e-05,6.73306e-07,1.53008e-05
765,-2.25394e-06,5.37836e-06,3.31203e-05,4.38542e-05,4.92323e-07,1.32654e-05
766,-1.58379e-06,1.00325e-05,3.70795e-05,4.61752e-05,-1.4042e-06,1.59382e-05
767,-9.28498e-06,1.62939e-05,3.75809e-05,4.69359e-05,-4.69941e-06,1.84748e-05
768,-2.4779e-05,1.50386e-05,3.43824e-05,4.9665e-05,-1.26624e-05,1.65932e-05
769,-2.71784e-05,1.09995e-05,3.49907e-05,5.02441e-05,-2.09163e-05,1.4252e-05
770,-1.40422e-05,9.71186e-06,4.15132e-05,4.65591e-05,-2.2571e-05,1.69269e-05
771,-2.75436e-06,1.21382e-05,4.95144e-05,4.5179e-05,-1.7172e-05,2.13994e-05
772,-1.08422e-07,1.91073e-05,5.34161e-05,5.02875e-05,-1.17616e-05,2.25383e-05
773,-7.2193e-06,2.591e-05,5.15191e-05,5.86755e-05,-1.00587e-05,1.93776e-05
774,-1.6157e-05,2.61588e-05,4.83742e-05,6.41727e-05,-1.06916e-05,1.45226e-05
775,-1.43213e-05,2.24742e-05,4.82785e-05,6.50446e-05,-1.09189e-05,1.2056e-05
776,-2.94924e-06,2.06656e-05,5.12619e-05,6.24939e-05,-9.77323e-06,1.18181e-05
777,5.05012e-06,2.34584e-05,5.31805e-05,6.00005e-05,-1.01477e-05,1.09545e-05
778,4.8931e-06,2.86176e-05,5.33644e-05,5.88214e-05,-1.2066e-05,7.81135e-06
779,2.55301e-07,2.9293e-05,5.29703e-05,5.80988e-05,-1.35794e-05,4.95164e-06
780,-9.01304e-06,2.4043e-05,5.12911e-05,5.47282e-05,-1.3927e-05,4.27981e-06
781,-1.4772e-05,1.89368e-05,4.9628e-05,4.86743e-05,-1.48553e-05,7.13953e-06
782,-1.00056e-05,1.7532e-05,4.99969e-05,4.42873e-05,-1.67403e-05,1.07798e-05
783,-3.36777e-06,1.65709e-05,5.02248e-05,4.46867e-05,-1.6464e-05,1.09487e-05
784,-4.45213e-06,1.90035e-05,5.00204e-05,4.78539e-05,-1.21108e-05,9.32685e-06
785,-1.28759e-05,2.36433e-05,5.12321e-05,5.1539e-05,-7.86594e-06,8.79987e-06
786,-3.02534e-05,2.5525e-05,5.15296e-05,5.32851e-05,-8.78193e-06,6.77414e-06
787,-3.70967e-05,2.12414e-05,5.40061e-05,5.41524e-05,-1.24413e-05,3.52726e-06
788,-1.8633e-05,1.72379e-05,5.85233e-05,5.32044e-05,-1.67784e-05,1.92812e-06
789,-3.93484e-06,1.92729e-05,5.79285e-05,4.9541e-05,-1.933e-05,3.08842e-06
790,-1.55524e-06,2.0805e-05,5.27018e-05,4.66708e-05,-1.86374e-05,6.71868e-06
791,1.06269e-06,2.16173e-05,4.61115e-05,4.57091e-05,-1.46545e-05,1.2097e-05
792,-1.71395e-07,2.31396e-05,3.83539e-05,4.80842e-05,-1.24414e-05,1.69279e-05
793,-3.29833e-06,2.67763e-05,3.59515e-05,5.23595e-05,-1.74252e-05,1.78161e-05
794,-1.01035e-05,2.86097e-05,3.82026e-05,5.40256e-05,-2.13333e-05,1.75995e-05
795,-1.86451e-05,2.49796e-05,4.01383e-05,5.35906e-05,-2.09139e-05,1.65189e-05
796,-1.71457e-05,2.02926e-05,3.94986e-05,5.23686e-05,-1.92667e-05,1.36284e-05
797,-3.22943e-06,1.63704e-05,3.69332e-05,5.04992e-05,-1.93817e-05,1.11641e-05
798,7.68009e-06,1.5055e-05,3.37775e-05,4.74003e-05,-2.26484e-05,1.1127e-05
799,7.83275e-06,2.02381e-05,3.2616e-05,4.31301e-05,-2.743e-05,1.09417e-05
800,-4.50914e-06,2.83535e-05,3.44871e-05,4.16378e-05,-2.7812e-05,9.4276e-06
801,-2.06088e-05,3.01498e-05,3.77373e-05,4.38363e-05,-2.20727e-05,8.25589e-06
802,-2.37984e-05,2.45066e-05,4.25575e-05,4.76499e-05,-1.55807e-05,7.98758e-06
803,-1.29498e-05,1.77132e-05,4.68162e-05,4.75485e-05,-1.45334e-05,8.80934e-06
804,-1.83634e-06,1.6595e-05,4.84686e-05,4.28824e-05,-1.76766e-05,9.69793e-06
805,7.80598e-07,2.15986e-05,4.67351e-05,3.98293e-05,-1.82477e-05,9.97639e-06
806,-4.73977e-06,2.72362e-05,4.05589e-05,4.23665e-05,-1.47319e-05,9.75158e-06
807,-1.59184e-05,2.6693e-05,3.18479e-05,4.72639e-05,-1.0388e-05,9.5212e-06
808,-1.9479e-05,2.18392e-05,2.89791e-05,5.01445e-05,-9.52234e-06,9.19249e-06
809,-8.65503e-06,1.83445e-05,3.42124e-05,4.85745e-05,-9.17433e-06,1.06737e-05
810,4.82429e-06,1.69035e-05,3.98699e-05,4.4652e-05,-9.64827e-06,1.35839e-05
811,8.06834e-06,1.66432e-05,4.04589e-05,4.43843e-05,-1.49728e-05,1.53521e-05
812,1.98205e-06,1.73254e-05,3.84617e-05,4.831e-05,-2.07896e-05,1.43736e-05
813,-1.39432e-05,1.58769e-05,3.39377e-05,5.31329e-05,-1.98349e-05,1.06604e-05
814,-2.42063e-05,1.30896e-05,3.17679e-05,5.37138e-05,-1.27649e-05,7.23799e-06
815,-1.4183e-05,1.35203e-05,3.66603e-05,5.01264e-05,-6.52629e-06,6.88176e-06
816,-6.14168e-06,1.50721e-05,3.92855e-05,4.67147e-05,-6.12659e-06,7.15223e-06
817,-9.67781e-06,1.24504e-05,3.92999e-05,4.68322e-05,-5.7855e-06,7.66773e-06
818,-1.29697e-05,6.68378e-06,3.71026e-05,5.1566e-05,-4.98343e-06,9.31879e-06
819,-1.12314e-05,3.95513e-06,3.15423e-05,5.52671e-05,-5.59331e-06,1.14306e-05
820,-7.59784e-06,7.4981e-06,2.85558e-05,5.47139e-05,-6.25361e-06,1.21188e-05
821,-1.56238e-05,1.18512e-05,2.64805e-05,5.28563e-05,-9.34999e-06,7.46011e-06
822,-3.22551e-05,8.17744e-06,2.55374e-05,5.28e-05,-1.25668e-05,2.47171e-06
823,-3.54523e-05,2.65605e-06,2.37511e-05,5.32424e-05,-1.24222e-05,1.71478e-06
824,-1.78423e-05,2.03949e-06,1.96542e-05,5.04333e-05,-8.56422e-06,4.01161e-06
825,2.21165e-06,6.00102e-06,1.85773e-05,4.59536e-05,-4.93368e-06,5.60505e-06
826,1.00253e-05,1.34712e-05,2.32206e-05,4.29063e-05,-4.42702e-06,5.35879e-06
827,-6.23688e-07,1.85192e-05,2.60939e-05,4.14928e-05,-6.35451e-06,5.6725e-06
828,-1.91853e-05,1.58619e-05,2.45471e-05,4.06853e-05,-7.67969e-06,6.52856e-06
829,-2.51016e-05,1.21241e-05,2.42646e-05,4.25814e-05,-6.52289e-06,8.24881e-06
830,-1.13597e-05,1.24226e-05,2.81092e-05,4.5872e-05,-4.50067e-06,1.11156e-05
831,4.63651e-06,1.45703e-05,3.30589e-05,4.5929e-05,-1.38747e-06,1.39158e-05
832,6.6668e-06,1.64318e-05,3.3711e-05,4.48175e-05,1.37597e-06,1.58984e-05
833,-4.75643e-06,1.81163e-05,3.00568e-05,4.70032e-05,8.45006e-07,1.70964e-05
834,-2.16572e-05,1.81945e-05,2.77176e-05,4.90399e-05,-2.76398e-06,1.70289e-05
835,-2.71246e-05,1.6144e-05,3.19294e-05,4.71896e-05,-4.88401e-06,1.58446e-05
836,-1.43031e-05,1.25163e-05,3.79741e-05,4.29762e-05,-2.43442e-06,1.51829e-05
837,1.82083e-06,8.27591e-06,4.03676e-05,3.9778e-05,2.39339e-06,1.70731e-05
838,5.52237e-06,8.71697e-06,3.97174e-05,3.71005e-05,4.40201e-06,2.07755e-05
839,-3.24919e-06,1.09825e-05,3.73477e-05,3.39754e-05,1.09037e-06,2.32846e-05
840,-2.00238e-05,8.40339e-06,3.26738e-05,3.5514e-05,-3.04738e-06,1.93994e-05
841,-2.71166e-05,4.23064e-06,2.95699e-05,3.93134e-05,-4.34253e-06,1.38258e-05
842,-1.2145e-05,4.43419e-06,3.2225e-05,3.95427e-05,-1.01606e-06,1.50772e-05
843,3.75092e-06,8.70741e-06,3.45926e-05,3.76678e-05,5.95445e-06,1.99587e-05
844,7.05031e-06,1.57939e-05,3.36585e-05,3.79296e-05,1.17889e-05,2.50853e-05
845,9.48098e-06,2.11521e-05,3.07479e-05,4.04018e-05,9.99356e-06,2.66954e-05
846,1.24068e-05,1.92637e-05,2.69605e-05,4.22161e-05,3.09342e-06,2.39553e-05
847,1.26682e-05,1.26477e-05,2.73934e-05,4.05353e-05,7.63769e-08,1.89158e-05
848,4.62976e-06,6.62463e-06,2.60545e-05,3.76115e-05,1.13184e-06,1.35714e-05
849,-5.03158e-06,8.26541e-07,1.9524e-05,3.74456e-05,1.80688e-06,1.2095e-05
850,-2.9272e-06,-2.25155e-06,1.68023e-05,3.82773e-05,-1.43601e-07,1.4397e-05
851,8.20024e-06,-1.59697e-06,2.09813e-05,3.6713e-05,-3.97171e-06,1.80847e-05
852,1.43359e-05,5.39324e-07,2.35155e-05,3.21303e-05,-8.92609e-06,2.01141e-05
853,1.20919e-05,3.98322e-06,2.26504e-05,2.86934e-05,-1.23002e-05,2.04843e-05
854,1.94966e-06,5.80101e-06,2.01534e-05,3.04713e-05,-1.17291e-05,1.94592e-05
855,-9.73473e-06,8.79276e-07,1.86208e-05,3.69452e-05,-1.10726e-05,1.85682e-05
856,-1.14908e-05,-6.10398e-06,1.97065e-05,4.22579e-05,-1.3499e-05,2.01761e-05
857,-2.58157e-06,-8.42813e-06,2.08262e-05,4.17072e-05,-1.53297e-05,2.2531e-05
858,6.64441e-06,-7.59518e-06,1.98778e-05,3.90358e-05,-1.26909e-05,2.08716e-05
859,9.8934e-06,-7.98501e-06,1.99306e-05,3.98584e-05,-1.00112e-05,1.57352e-05
860,7.16641e-06,-1.13634e-05,2.26509e-05,4.39666e-05,-1.3286e-05,1.10373e-05
861,-1.3248e-06,-1.71938e-05,2.52115e-05,4.8445e-05,-2.11362e-05,8.17921e-06
862,-3.06457e-06,-2.13911e-05,2.72872e-05,5.24066e-05,-2.74617e-05,6.42537e-06
863,5.69445e-06,-2.09467e-05,2.77802e-05,5.50192e-05,-2.88623e-05,5.3167e-06
864,1.10726e-05,-1.65995e-05,2.6273e-05,5.53483e-05,-2.71738e-05,6.12934e-06
865,9.09465e-06,-8.90799e-06,2.65295e-05,5.48735e-05,-2.51314e-05,7.74282e-06
866,4.07274e-06,9.64709e-07,3.00101e-05,5.54233e-05,-2.19454e-05,1.00697e-05
867,-8.4677e-06,9.37686e-06,3.0387e-05,5.69385e-05,-1.71919e-05,1.16543e-05
868,-1.55551e-05,1.48479e-05,3.12093e-05,5.62018e-05,-1.30553e-05,1.28014e-05
869,-4.82514e-06,2.10839e-05,3.72766e-05,5.652e-05,-1.35843e-05,1.21773e-05
870,3.27116e-07,2.4563e-05,4.14396e-05,5.71285e-05,-1.5562e-05,8.61944e-06
871,-6.02554e-06,2.21803e-05,3.97402e-05,5.50498e-05,-1.78152e-05,8.50939e-06
872,-8.79766e-06,1.3945e-05,3.70547e-05,5.72871e-05,-2.22061e-05,1.42529e-05
873,-1.20863e-05,6.11915e-06,3.5745e-05,6.02869e-05,-2.48084e-05,2.13835e-05
874,-1.71795e-05,5.35185e-06,3.44458e-05,6.12326e-05,-2.46951e-05,2.69847e-05
875,-2.58723e-05,8.92964e-06,2.79007e-05,6.30404e-05,-2.15322e-05,3.04186e-05
876,-3.20359e-05,7.83081e-06,2.2141e-05,6.48713e-05,-1.88865e-05,2.98266e-05
877,-2.35633e-05,1.56793e-06,2.42258e-05,6.46908e-05,-1.80423e-05,2.67053e-05
878,-4.68489e-06,-5.32831e-06,3.11553e-05,6.32853e-05,-1.64141e-05,2.55029e-05
879,8.81167e-06,-8.83092e-06,3.44379e-05,6.01273e-05,-1.37638e-05,2.54916e-05
880,1.14954e-05,-6.14963e-06,3.36485e-05,5.63633e-05,-1.20597e-05,2.29641e-05
881,1.09596e-06,7.57377e-08,3.22897e-05,5.63362e-05,-1.1791e-05,1.75369e-05
882,-1.44725e-05,7.39241e-06,3.19597e-05,5.90065e-05,-1.2386e-05,1.31089e-05
883,-1.83454e-05,1.70759e-05,3.42591e-05,6.22678e-05,-1.27166e-05,1.12505e-05
884,-8.27087e-06,2.95838e-05,3.8158e-05,6.38902e-05,-1.04185e-05,1.08528e-05
885,-5.73218e-07,4.25781e-05,4.13311e-05,6.11713e-05,-7.17335e-06,9.03175e-06
886,-4.36414e-06,5.45127e-05,4.05481e-05,5.61767e-05,-5.34005e-06,4.13231e-06
887,-1.63113e-05,6.32839e-05,3.49915e-05,5.58934e-05,-4.36479e-06,-1.79924e-06
888,-3.17392e-05,6.71526e-05,2.95568e-05,6.07796e-05,-2.92162e-06,-4.50062e-06
889,-3.43535e-05,6.78896e-05,3.37423e-05,6.39693e-05,-2.35903e-06,-2.24879e-06
890,-1.88216e-05,7.03398e-05,3.96275e-05,6.25622e-05,-4.03116e-06,2.83284e-06
891,-2.68036e-06,7.53865e-05,3.80631e-05,6.14686e-05,-5.34605e-06,7.75463e-06
892,1.59818e-06,8.31623e-05,3.30952e-05,6.22497e-05,-7.38499e-06,9.31547e-06
893,-3.13042e-06,8.62347e-05,2.78789e-05,6.09684e-05,-1.271e-05,9.07689e-06
894,-1.57768e-05,7.35408e-05,1.94692e-05,5.79681e-05,-1.18763e-05,9.04456e-06
895,-2.40929e-05,5.20625e-05,1.46476e-05,5.83815e-05,-1.89574e-06,8.52947e-06
896,-1.5672e-05,3.66709e-05,2.00709e-05,6.25585e-05,4.58801e-06,8.86121e-06
897,-8.50566e-06,3.25783e-05,2.5779e-05,6.42509e-05,1.46239e-06,1.01776e-05
898,-5.7702e-06,3.30454e-05,2.64935e-05,6.1999e-05,-4.10867e-06,1.33151e-05
899,-1.22129e-06,3.15774e-05,2.58343e-05,6.11565e-05,-3.85997e-06,1.70255e-05
900,-3.66273e-06,2.96927e-05,2.94315e-05,6.31347e-05,-1.64108e-06,1.70726e-05
901,-4.42485e-06,2.77012e-05,3.63755e-05,6.67713e-05,-2.56795e-06,1.44135e-05
902,-8.81603e-06,2.48129e-05,3.60544e-05,6.73641e-05,-4.18853e-06,1.30023e-05
903,-1.84828e-05,1.80502e-05,3.40656e-05,6.35879e-05,-5.09094e-06,1.39985e-05
904,-1.77179e-05,9.34554e-06,3.66509e-05,5.74778e-05,-4.58921e-06,1.48936e-05
905,-3.8845e-06,3.64972e-06,4.15951e-05,5.09751e-05,-1.82059e-06,1.6349e-05
906,5.08555e-06,2.63213e-06,4.539e-05,4.72487e-05,8.04607e-07,1.77044e-05
907,3.9875e-06,4.54129e-06,4.57045e-05,4.69516e-05,-2.35459e-06,1.7202e-05
908,-5.56153e-06,4.06599e-06,4.55749e-05,4.97118e-05,-8.03342e-06,1.35432e-05
909,-1.8209e-05,-2.46056e-06,4.63931e-05,5.2737e-05,-1.02163e-05,8.79305e-06
910,-2.04091e-05,-8.7839e-06,4.97268e-05,5.42857e-05,-6.95092e-06,6.10207e-06
911,-9.7581e-06,-7.99626e-06,5.4682e-05,5.42439e-05,-1.56735e-06,7.03251e-06
912,-1.29007e-06,-1.07893e-06,5.71323e-05,5.37772e-05,3.42554e-06,9.06369e-06
913,-6.13411e-06,7.50363e-06,5.34754e-05,5.2438e-05,6.49464e-06,1.00731e-05
914,-1.84341e-05,1.11936e-05,4.65759e-05,5.0673e-05,5.70687e-06,1.06864e-05
915,-3.04756e-05,7.07838e-06,4.09795e-05,4.98892e-05,2.66755e-06,9.59889e-06
916,-3.05172e-05,1.19062e-06,4.13438e-05,5.02175e-05,-1.60544e-06,7.5461e-06
917,-1.68367e-05,7.83497e-07,4.94744e-05,4.95058e-05,-6.01845e-06,6.20782e-06
918,-5.15144e-06,4.09203e-06,5.64812e-05,4.69519e-05,-8.37058e-06,3.81268e-06
919,-4.06985e-06,7.04245e-06,5.27894e-05,4.58025e-05,-1.08076e-05,1.16092e-06
920,-1.03109e-05,7.9591e-06,4.40343e-05,4.87512e-05,-1.55225e-05,3.22523e-07
921,-2.84788e-05,4.41391e-06,4.24221e-05,5.24047e-05,-1.98194e-05,-7.57414e-07
922,-3.57867e-05,-2.18521e-06,4.87576e-05,5.18201e-05,-2.17847e-05,3.13667e-06
923,-1.75894e-05,-8.62103e-06,5.51104e-05,5.11221e-05,-1.78298e-05,1.16753e-05
924,-1.63634e-06,-1.33961e-05,5.2796e-05,5.00547e-05,-1.28566e-05,1.49946e-05
925,3.612e-06,-1.43358e-05,4.64202e-05,4.70889e-05,-1.0106e-05,1.49395e-05
926,4.94916e-06,-1.81842e-05,4.35378e-05,4.55818e-05,-9.26273e-06,1.38529e-05
927,8.794e-07,-2.27277e-05,4.37924e-05,4.63981e-05,-7.97811e-06,9.75115e-06
928,-2.80253e-06,-2.14548e-05,4.61793e-05,4.8842e-05,-8.52356e-06,6.46611e-06
929,-1.0575e-05,-1.49026e-05,4.1853e-05,5.02221e-05,-1.36937e-05,3.92211e-06
930,-2.10856e-05,-1.31114e-05,3.47694e-05,5.17118e-05,-1.71767e-05,2.26301e-06
931,-1.94785e-05,-1.53765e-05,3.44487e-05,5.37739e-05,-1.73892e-05,2.43388e-06
932,-4.91071e-06,-1.4886e-05,3.85252e-05,5.68175e-05,-1.77596e-05,3.72602e-06
933,6.04946e-06,-1.12582e-05,4.14453e-05,5.69636e-05,-2.13457e-05,4.47495e-06
934,6.12943e-06,-5.54808e-06,4.28814e-05,5.2409e-05,-2.29603e-05,4.22737e-06
935,-5.93189e-06,-2.20853e-06,4.29916e-05,4.71684e-05,-2.36037e-05,3.44038e-06
936,-2.12351e-05,-2.98321e-06,4.42639e-05,4.82853e-05,-2.25341e-05,3.59188e-06
937,-2.39812e-05,-5.15665e-06,4.92186e-05,5.33608e-05,-1.83116e-05,5.1716e-06
938,-1.32092e-05,-4.56927e-06,5.4784e-05,5.60314e-05,-1.60114e-05,7.35341e-06
939,-3.1806e-06,-1.82432e-06,5.7975e-05,5.6528e-05,-1.81766e-05,1.00759e-05
940,-2.70522e-06,2.50804e-06,5.75677e-05,5.49113e-05,-2.22126e-05,1.29938e-05
941,-1.07384e-05,6.83519e-06,5.27866e-05,5.18102e-05,-2.26982e-05,1.37829e-05
942,-2.38949e-05,8.03998e-06,4.59087e-05,4.94854e-05,-1.83845e-05,1.06313e-05
943,-2.64826e-05,6.25514e-06,4.35951e-05,4.9273e-05,-1.53001e-05,6.18188e-06
944,-1.18187e-05,7.80583e-06,4.6386e-05,4.85954e-05,-1.72774e-05,3.82079e-06
945,4.50972e-06,1.2318e-05,4.73824e-05,4.79874e-05,-2.14396e-05,7.42125e-06
946,8.35722e-06,1.50421e-05,4.44206e-05,4.69061e-05,-2.22751e-05,1.43788e-05
947,-3.16137e-06,1.58045e-05,4.23882e-05,4.57277e-05,-1.47498e-05,1.90421e-05
948,-2.89924e-05,1.77957e-05,4.01252e-05,4.62893e-05,-6.50882e-06,1.8633e-05
949,-4.0878e-05,1.85031e-05,4.11035e-05,4.68685e-05,-4.56001e-06,1.50216e-05
950,-1.84861e-05,1.60534e-05,4.50252e-05,4.54464e-05,-7.47738e-06,1.40173e-05
951,2.55576e-06,1.26974e-05,4.50643e-05,4.33247e-05,-7.99297e-06,1.39539e-05
952,2.11974e-06,8.85563e-06,4.10511e-05,4.2398e-05,-5.11858e-06,1.26773e-05
953,-1.74617e-06,9.3473e-06,3.6775e-05,4.19077e-05,-2.65977e-06,1.17331e-05
954,-1.45379e-06,1.23379e-05,3.30466e-05,4.10498e-05,-3.51171e-06,1.11309e-05
955,3.64729e-06,1.53e-05,2.97048e-05,4.31916e-05,-7.10186e-06,1.02749e-05
956,-2.06953e-06,1.82313e-05,2.58819e-05,4.69634e-05,-6.93438e-06,8.23192e-06
957,-1.50967e-05,1.47189e-05,2.29657e-05,5.0475e-05,-2.86107e-06,6.83838e-06
958,-1.41292e-05,9.76463e-06,2.53754e-05,5.04856e-05,2.02998e-06,6.38608e-06
959,-7.02839e-08,8.32809e-06,3.19998e-05,4.79758e-05,5.15514e-06,5.69928e-06
960,7.95638e-06,1.02461e-05,3.67036e-05,4.44134e-05,2.51477e-06,3.39771e-06
961,5.4634e-06,1.26966e-05,3.6112e-05,4.2753e-05,-3.61662e-06,1.7869e-06
962,-5.18135e-06,1.25835e-05,3.25242e-05,4.46945e-05,-8.19758e-06,2.28158e-06
963,-1.7054e-05,8.16851e-06,3.30407e-05,4.86895e-05,-1.04172e-05,4.55853e-06
964,-1.73165e-05,5.18731e-06,4.0117e-05,5.11852e-05,-9.31256e-06,9.09327e-06
965,-4.95318e-06,7.48392e-06,4.55191e-05,4.99243e-05,-5.71217e-06,1.4296e-05
966,6.6987e-06,1.21052e-05,4.52152e-05,4.70839e-05,-2.98626e-06,1.72652e-05
967,1.00238e-05,1.54754e-05,4.22366e-05,4.65239e-05,-4.29308e-06,1.63407e-05
968,5.95713e-06,1.47174e-05,3.97151e-05,5.04858e-05,-7.58264e-06,1.37716e-05
969,-4.24337e-06,1.1328e-05,3.78809e-05,5.49659e-05,-1.01598e-05,1.23468e-05
970,-6.91789e-06,8.17919e-06,3.95021e-05,5.7027e-05,-1.08369e-05,1.40549e-05
971,2.26841e-06,9.1665e-06,4.41549e-05,5.61787e-05,-1.11582e-05,1.73379e-05
972,1.06595e-05,1.35965e-05,4.69129e-05,5.59182e-05,-1.1651e-05,1.74908e-05
973,9.44224e-06,1.91929e-05,4.64717e-05,5.46716e-05,-1.00159e-05,1.33996e-05
974,3.66648e-06,2.04387e-05,4.56219e-05,5.08163e-05,-8.7764e-06,9.63691e-06
975,-1.08877e-05,1.4755e-05,4.2767e-05,4.70614e-05,-9.13842e-06,7.80202e-06
976,-2.17999e-05,8.11407e-06,4.16118e-05,4.66294e-05,-1.01147e-05,8.62279e-06
977,-7.73853e-06,6.79327e-06,4.45982e-05,4.66877e-05,-1.1317e-05,1.44985e-05
978,1.0045e-05,9.96798e-06,4.47869e-05,4.71434e-05,-8.8998e-06,1.92537e-05
979,1.42931e-05,1.16962e-05,4.55319e-05,4.7407e-05,-6.80662e-06,1.97567e-05
980,1.11269e-05,7.87132e-06,4.47749e-05,4.58816e-05,-6.17457e-06,1.75193e-05
981,4.0878e-06,6.2233e-06,3.90371e-05,4.43602e-05,-6.41092e-06,1.35589e-05
982,-1.30087e-06,1.18339e-05,3.42881e-05,4.22931e-05,-1.02482e-05,1.24434e-05
983,-1.10412e-05,1.58002e-05,3.23113e-05,3.95773e-05,-1.57717e-05,1.42827e-05
984,-2.10384e-05,1.25215e-05,3.40387e-05,3.82711e-05,-2.18541e-05,1.54839e-05
985,-1.99221e-05,1.1127e-05,4.02135e-05,3.81228e-05,-2.18286e-05,1.49839e-05
986,-7.84573e-06,1.03557e-05,4.38669e-05,3.91449e-05,-1.61193e-05,1.60553e-05
987,1.47348e-06,9.74176e-06,3.99077e-05,3.94294e-05,-1.00149e-05,1.83747e-05
988,7.94118e-07,1.16426e-05,3.52808e-05,3.785e-05,-6.44211e-06,1.89469e-05
989,-1.11672e-05,1.32711e-05,3.54521e-05,3.78748e-05,-4.32086e-06,1.52814e-05
990,-2.38351e-05,1.14102e-05,3.97993e-05,4.07501e-05,-3.04617e-06,1.02521e-05
991,-2.12287e-05,8.79926e-06,4.54715e-05,4.27167e-05,-4.23221e-06,8.31634e-06
992,-5.54494e-06,9.15594e-06,4.76487e-05,4.15546e-05,-6.55442e-06,9.20958e-06
993,6.70604e-06,1.16674e-05,4.47848e-05,3.99233e-05,-8.85391e-06,1.03095e-05
994,7.07751e-06,1.74694e-05,4.04901e-05,3.97791e-05,-9.45527e-06,1.06873e-05
995,-1.91683e-06,2.43966e-05,3.59949e-05,4.21034e-05,-8.89378e-06,1.12324e-05
996,-1.58202e-05,2.66846e-05,3.12348e-05,4.58913e-05,-8.05985e-06,1.16751e-05
997,-1.78394e-05,2.22863e-05,3.11019e-05,4.79144e-05,-8.096e-06,1.39096e-05
998,-3.95139e-06,1.71957e-05,3.65985e-05,4.82369e-05,-9.789e-06,1.78188e-05
999,6.51185e-06,1.68554e-05,3.83337e-05,4.94283e-05,-1.34397e-05,2.19771e-05
1000,4.98304e-06,2.42314e-05,3.27761e-05,4.89936e-05,-1.83005e-05,2.45474e-05
1001,9.56882e-07,3.17135e-05,2.71328e-05,4.58515e-05,-2.12904e-05,2.2322e-05
1002,-1.03468e-05,3.20263e-05,2.73993e-05,4.39786e-05,-2.15825e-05,1.54713e-05
1003,-1.55948e-05,2.70208e-05,3.2361e-05,4.38002e-05,-1.97143e-05,1.05239e-05
1004,2.61759e-06,1.80892e-05,3.62207e-05,4.43383e-05,-1.69572e-05,1.0868e-05
1005,1.40506e-05,1.03787e-05,3.88053e-05,4.82489e-05,-1.75485e-05,1.22508e-05
1006,8.88865e-06,1.35578e-05,4.24515e-05,5.20325e-05,-1.9673e-05,1.19365e-05
1007,4.23491e-06,2.12138e-05,4.49566e-05,5.13455e-05,-2.02326e-05,1.0954e-05
1008,1.36162e-06,2.64196e-05,4.15857e-05,4.99927e-05,-1.91379e-05,9.56982e-06
1009,2.27476e-06,2.93229e-05,3.54184e-05,5.06224e-05,-1.83308e-05,9.20254e-06
1010,-3.70489e-06,2.88077e-05,2.93329e-05,5.16595e-05,-1.89767e-05,1.1395e-05
1011,-1.61929e-05,2.367e-05,2.28346e-05,5.49072e-05,-1.97226e-05,1.36737e-05
1012,-1.57754e-05,1.78573e-05,2.16782e-05,5.86963e-05,-1.70914e-05,1.51801e-05
1013,-2.12961e-06,1.60208e-05,2.36605e-05,5.91636e-05,-1.26864e-05,1.79668e-05
1014,3.11672e-06,1.99204e-05,2.64707e-05,5.56088e-05,-1.03323e-05,2.1849e-05
1015,-2.4546e-06,2.85636e-05,3.08092e-05,5.34817e-05,-1.06893e-05,2.34398e-05
1016,-1.47568e-05,3.55306e-05,3.05073e-05,5.45993e-05,-1.14538e-05,2.2246e-05
1017,-2.7911e-05,3.59088e-05,2.58757e-05,5.6249e-05,-9.35399e-06,2.03833e-05
1018,-2.91692e-05,3.29054e-05,2.51367e-05,5.69976e-05,-4.89239e-06,1.84035e-05
1019,-1.54332e-05,3.04915e-05,2.89577e-05,5.6858e-05,1.06002e-06,1.60195e-05
1020,-1.44633e-06,2.89633e-05,3.18485e-05,5.53027e-05,5.79185e-06,1.21576e-05
1021,-8.52406e-07,2.74396e-05,3.25176e-05,5.37878e-05,8.36926e-06,7.12194e-06
1022,-1.157e-05,2.6329e-05,3.16361e-05,5.45752e-05,9.67153e-06,3.88333e-06
1023,-2.3977e-05,2.35172e-05,3.26248e-05,5.57243e-05,7.31463e-06,5.08421e-06
1024,-2.00584e-05,1.83078e-05,4.05317e-05,5.61511e-05,-9.7617e-07,5.27368e-06
1025,6.04876e-07,1.47962e-05,5.07931e-05,5.33656e-05,-7.73745e-06,1.18948e-06
1026,1.28629e-05,1.28348e-05,5.61956e-05,5.0531e-05,-6.39325e-06,-6.49437e-07
1027,8.75187e-06,1.29824e-05,5.69721e-05,4.86652e-05,-2.28588e-06,1.38335e-06
1028,-3.54516e-06,1.37699e-05,5.19238e-05,4.42833e-05,-2.95401e-06,3.65896e-06
1029,-2.71774e-05,1.05181e-05,4.22113e-05,4.08008e-05,-3.15526e-06,6.02836e-06
1030,-3.91498e-05,3.98703e-06,3.62972e-05,3.97474e-05,-5.56608e-07,9.78792e-06
1031,-2.58854e-05,-9.93296e-08,3.88553e-05,4.00862e-05,1.074e-06,1.39667e-05
1032,-1.33568e-05,-2.50309e-06,4.1885e-05,4.32948e-05,3.30893e-06,1.51406e-05
1033,-1.30952e-05,-3.66986e-06,3.98077e-05,4.72329e-05,4.05801e-06,1.27525e-05
1034,-1.27944e-05,-4.63264e-06,3.33678e-05,5.05574e-05,2.26664e-06,9.49103e-06
1035,-9.06578e-06,-4.88207e-06,2.70328e-05,5.17069e-05,1.75552e-07,9.79548e-06
1036,-8.57683e-07,-1.10284e-06,2.79485e-05,4.9837e-05,9.7394e-07,1.23799e-05
1037,5.09543e-07,3.88973e-06,2.70888e-05,4.80968e-05,4.55993e-06,1.24145e-05
1038,-7.68005e-06,3.25527e-06,2.05594e-05,4.70993e-05,6.28981e-06,1.02444e-05
1039,-6.95294e-06,8.19614e-07,1.91833e-05,4.69997e-05,2.8595e-06,9.39247e-06
1040,3.98372e-06,3.09111e-08,2.67912e-05,4.97509e-05,-3.8796e-06,1.09196e-05
1041,9.8306e-06,1.55821e-06,3.43725e-05,5.11551e-05,-1.12389e-05,1.21874e-05
1042,5.85683e-06,7.0057e-06,3.58064e-05,5.03198e-05,-1.80661e-05,1.30993e-05
1043,-9.37246e-06,1.21789e-05,3.22633e-05,5.09925e-05,-2.14752e-05,1.32334e-05
1044,-2.8617e-05,1.03543e-05,2.9428e-05,5.44746e-05,-2.15255e-05,1.36821e-05
1045,-3.32747e-05,5.76949e-06,3.2879e-05,5.94522e-05,-2.14379e-05,1.48979e-05
1046,-2.10679e-05,4.06563e-06,3.80522e-05,6.07163e-05,-2.20238e-05,1.58474e-05
1047,-6.47934e-06,4.16856e-06,3.93757e-05,5.64388e-05,-2.27979e-05,1.51081e-05
1048,1.29929e-06,4.52393e-06,3.66214e-05,5.01606e-05,-2.2626e-05,1.16895e-05
1049,-5.07673e-07,4.27259e-06,3.05843e-05,4.83317e-05,-1.96091e-05,6.81355e-06
1050,-1.00577e-05,1.49199e-06,2.4292e-05,5.2307e-05,-1.49356e-05,3.24734e-06
1051,-1.15376e-05,-2.14925e-06,2.50872e-05,5.48065e-05,-1.21429e-05,3.40676e-06
1052,1.67533e-06,-2.50012e-06,2.96794e-05,5.2899e-05,-1.2271e-05,7.09731e-06
1053,1.44933e-05,8.09891e-07,3.07939e-05,5.12319e-05,-1.23698e-05,1.28858e-05
1054,1.75174e-05,7.41184e-06,2.87027e-05,5.11521e-05,-1.13069e-05,1.91551e-05
1055,1.29904e-05,1.23232e-05,2.6988e-05,5.06208e-05,-9.87353e-06,2.20897e-05
1056,-2.64101e-06,1.42982e-05,2.51216e-05,5.08562e-05,-6.13718e-06,1.73688e-05
1057,-1.44179e-05,1.26941e-05,2.64824e-05,5.20202e-05,-3.18403e-06,1.09637e-05
1058,-5.39111e-06,1.1206e-05,3.28036e-05,4.98307e-05,-2.20571e-06,1.21487e-05
1059,5.10857e-06,1.15662e-05,3.38746e-05,4.75143e-05,-6.02072e-07,1.68008e-05
1060,4.42157e-06,1.15906e-05,3.53158e-05,4.88744e-05,2.38947e-07,1.70782e-05
1061,2.28578e-06,1.01038e-05,3.71898e-05,5.19013e-05,-3.04581e-06,1.44461e-05
1062,4.75873e-06,9.46516e-06,3.45086e-05,5.25975e-05,-7.01834e-06,1.22966e-05
1063,1.14842e-05,1.31817e-05,3.44321e-05,5.11158e-05,-4.08306e-06,1.19325e-05
1064,7.86304e-06,1.53781e-05,3.47836e-05,5.07319e-05,8.26168e-07,1.34134e-05
1065,-2.67432e-06,9.20611e-06,3.43128e-05,5.16764e-05,6.90373e-07,1.45298e-05
1066,-3.20089e-06,3.0667e-07,3.52128e-05,5.30063e-05,-5.00465e-06,1.4358e-05
1067,5.90001e-06,-7.10863e-06,3.50632e-05,5.25948e-05,-8.43196e-06,1.42862e-05
1068,8.78264e-06,-1.11891e-05,3.4482e-05,5.00057e-05,-3.44899e-06,1.49532e-05
1069,1.46152e-06,-8.01139e-06,3.88966e-05,4.65827e-05,4.85274e-06,1.52687e-05
1070,-1.18757e-05,1.45399e-06,4.36219e-05,4.37308e-05,9.53113e-06,1.14858e-05
1071,-2.13236e-05,1.11776e-05,4.58165e-05,4.27279e-05,1.07135e-05,5.02314e-06
1072,-1.59045e-05,1.65825e-05,4.88339e-05,4.503e-05,1.2241e-05,3.57799e-06
1073,1.79318e-07,1.59567e-05,5.32902e-05,4.70366e-05,1.10855e-05,9.05952e-06
1074,1.0715e-05,1.39025e-05,5.48456e-05,4.56205e-05,5.85534e-06,1.50851e-05
1075,8.78624e-06,1.51681e-05,5.2111e-05,4.19028e-05,5.09549e-08,1.54692e-05
1076,-2.38841e-06,1.9514e-05,4.76732e-05,4.00877e-05,-3.17215e-06,1.22138e-05
1077,-1.87774e-05,2.31201e-05,4.37198e-05,4.2183e-05,-3.97995e-06,8.09635e-06
1078,-2.5968e-05,2.16136e-05,4.3365e-05,4.53854e-05,-4.4774e-06,3.56492e-06
1079,-1.74359e-05,1.94904e-05,4.59121e-05,4.79693e-05,-4.00604e-06,1.3986e-06
1080,-5.71594e-06,2.31725e-05,4.72492e-05,4.85306e-05,-1.981e-06,2.66339e-06
1081,-4.5499e-06,3.10302e-05,4.3883e-05,4.43224e-05,-2.14535e-06,5.47064e-06
1082,-1.34096e-05,3.5618e-05,3.38809e-05,3.91465e-05,-4.34337e-06,6.383e-06
1083,-3.00294e-05,3.15625e-05,2.36911e-05,3.92354e-05,-6.58125e-06,3.32289e-06
1084,-3.49162e-05,2.11446e-05,2.64365e-05,4.22299e-05,-9.07823e-06,-5.99431e-07
1085,-2.05659e-05,1.49233e-05,3.65932e-05,4.17233e-05,-9.25944e-06,1.29366e-06
1086,-1.12068e-05,1.56222e-05,3.48412e-05,3.99534e-05,-6.31146e-06,4.02072e-06
1087,-1.27845e-05,1.81323e-05,2.42797e-05,4.15719e-05,-6.00092e-06,5.10966e-06
1088,-1.59609e-05,1.74771e-05,1.97066e-05,4.34841e-05,-9.5112e-06,8.15307e-06
1089,-1.78841e-05,1.7259e-05,1.98486e-05,4.65906e-05,-1.07284e-05,8.95074e-06
1090,-1.57983e-05,2.24234e-05,2.28902e-05,4.84909e-05,-9.11757e-06,7.29737e-06
1091,-2.04095e-05,2.72353e-05,2.48908e-05,5.06709e-05,-8.33298e-06,4.34919e-06
1092,-3.0677e-05,2.62182e-05,2.55304e-05,5.52649e-05,-6.86142e-06,3.1611e-06
1093,-2.85481e-05,2.2516e-05,2.75906e-05,5.85192e-05,-3.65841e-06,4.9617e-06
1094,-1.4688e-05,1.84477e-05,2.98167e-05,5.96113e-05,-2.08135e-06,7.4905e-06
1095,-3.40991e-06,1.75436e-05,2.84138e-05,5.76385e-05,-1.82429e-06,8.51032e-06
1096,4.17484e-07,2.15076e-05,2.77125e-05,5.54958e-05,-1.56066e-06,9.52604e-06
1097,-7.27153e-06,2.50291e-05,2.97542e-05,5.48976e-05,-5.44559e-07,1.14432e-05
1098,-2.14129e-05,2.06597e-05,3.02405e-05,5.63127e-05,6.49796e-07,1.3084e-05
1099,-2.51684e-05,1.19709e-05,2.96063e-05,6.00517e-05,2.02141e-06,1.42791e-05
1100,-1.36155e-05,7.35876e-06,3.04873e-05,6.28367e-05,9.53656e-07,1.51317e-05
1101,-9.16728e-07,7.98433e-06,3.25243e-05,6.00215e-05,-2.28269e-06,1.44789e-05
1102,3.94184e-07,1.02185e-05,3.39138e-05,5.42858e-05,-1.85818e-06,1.13868e-05
1103,-1.09018e-05,1.02047e-05,3.37273e-05,5.29768e-05,3.59777e-06,9.22481e-06
1104,-2.60344e-05,7.96034e-06,3.06501e-05,5.63128e-05,9.21004e-06,1.12326e-05
1105,-2.63136e-05,6.32825e-06,2.8499e-05,5.77274e-05,1.22752e-05,1.48001e-05
1106,-9.653e-06,6.7989e-06,3.07357e-05,5.46883e-05,1.21542e-05,1.50585e-05
1107,2.64541e-06,9.69917e-06,3.82785e-05,5.38751e-05,7.74399e-06,1.51128e-05
1108,-2.07506e-06,1.29304e-05,4.5002e-05,5.73805e-05,3.87352e-06,1.84854e-05
1109,-1.30424e-05,1.23827e-05,4.39461e-05,6.06237e-05,2.83696e-06,2.06252e-05
1110,-2.94505e-05,6.29841e-06,3.81443e-05,6.23605e-05,3.93048e-07,1.638e-05
1111,-3.62332e-05,2.45465e-07,3.98023e-05,6.00763e-05,-4.90038e-06,1.28751e-05
1112,-1.93872e-05,6.38893e-08,5.11798e-05,5.63189e-05,-7.16019e-06,1.47116e-05
1113,-8.18536e-06,1.26114e-06,5.68197e-05,5.60241e-05,-8.45775e-06,1.84505e-05
1114,-1.11402e-05,3.12655e-06,5.02998e-05,5.68492e-05,-1.49145e-05,1.83444e-05
1115,-1.36993e-05,4.55327e-06,4.15545e-05,5.54361e-05,-1.9711e-05,1.45939e-05
1116,-1.41409e-05,8.15568e-06,3.56881e-05,5.26456e-05,-2.02008e-05,1.18712e-05
1117,-1.44493e-05,1.26785e-05,3.55059e-05,5.25028e-05,-1.8593e-05,1.29615e-05
1118,-2.20994e-05,1.33005e-05,3.51571e-05,5.56987e-05,-1.87222e-05,1.75304e-05
1119,-3.25178e-05,1.04171e-05,3.40269e-05,5.69506e-05,-2.26876e-05,2.09059e-05
1120,-2.93266e-05,9.06241e-06,3.89998e-05,5.29465e-05,-2.33212e-05,2.25939e-05
1121,-1.27821e-05,9.8534e-06,4.73964e-05,5.07574e-05,-1.86184e-05,2.14928e-05
1122,-1.12966e-06,1.25709e-05,5.05706e-05,5.07344e-05,-1.2915e-05,1.84469e-05
1123,-2.57055e-06,1.72047e-05,4.70536e-05,4.98412e-05,-1.00364e-05,1.50478e-05
1124,-1.60507e-05,1.962e-05,4.21967e-05,4.77249e-05,-9.26852e-06,1.32024e-05
1125,-2.90339e-05,1.92994e-05,4.03986e-05,4.46305e-05,-8.23407e-06,1.37686e-05
1126,-2.6868e-05,1.68882e-05,4.44071e-05,4.16193e-05,-5.28988e-06,1.73582e-05
1127,-1.18827e-05,1.31077e-05,5.11027e-05,4.03036e-05,-2.08389e-06,2.17371e-05
1128,-2.29922e-06,9.34438e-06,5.58319e-05,4.16497e-05,-3.79792e-06,2.15235e-05
1129,-5.4395e-06,7.37519e-06,5.66617e-05,4.17527e-05,-1.1243e-05,1.70003e-05
1130,-1.66232e-05,5.33127e-06,5.40735e-05,4.01909e-05,-1.77428e-05,1.40963e-05
1131,-2.80609e-05,9.84937e-07,4.9443e-05,4.04738e-05,-2.04715e-05,1.44675e-05
1132,-2.6202e-05,-3.445e-06,4.77751e-05,4.25996e-05,-2.19111e-05,1.48898e-05
1133,-1.24604e-05,-4.45157e-06,5.01949e-05,4.2911e-05,-2.22906e-05,1.59166e-05
1134,-1.84946e-06,-2.34616e-06,5.35063e-05,4.14438e-05,-2.40077e-05,1.90675e-05
1135,-2.0236e-06,2.50555e-06,5.68796e-05,4.11037e-05,-2.73271e-05,2.46657e-05
1136,-1.16097e-05,9.14941e-06,5.71012e-05,4.4733e-05,-3.0134e-05,2.85077e-05
1137,-2.94684e-05,1.38738e-05,4.89351e-05,4.83825e-05,-3.05992e-05,2.53788e-05
1138,-3.58834e-05,1.40855e-05,4.177e-05,4.87466e-05,-2.8441e-05,1.75111e-05
1139,-1.9346e-05,1.38318e-05,4.12238e-05,4.91599e-05,-2.56605e-05,1.38156e-05
1140,-8.18025e-06,1.63477e-05,4.08247e-05,4.92082e-05,-2.51982e-05,1.56922e-05
1141,-8.12326e-06,1.99791e-05,3.64828e-05,4.86271e-05,-2.52372e-05,1.97826e-05
1142,-5.22325e-06,2.48275e-05,3.24675e-05,4.7791e-05,-2.24299e-05,2.08446e-05
1143,-1.96979e-06,3.24957e-05,3.42826e-05,4.57832e-05,-2.22478e-05,1.90508e-05
1144,2.038e-06,3.98056e-05,3.76322e-05,4.40008e-05,-2.4587e-05,1.803e-05
1145,-2.5334e-06,4.33536e-05,3.7344e-05,4.23691e-05,-2.64129e-05,1.58299e-05
1146,-1.27001e-05,3.94382e-05,3.40556e-05,4.21959e-05,-2.68482e-05,1.55396e-05
1147,-1.15582e-05,3.14852e-05,3.33283e-05,4.38343e-05,-2.47319e-05,1.73379e-05
1148,2.32286e-06,2.4634e-05,3.47113e-05,4.6284e-05,-2.04056e-05,1.81098e-05
1149,1.1742e-05,2.30908e-05,3.31186e-05,4.76347e-05,-1.66269e-05,1.62071e-05
1150,7.95178e-06,2.5969e-05,2.99842e-05,4.87913e-05,-1.38954e-05,1.36934e-05
1151,-5.25586e-06,2.72984e-05,2.86067e-05,5.0124e-05,-1.13858e-05,1.24798e-05
1152,-1.74614e-05,2.4355e-05,3.02211e-05,5.10536e-05,-9.47534e-06,1.33989e-05
1153,-1.52741e-05,2.07673e-05,3.60817e-05,5.20874e-05,-6.31568e-06,1.49627e-05
1154,-3.72193e-07,1.91779e-05,4.371e-05,5.31096e-05,-2.94903e-07,1.4195e-05
1155,1.1895e-05,1.88481e-05,4.76441e-05,5.33498e-05,6.20589e-06,1.15281e-05
1156,1.31488e-05,2.31381e-05,4.62158e-05,4.93403e-05,9.58162e-06,9.40424e-06
1157,5.67059e-06,2.85872e-05,4.13729e-05,4.15423e-05,1.15419e-05,8.42963e-06
1158,-4.51851e-06,2.83306e-05,3.70806e-05,3.58336e-05,1.13212e-05,8.18053e-06
1159,-2.59975e-06,2.4204e-05,3.75358e-05,3.52327e-05,7.74291e-06,7.93238e-06
1160,1.29806e-05,2.19652e-05,4.0267e-05,3.85338e-05,4.61508e-06,4.53979e-06
1161,2.16648e-05,2.091e-05,3.9875e-05,4.25723e-05,4.44297e-06,2.79262e-07
1162,1.54023e-05,1.98894e-05,3.65811e-05,4.39567e-05,3.2506e-06,-9.47392e-07
1163,4.47564e-06,1.80901e-05,3.30439e-05,4.5135e-05,6.70658e-07,-5.51575e-07
1164,-1.15838e-05,1.4303e-05,2.83081e-05,4.72979e-05,-1.95934e-06,-2.17469e-06
1165,-1.94449e-05,1.02793e-05,2.71398e-05,4.81479e-05,-2.24061e-06,-4.47297e-06
1166,-4.75258e-06,8.98388e-06,3.13853e-05,4.70565e-05,1.42221e-06,-5.04854e-06
1167,5.95844e-06,9.37642e-06,3.13113e-05,4.67327e-05,7.2776e-06,-3.69696e-06
1168,6.73949e-06,9.43511e-06,2.73358e-05,4.7646e-05,1.12848e-05,1.05911e-06
1169,9.9598e-06,7.39581e-06,2.63826e-05,5.0549e-05,1.02616e-05,6.34726e-06
1170,1.1457e-05,5.68062e-06,3.40586e-05,5.28984e-05,4.04383e-06,8.1232e-06
1171,1.04846e-05,7.35375e-06,4.24963e-05,5.04746e-05,-2.25405e-06,6.83838e-06
1172,4.44075e-07,8.17488e-06,4.00957e-05,4.73119e-05,-4.22581e-06,4.01371e-06
1173,-1.39467e-05,1.63317e-06,3.41396e-05,4.93988e-05,-5.37297e-06,3.01971e-06
1174,-1.48682e-05,-5.14362e-06,3.44102e-05,5.32023e-05,-4.14424e-06,5.93076e-06
1175,-1.62147e-06,-7.31242e-06,3.91122e-05,5.52059e-05,-3.157e-06,9.38631e-06
1176,1.05376e-05,-5.30213e-06,4.1155e-05,5.59054e-05,-4.4711e-06,9.44801e-06
1177,1.52131e-05,-2.10749e-06,3.93798e-05,5.47388e-05,-5.12278e-06,7.80476e-06
1178,5.31877e-06,-2.86399e-06,3.38312e-05,5.22355e-05,-4.17145e-06,7.49888e-06
1179,-9.54389e-06,-9.7555e-06,2.90708e-05,5.08887e-05,-1.91282e-06,9.62995e-06
1180,-6.26429e-06,-1.73017e-05,3.15738e-05,5.22141e-05,-2.81882e-06,1.11704e-05
1181,1.41629e-05,-1.92766e-05,3.97204e-05,5.46068e-05,-7.50386e-06,1.12258e-05
1182,2.89049e-05,-1.49374e-05,4.40923e-05,5.50136e-05,-1.00647e-05,1.24945e-05
1183,2.87358e-05,-6.67705e-06,4.13562e-05,5.16167e-05,-1.09716e-05,1.48475e-05
1184,1.77998e-05,-1.93697e-06,3.74392e-05,4.77676e-05,-1.38011e-05,1.46126e-05
1185,2.95817e-07,-3.08405e-06,3.62271e-05,4.71773e-05,-1.42404e-05,1.07945e-05
1186,-1.04664e-05,-4.85438e-06,3.7537e-05,4.88527e-05,-1.10929e-05,7.16814e-06
1187,-6.48401e-06,-1.40883e-06,4.00022e-05,4.92382e-05,-8.60532e-06,5.03096e-06
1188,2.84494e-06,3.44636e-06,3.98851e-05,5.04617e-05,-8.58248e-06,4.45317e-06
1189,2.77638e-06,7.3042e-06,3.48406e-05,5.37966e-05,-9.936e-06,6.51865e-06
1190,-8.59345e-06,8.68518e-06,2.91788e-05,5.59331e-05,-1.05246e-05,1.02213e-05
1191,-2.63349e-05,4.17222e-06,2.6223e-05,5.81226e-05,-1.13779e-05,1.23567e-05
1192,-3.18127e-05,-3.85084e-06,2.74538e-05,6.1194e-05,-1.37652e-05,1.03218e-05
1193,-1.59097e-05,-5.55281e-06,3.08276e-05,6.04021e-05,-1.47959e-05,7.20909e-06
1194,-4.30872e-06,-2.82426e-06,2.95477e-05,5.67502e-05,-1.28806e-05,5.48233e-06
1195,-5.51538e-06,-1.20938e-06,2.674e-05,5.35719e-05,-1.34994e-05,8.36362e-06
1196,-4.43048e-06,-5.24006e-07,2.88067e-05,5.29721e-05,-1.75415e-05,1.34489e-05
1197,-4.64142e-06,1.09694e-06,3.20032e-05,5.404e-05,-1.85372e-05,1.69498e-05
1198,-6.95635e-06,6.64658e-06,3.27511e-05,5.37398e-05,-1.70422e-05,1.88409e-05
1199,-1.28033e-05,1.1896e-05,2.97093e-05,5.39325e-05,-1.57884e-05,1.55911e-05
1200,-2.05213e-05,1.13394e-05,2.62895e-05,5.55032e-05,-1.28189e-05,1.19073e-05
1201,-1.59557e-05,8.28141e-06,2.65569e-05,5.48653e-05,-7.90047e-06,9.54509e-06
1202,-7.1481e-07,5.07126e-06,2.93915e-05,5.34749e-05,-4.66251e-06,1.18974e-05
1203,8.70391e-06,3.03663e-06,3.13523e-05,5.25785e-05,-3.21221e-06,1.5432e-05
1204,6.24082e-06,6.90286e-06,3.18661e-05,5.20041e-05,-3.17324e-06,1.73722e-05
1205,-4.00701e-06,1.58349e-05,2.94796e-05,5.44985e-05,-4.00168e-06,1.58393e-05
1206,-1.44912e-05,2.17043e-05,2.63611e-05,5.83573e-05,-4.88112e-06,1.30632e-05
1207,-1.29657e-05,2.15359e-05,2.92974e-05,5.91078e-05,-7.25753e-06,1.37076e-05
1208,4.13065e-07,1.76398e-05,3.65674e-05,5.43283e-05,-1.00128e-05,1.55785e-05
1209,8.81929e-06,1.45228e-05,4.16971e-05,4.74455e-05,-1.19552e-05,1.67414e-05
1210,3.74096e-06,1.59156e-05,4.33913e-05,4.59997e-05,-1.51569e-05,1.63643e-05
1211,-9.52012e-06,2.09252e-05,4.43212e-05,5.064e-05,-1.9717e-05,1.47554e-05
1212,-2.28833e-05,2.35123e-05,4.44651e-05,5.63151e-05,-2.26871e-05,1.3105e-05
1213,-2.31374e-05,1.94184e-05,4.21043e-05,5.82442e-05,-2.46932e-05,1.48083e-05
1214,-5.99887e-06,1.44959e-05,3.9532e-05,5.3717e-05,-2.63995e-05,1.73136e-05
1215,1.21837e-05,1.31783e-05,3.86466e-05,4.74822e-05,-2.43791e-05,1.73632e-05
1216,1.65463e-05,1.72871e-05,3.75452e-05,4.29433e-05,-2.04455e-05,1.47701e-05
1217,7.43067e-06,2.46753e-05,3.45371e-05,4.16368e-05,-1.82771e-05,1.16928e-05
1218,-1.35705e-05,2.45003e-05,2.93115e-05,4.45514e-05,-1.65677e-05,8.66671e-06
1219,-2.30586e-05,1.80385e-05,2.96349e-05,4.666e-05,-1.64222e-05,9.77972e-06
1220,-6.21637e-06,1.53846e-05,3.90607e-05,4.3045e-05,-1.75659e-05,1.26896e-05
1221,3.07296e-06,1.49928e-05,4.14011e-05,3.90069e-05,-1.81709e-05,1.11767e-05
1222,-8.6412e-07,1.31845e-05,3.54306e-05,4.06045e-05,-1.8572e-05,6.7222e-06
1223,-9.07437e-09,1.11454e-05,3.43502e-05,4.51744e-05,-2.20447e-05,4.79519e-06
1224,3.1587e-06,1.54123e-05,3.56313e-05,4.76409e-05,-2.6658e-05,4.76082e-06
1225,3.24588e-06,2.53729e-05,3.72604e-05,4.57362e-05,-3.01424e-05,6.01933e-06
1226,-8.33253e-06,3.23215e-05,3.67239e-05,4.4287e-05,-3.04703e-05,7.64682e-06
1227,-2.39965e-05,2.87089e-05,3.39764e-05,4.76793e-05,-2.76866e-05,7.64566e-06
1228,-2.44623e-05,1.92218e-05,3.27207e-05,5.1845e-05,-2.23672e-05,8.09902e-06
1229,-1.1602e-05,1.27839e-05,3.49624e-05,5.33316e-05,-1.5894e-05,9.91463e-06
1230,-2.0658e-06,1.17307e-05,3.79492e-05,5.0618e-05,-1.13902e-05,1.06453e-05
1231,-2.11303e-06,1.29848e-05,3.82371e-05,4.5447e-05,-6.7553e-06,1.07985e-05
1232,-1.35005e-05,1.35157e-05,3.61035e-05,4.36931e-05,-3.94062e-06,8.72468e-06
1233,-2.83371e-05,1.07493e-05,3.46258e-05,4.65577e-05,-5.54365e-06,4.97686e-06
1234,-3.28135e-05,7.09989e-06,3.72305e-05,4.80156e-05,-1.13805e-05,2.78698e-06
1235,-2.37493e-05,2.56545e-06,4.1425e-05,4.40596e-05,-1.44282e-05,3.53457e-06
1236,-1.22127e-05,-2.14899e-06,4.14678e-05,4.02794e-05,-1.25001e-05,6.23543e-06
1237,-9.28791e-06,-2.61712e-06,3.74845e-05,4.26762e-05,-1.001e-05,9.32877e-06
1238,-1.93502e-05,-4.03064e-07,3.2988e-05,4.85237e-05,-1.04255e-05,9.79152e-06
1239,-3.47956e-05,-2.46603e-06,3.1475e-05,5.09664e-05,-1.34909e-05,7.0152e-06
1240,-3.75031e-05,-8.23229e-06,3.71514e-05,4.88237e-05,-1.48912e-05,4.86583e-06
1241,-2.30579e-05,-9.79439e-06,4.48593e-05,4.63043e-05,-1.09561e-05,4.88605e-06
1242,-7.922e-06,-7.56026e-06,4.86678e-05,4.76717e-05,-7.97551e-06,5.68545e-06
1243,-2.42184e-06,4.35303e-07,4.46336e-05,4.9838e-05,-1.24402e-05,5.2965e-06
1244,-4.3864e-06,1.19336e-05,3.45404e-05,4.9312e-05,-1.9833e-05,9.26727e-06
1245,-1.77028e-05,1.78422e-05,2.76244e-05,4.79689e-05,-2.30891e-05,1.19667e-05
1246,-2.31993e-05,1.81129e-05,3.00906e-05,4.51342e-05,-2.25048e-05,1.05991e-05
1247,-7.22588e-07,2.50393e-05,3.63021e-05,4.37891e-05,-2.0796e-05,8.58625e-06
1248,6.83198e-06,3.84797e-05,3.38003e-05,4.41351e-05,-1.88241e-05,7.40338e-06
1249,-5.6262e-06,4.81422e-05,2.74836e-05,4.19835e-05,-1.64464e-05,7.66828e-06
1250,-5.17952e-06,4.91588e-05,2.70204e-05,4.27702e-05,-1.41604e-05,8.76588e-06
1251,-6.33001e-07,4.98197e-05,2.95036e-05,4.67533e-05,-1.78948e-05,1.0632e-05
1252,6.85922e-06,5.62637e-05,3.24715e-05,4.75701e-05,-1.94512e-05,1.20986e-05
1253,6.24528e-06,5.87163e-05,3.22131e-05,4.69725e-05,-1.5738e-05,1.1552e-05
1254,-4.04257e-06,5.22334e-05,2.90266e-05,4.8579e-05,-1.30931e-05,8.21032e-06
1255,-5.85468e-06,4.30149e-05,2.96475e-05,4.98013e-05,-1.37814e-05,4.95163e-06
1256,3.61389e-06,3.8561e-05,3.27619e-05,4.73247e-05,-1.33881e-05,3.46129e-06
1257,7.75556e-06,3.84778e-05,3.24353e-05,4.19252e-05,-9.1603e-06,3.16363e-06
1258,2.15094e-06,4.06836e-05,3.04915e-05,4.02701e-05,-6.08834e-06,3.90552e-06
1259,-9.668e-06,3.9422e-05,3.03825e-05,4.45333e-05,-5.75862e-06,3.87002e-06
1260,-1.92315e-05,3.17884e-05,3.33907e-05,4.84291e-05,-8.86218e-06,3.66107e-06
1261,-1.32237e-05,2.40245e-05,4.05871e-05,4.69551e-05,-1.20257e-05,5.12724e-06
1262,1.10083e-06,2.11217e-05,4.73234e-05,4.32757e-05,-1.10865e-05,6.29024e-06
1263,6.4977e-06,2.07132e-05,4.58934e-05,4.26635e-05,-5.38121e-06,5.30445e-06
1264,-7.15393e-07,2.04589e-05,3.64017e-05,4.45403e-05,-8.21356e-07,5.30916e-06
1265,-1.23591e-05,2.11462e-05,3.017e-05,4.6824e-05,-1.88899e-06,8.69534e-06
1266,-2.39473e-05,1.79592e-05,3.37811e-05,4.97998e-05,-5.80201e-06,1.26667e-05
1267,-2.26325e-05,1.078e-05,4.12876e-05,5.1695e-05,-6.81834e-06,1.37727e-05
1268,-8.25194e-06,5.72073e-06,4.43943e-05,4.80589e-05,-3.29926e-06,1.2378e-05
1269,3.94845e-07,4.97619e-06,4.15861e-05,4.32128e-05,2.05124e-07,1.18448e-05
1270,-4.45837e-06,5.72237e-06,3.59363e-05,4.18591e-05,1.36201e-06,1.24478e-05
1271,-1.54183e-05,9.53106e-06,3.31529e-05,4.10445e-05,-6.02521e-08,1.31695e-05
1272,-2.99228e-05,1.07002e-05,3.29099e-05,4.10257e-05,-3.67022e-06,1.41655e-05
1273,-2.9824e-05,7.98202e-06,3.60101e-05,4.3079e-05,-1.02655e-05,1.65387e-05
1274,-9.06162e-06,8.11408e-06,4.05237e-05,4.69413e-05,-1.40518e-05,1.98621e-05
1275,-7.77501e-08,1.05088e-05,3.84922e-05,4.93294e-05,-1.18704e-05,2.03833e-05
1276,-1.39786e-06,1.30355e-05,3.4892e-05,5.03547e-05,-7.97892e-06,2.12676e-05
1277,3.50456e-06,1.17284e-05,3.22568e-05,5.16403e-05,-4.06899e-06,2.31856e-05
1278,6.18283e-06,1.15673e-05,2.7377e-05,5.04143e-05,-4.70513e-06,2.32475e-05
1279,1.05918e-05,1.79546e-05,2.71327e-05,4.89917e-05,-8.41525e-06,2.48259e-05
1280,7.42056e-06,2.27882e-05,2.86188e-05,5.15661e-05,-1.042e-05,2.51753e-05
1281,-3.61779e-06,1.90739e-05,2.91749e-05,5.69425e-05,-9.84269e-06,2.36792e-05
1282,-5.06565e-06,1.39663e-05,3.55825e-05,5.86144e-05,-1.02e-05,2.04938e-05
1283,5.73585e-06,1.06446e-05,4.58405e-05,5.68001e-05,-1.07881e-05,1.79078e-05
1284,1.37974e-05,9.72479e-06,5.38063e-05,5.48032e-05,-9.45213e-06,1.67654e-05
1285,6.95465e-06,1.16316e-05,5.49895e-05,5.43594e-05,-6.13054e-06,1.52263e-05
1286,-1.12775e-05,1.00876e-05,5.18183e-05,5.6833e-05,-3.37914e-06,1.33037e-05
1287,-2.58559e-05,2.4865e-07,4.93352e-05,6.11483e-05,-8.92881e-07,1.1509e-05
1288,-2.37703e-05,-1.00701e-05,5.23918e-05,6.30847e-05,2.69284e-06,1.12734e-05
1289,-1.27797e-05,-1.31551e-05,5.79016e-05,6.12397e-05,4.93362e-06,1.34982e-05
1290,-9.32281e-06,-1.10485e-05,5.92686e-05,5.94403e-05,3.49798e-06,1.64884e-05
1291,-1.61511e-05,-8.62302e-06,5.62369e-05,5.76846e-05,-5.53603e-07,1.86733e-05
1292,-2.43619e-05,-7.48383e-06,5.10269e-05,5.61197e-05,-2.50015e-06,1.86631e-05
1293,-3.02049e-05,-9.05702e-06,4.78443e-05,5.88614e-05,-2.28476e-06,1.65648e-05
1294,-2.41868e-05,-1.32921e-05,5.30555e-05,6.32929e-05,-2.37022e-06,1.73994e-05
1295,-9.15281e-06,-1.52749e-05,6.16512e-05,6.06815e-05,-5.40925e-06,2.15713e-05
1296,-5.0667e-07,-1.29254e-05,6.3392e-05,5.45019e-05,-8.44466e-06,2.46112e-05
1297,-1.8803e-07,-5.90649e-06,5.87442e-05,4.90768e-05,-1.07882e-05,2.35611e-05
1298,-6.21972e-06,2.29587e-06,5.08539e-05,4.82404e-05,-1.04234e-05,2.00647e-05
1299,-2.08826e-05,2.67278e-06,4.67873e-05,5.38061e-05,-8.38351e-06,1.40193e-05
1300,-2.76068e-05,-2.59988e-06,4.84249e-05,5.67544e-05,-1.15166e-05,8.87071e-06
1301,-1.53683e-05,-1.61803e-06,4.97518e-05,5.2693e-05,-1.34313e-05,7.45326e-06
1302,-6.32917e-06,4.69862e-06,4.74149e-05,4.78912e-05,-8.93778e-06,5.39986e-06
1303,-5.09608e-06,9.74362e-06,4.43533e-05,4.63067e-05,-6.24274e-06,2.41927e-06
1304,-2.88467e-06,1.02918e-05,4.38807e-05,4.53471e-05,-4.77468e-06,2.15289e-06
1305,-4.24718e-06,1.28972e-05,4.65012e-05,4.43821e-05,-4.44452e-06,3.45361e-06
1306,-6.62192e-06,2.0093e-05,4.4271e-05,4.29073e-05,-5.56887e-06,5.10391e-06
1307,-1.5152e-05,2.33478e-05,3.74298e-05,4.39764e-05,-2.96062e-06,7.6268e-06
1308,-2.50779e-05,1.75625e-05,3.3023e-05,4.47827e-05,-1.69611e-06,1.05771e-05
1309,-1.98326e-05,1.15224e-05,3.3378e-05,4.33131e-05,-4.81837e-06,1.38907e-05
1310,-2.51831e-06,5.70657e-06,3.75095e-05,4.30419e-05,-6.03661e-06,1.53433e-05
1311,8.19301e-06,-8.03178e-07,3.7025e-05,4.47433e-05,-4.20027e-06,1.46874e-05
1312,4.98945e-06,1.17957e-07,3.2186e-05,4.57256e-05,-2.33486e-06,1.3079e-05
1313,-1.14947e-05,5.44186e-06,2.62425e-05,4.54008e-05,-1.66253e-06,1.1259e-05
1314,-2.99854e-05,7.1437e-06,2.48735e-05,4.67665e-05,-1.69641e-06,1.01314e-05
1315,-3.31007e-05,5.66609e-06,3.13173e-05,4.72372e-05,-1.24522e-06,1.13766e-05
1316,-1.98629e-05,4.6314e-06,3.91137e-05,4.65482e-05,-4.52867e-07,1.44768e-05
1317,-8.55033e-06,6.06439e-06,3.92902e-05,4.77407e-05,-1.00353e-07,1.57673e-05
1318,-8.46216e-06,1.12898e-05,3.54834e-05,5.13545e-05,-3.4108e-07,1.57855e-05
1319,-1.78685e-05,1.54842e-05,3.38688e-05,5.53662e-05,5.43713e-08,1.53893e-05
1320,-3.09934e-05,1.58899e-05,3.33816e-05,5.84057e-05,1.09219e-06,1.38353e-05
1321,-3.01597e-05,1.75497e-05,3.55416e-05,5.76124e-05,2.37717e-06,1.21584e-05
1322,-1.19523e-05,2.33852e-05,3.94104e-05,5.29712e-05,6.16298e-06,1.36602e-05
1323,3.37461e-06,2.89127e-05,3.90351e-05,4.89703e-05,1.40506e-05,1.78438e-05
1324,4.46663e-06,3.29124e-05,3.25044e-05,4.68783e-05,1.88345e-05,2.26836e-05
1325,-7.10896e-07,3.35256e-05,2.58022e-05,4.66773e-05,1.68613e-05,2.46117e-05
1326,-1.45767e-05,2.73206e-05,2.22992e-05,4.84578e-05,1.17763e-05,2.139e-05
1327,-2.05136e-05,2.05522e-05,2.5784e-05,4.69989e-05,6.12722e-06,1.97e-05
1328,-4.01663e-06,1.89802e-05,3.11475e-05,4.40774e-05,1.91229e-06,2.19052e-05
1329,6.30331e-06,1.83794e-05,3.1839e-05,4.03092e-05,1.76232e-06,2.31947e-05
1330,-1.65137e-06,1.48203e-05,3.50864e-05,4.02451e-05,3.80531e-06,2.33652e-05
1331,-9.62958e-06,1.01725e-05,3.73533e-05,4.62996e-05,-5.17088e-07,2.38399e-05
1332,-1.23799e-05,9.06398e-06,3.50774e-05,5.14114e-05,-7.00855e-06,2.42841e-05
1333,-1.01612e-05,1.30509e-05,3.17486e-05,5.2533e-05,-8.28595e-06,2.50583e-05
1334,-1.62162e-05,1.47555e-05,2.93843e-05,5.17404e-05,-8.19323e-06,2.3597e-05
1335,-2.98948e-05,7.08806e-06,2.91379e-05,5.397e-05,-8.444e-06,2.14181e-05
1336,-2.78627e-05,8.93247e-07,3.05511e-05,5.3865e-05,-7.98392e-06,1.94117e-05
1337,-9.36462e-06,-1.67169e-06,3.2128e-05,5.18157e-05,-7.2801e-06,1.58674e-05
1338,4.22881e-06,-1.27726e-06,2.95344e-05,5.0641e-05,-8.91194e-06,1.35099e-05
1339,2.90276e-06,2.77605e-06,2.85987e-05,5.3099e-05,-1.32991e-05,1.44683e-05
1340,-1.03154e-05,6.85399e-06,2.80745e-05,5.7669e-05,-1.84346e-05,1.64381e-05
1341,-2.41763e-05,8.33678e-06,2.581e-05,6.12392e-05,-1.93941e-05,1.66572e-05
1342,-2.27607e-05,1.27321e-05,2.64708e-05,6.11436e-05,-1.665e-05,1.65495e-05
1343,-7.22616e-06,2.0984e-05,3.01087e-05,5.73813e-05,-1.3963e-05,1.68297e-05
1344,5.45693e-06,2.73098e-05,3.16942e-05,5.50166e-05,-1.40234e-05,1.54475e-05
1345,6.15369e-06,3.05429e-05,3.05635e-05,5.46589e-05,-1.68599e-05,1.28591e-05
1346,-2.1987e-06,2.85212e-05,2.77979e-05,5.42995e-05,-1.97431e-05,1.09745e-05
1347,-1.37878e-05,2.11324e-05,2.33485e-05,5.30797e-05,-2.15154e-05,9.54394e-06
1348,-1.33155e-05,1.15866e-05,2.25887e-05,5.42771e-05,-2.34405e-05,8.44578e-06
1349,1.41575e-07,7.88515e-06,2.68184e-05,5.90929e-05,-2.3662e-05,7.92193e-06
1350,7.36314e-06,1.16276e-05,2.57742e-05,6.22502e-05,-1.99797e-05,9.82855e-06
1351,7.20756e-07,1.93877e-05,1.84493e-05,5.89249e-05,-1.49518e-05,1.17512e-05
1352,-1.40043e-05,2.37051e-05,1.57335e-05,5.32987e-05,-1.48143e-05,9.0752e-06
1353,-3.28232e-05,1.87875e-05,1.55314e-05,5.13369e-05,-1.98432e-05,3.46203e-06
1354,-3.72806e-05,9.78671e-06,2.00405e-05,5.3252e-05,-2.35067e-05,1.72419e-06
1355,-1.90544e-05,9.08289e-06,2.94848e-05,5.77812e-05,-2.69705e-05,5.69661e-06
1356,-7.21406e-06,1.43614e-05,2.80604e-05,5.78302e-05,-2.46179e-05,9.37273e-06
1357,-6.5012e-06,1.49883e-05,1.95948e-05,5.43608e-05,-1.48031e-05,1.202e-05
1358,-3.94834e-06,8.9257e-06,1.64269e-05,5.33143e-05,-6.33287e-06,1.30739e-05
1359,1.63847e-06,4.02282e-06,1.65527e-05,4.8487e-05,-6.29804e-06,1.2296e-05
1360,8.99981e-06,6.14969e-06,1.99599e-05,4.36302e-05,-8.32516e-06,1.06579e-05
1361,6.79994e-06,1.01778e-05,1.95291e-05,4.18992e-05,-6.86398e-06,8.16034e-06
1362,-2.50087e-06,9.29192e-06,1.77639e-05,4.56801e-05,-5.98615e-06,7.75212e-06
1363,-4.4465e-07,7.13815e-06,1.9774e-05,5.05213e-05,-3.83194e-06,9.55104e-06
1364,1.40921e-05,5.3549e-06,2.46517e-05,5.00935e-05,-6.93848e-07,1.02494e-05
1365,2.5137e-05,5.07925e-06,2.91508e-05,4.46374e-05,1.97321e-06,7.86231e-06
1366,3.07585e-05,7.39875e-06,3.0482e-05,3.91249e-05,2.70299e-06,4.97046e-06
1367,2.46188e-05,1.1059e-05,2.77458e-05,3.84537e-05,-2.27108e-07,3.72763e-06
1368,7.29304e-06,1.15165e-05,2.29413e-05,4.23648e-05,-5.38827e-06,3.19604e-06
1369,-3.84193e-06,1.01301e-05,2.33176e-05,4.78132e-05,-9.46638e-06,3.16922e-06
1370,2.40001e-06,1.09173e-05,2.76693e-05,5.01124e-05,-1.0798e-05,3.34625e-06
1371,1.29345e-05,1.32074e-05,3.27951e-05,5.01333e-05,-9.39458e-06,4.29703e-06
1372,1.35479e-05,1.51415e-05,3.84649e-05,5.01246e-05,-6.29569e-06,6.8961e-06
1373,3.82376e-06,1.52236e-05,4.29707e-05,4.98025e-05,-2.84804e-06,9.09948e-06
1374,-1.10346e-05,1.18574e-05,4.47814e-05,4.60169e-05,7.40554e-08,8.83643e-06
1375,-1.50188e-05,7.43041e-06,4.83333e-05,4.16114e-05,1.40142e-06,7.62326e-06
1376,-3.75421e-06,6.43065e-06,5.21312e-05,4.05321e-05,4.74592e-07,9.18736e-06
1377,6.55606e-06,6.28281e-06,5.03726e-05,4.22939e-05,-1.44148e-06,1.07464e-05
1378,6.14698e-06,7.72527e-06,4.4586e-05,4.28166e-05,-3.98324e-06,8.4557e-06
1379,-2.20831e-06,6.01139e-06,4.1937e-05,4.41398e-05,-5.48633e-06,5.16813e-06
1380,-2.03662e-05,-2.66382e-08,4.45331e-05,4.71994e-05,-2.90176e-06,4.06738e-06
1381,-2.76781e-05,-4.32817e-06,5.25193e-05,4.93083e-05,2.78832e-06,5.5489e-06
1382,-1.41439e-05,-3.23896e-06,5.75259e-05,4.99526e-05,7.54769e-06,9.278e-06
1383,-8.56399e-06,1.01751e-06,5.39822e-05,4.95191e-05,5.65504e-06,1.42438e-05
1384,-1.5211e-05,7.62273e-06,5.46113e-05,4.92331e-05,1.06593e-07,1.68807e-05
1385,-2.32085e-05,1.24369e-05,5.43665e-05,4.96935e-05,-1.65935e-06,1.71403e-05
1386,-3.11908e-05,1.3155e-05,5.05784e-05,4.91562e-05,-2.55748e-06,1.5888e-05
1387,-3.68191e-05,1.46708e-05,5.17689e-05,4.82827e-05,-3.90955e-06,1.2979e-05
1388,-4.58891e-05,1.36517e-05,5.37447e-05,4.72972e-05,-1.49651e-06,9.50733e-06
1389,-5.2521e-05,8.2393e-06,5.57738e-05,4.71732e-05,3.85897e-06,7.20969e-06
1390,-4.35459e-05,5.96108e-06,5.87965e-05,4.77933e-05,8.84809e-06,9.7561e-06
1391,-2.48113e-05,8.18491e-06,6.02453e-05,4.70232e-05,9.67108e-06,1.48063e-05
1392,-1.45677e-05,1.23678e-05,5.70253e-05,4.61222e-05,6.46517e-06,1.62428e-05
1393,-1.33909e-05,1.49323e-05,5.41114e-05,4.63362e-05,1.9534e-06,1.3713e-05
1394,-1.79883e-05,1.42047e-05,5.04108e-05,4.68325e-05,-9.99552e-07,1.0456e-05
1395,-2.4032e-05,9.73814e-06,4.72838e-05,4.98009e-05,-3.43084e-06,8.48252e-06
1396,-2.26711e-05,4.49408e-06,4.88343e-05,5.51393e-05,-7.90636e-06,7.45164e-06
1397,-1.28173e-05,3.39799e-06,5.22153e-05,5.72931e-05,-1.1236e-05,7.81826e-06
1398,-4.52971e-06,8.54088e-06,5.01852e-05,5.51821e-05,-1.13407e-05,1.01735e-05
1399,-3.26288e-06,1.51212e-05,4.45907e-05,5.25623e-05,-1.01936e-05,1.38216e-05
1400,-8.69543e-06,1.87037e-05,4.17023e-05,5.53323e-05,-1.02479e-05,1.62964e-05
1401,-1.78756e-05,2.04463e-05,4.10892e-05,6.18092e-05,-1.26447e-05,1.35875e-05
1402,-1.8125e-05,2.25377e-05,4.46292e-05,6.5576e-05,-1.65995e-05,9.08798e-06
1403,-2.89504e-06,2.50094e-05,5.27526e-05,6.30845e-05,-1.70508e-05,8.68804e-06
1404,1.32162e-05,2.58722e-05,5.92903e-05,5.67361e-05,-1.64801e-05,1.04134e-05
1405,1.59271e-05,2.66569e-05,5.83471e-05,5.09414e-05,-2.07753e-05,1.07088e-05
1406,6.38042e-06,2.67987e-05,5.23544e-05,5.00461e-05,-2.61421e-05,8.27609e-06
1407,-1.5507e-05,2.12647e-05,4.28437e-05,5.23219e-05,-2.85539e-05,7.11939e-06
1408,-2.52589e-05,1.0185e-05,3.969e-05,5.33382e-05,-2.97549e-05,1.01013e-05
1409,-8.12638e-06,7.55621e-07,4.47453e-05,5.31166e-05,-3.22656e-05,1.40903e-05
1410,4.48868e-06,-3.63738e-06,4.7445e-05,5.05001e-05,-3.47334e-05,1.22328e-05
1411,4.70951e-06,-2.8011e-06,4.50383e-05,4.92014e-05,-3.52366e-05,8.72663e-06
1412,6.55312e-06,-3.69866e-07,4.40134e-05,4.92685e-05,-3.5485e-05,9.43567e-06
1413,7.88312e-06,3.75021e-06,4.40237e-05,4.6643e-05,-3.58747e-05,9.30497e-06
1414,9.02999e-06,1.1149e-05,4.48674e-05,4.26251e-05,-3.4741e-05,9.23365e-06
1415,2.30057e-06,1.73846e-05,4.27826e-05,4.37164e-05,-2.94609e-05,8.99634e-06
1416,-9.19073e-06,2.13009e-05,3.66909e-05,5.19142e-05,-2.21863e-05,9.95464e-06
1417,-6.59298e-06,2.85268e-05,3.41341e-05,5.65955e-05,-1.87119e-05,1.16616e-05
1418,7.15246e-06,3.33579e-05,3.42998e-05,5.66094e-05,-1.9474e-05,1.09245e-05
1419,1.52432e-05,3.56537e-05,3.54886e-05,5.31719e-05,-2.34253e-05,8.37714e-06
1420,1.51507e-05,3.95342e-05,3.64507e-05,4.98946e-05,-2.99762e-05,6.2173e-06
1421,6.48623e-06,4.14983e-05,3.56193e-05,5.24644e-05,-3.68031e-05,4.85211e-06
1422,-4.33789e-06,3.64798e-05,3.51797e-05,5.68369e-05,-3.97697e-05,5.74518e-06
1423,-3.34885e-06,2.76889e-05,3.92102e-05,5.58348e-05,-3.74269e-05,8.83075e-06
1424,9.6009e-06,2.13701e-05,4.56178e-05,5.01983e-05,-3.17829e-05,1.17047e-05
1425,1.87986e-05,1.84028e-05,4.85336e-05,4.74438e-05,-2.68379e-05,1.2942e-05
1426,1.77044e-05,1.68244e-05,4.61386e-05,4.72551e-05,-2.528e-05,1.3014e-05
1427,7.97902e-06,1.49617e-05,3.87556e-05,4.61868e-05,-2.54087e-05,1.08095e-05
1428,-7.57155e-06,1.24626e-05,3.08656e-05,4.71815e-05,-2.43578e-05,7.43679e-06
1429,-1.27154e-05,1.00714e-05,2.95817e-05,5.2249e-05,-2.06909e-05,7.33214e-06
1430,-1.29913e-06,1.12751e-05,3.42522e-05,5.65618e-05,-1.5578e-05,1.0414e-05
1431,1.13061e-05,1.26461e-05,3.84225e-05,5.81392e-05,-1.34531e-05,1.21851e-05
1432,1.42512e-05,1.24207e-05,3.68958e-05,5.64756e-05,-1.56094e-05,9.71174e-06
1433,5.41075e-06,1.12362e-05,3.36268e-05,5.36025e-05,-1.84693e-05,6.63266e-06
1434,-1.61165e-05,6.66491e-06,3.11292e-05,5.309e-05,-2.02761e-05,5.4434e-06
1435,-2.47141e-05,8.70065e-07,3.31799e-05,5.20631e-05,-2.31279e-05,4.68818e-06
1436,-7.93979e-06,1.38057e-06,4.02132e-05,4.93986e-05,-2.29434e-05,8.0997e-06
1437,1.82846e-06,6.32902e-06,3.76429e-05,4.68323e-05,-1.8815e-05,1.48024e-05
1438,-1.68442e-06,8.2314e-06,2.76567e-05,4.73536e-05,-1.56811e-05,1.61877e-05
1439,-2.00564e-06,5.03946e-06,2.39771e-05,4.94306e-05,-1.51422e-05,1.50241e-05
1440,3.09131e-06,4.45308e-06,2.86047e-05,4.81644e-05,-1.54076e-05,1.36988e-05
1441,8.40473e-06,1.06848e-05,3.34101e-05,4.61928e-05,-1.37483e-05,1.43655e-05
1442,8.67587e-07,1.64343e-05,3.21794e-05,4.44377e-05,-1.19055e-05,1.52798e-05
1443,-1.29198e-05,1.54385e-05,2.87585e-05,4.50491e-05,-7.53382e-06,1.48151e-05
1444,-1.28086e-05,1.03392e-05,2.84556e-05,4.6111e-05,-3.14193e-06,1.17447e-05
1445,-6.81317e-07,5.04622e-06,3.12511e-05,4.82294e-05,2.45484e-07,9.97037e-06
1446,6.6288e-06,4.2837e-06,3.29059e-05,5.03132e-05,2.49219e-06,9.97087e-06
1447,7.62836e-06,9.80861e-06,3.41038e-05,5.11514e-05,3.63236e-06,9.5004e-06
1448,2.88201e-07,1.75113e-05,3.26886e-05,5.06253e-05,5.39353e-06,9.44531e-06
1449,-1.09745e-05,1.9435e-05,2.85775e-05,4.99114e-05,6.30543e-06,1.08467e-05
1450,-1.08489e-05,1.64529e-05,2.8766e-05,5.05628e-05,6.30501e-06,1.3579e-05
1451,2.74096e-06,1.49959e-05,3.41736e-05,5.07366e-05,7.13115e-06,1.5998e-05
1452,1.2895e-05,1.70848e-05,3.96957e-05,5.07466e-05,1.03079e-05,1.89936e-05
1453,9.18102e-06,1.99471e-05,4.25212e-05,4.9248e-05,1.31614e-05,2.09643e-05
1454,-6.35457e-06,1.82912e-05,4.17644e-05,4.79164e-05,1.46409e-05,2.08335e-05
1455,-2.6312e-05,1.16107e-05,3.91508e-05,4.78561e-05,1.42003e-05,1.91682e-05
1456,-3.0485e-05,5.84748e-06,3.99438e-05,4.89502e-05,1.12904e-05,1.90325e-05
1457,-1.58987e-05,3.12151e-06,4.55355e-05,5.23703e-05,8.23985e-06,2.10978e-05
1458,-4.0865e-06,-2.41227e-07,4.59572e-05,5.70169e-05,6.97764e-06,2.57244e-05
1459,-6.46198e-06,-4.1234e-07,3.8698e-05,5.59851e-05,3.68097e-06,2.93011e-05
1460,-1.63782e-05,3.81303e-06,2.99499e-05,5.34189e-05,-3.2092e-06,2.79257e-05
1461,-3.1135e-05,4.10976e-06,2.52829e-05,5.31354e-05,-1.1464e-05,2.35416e-05
1462,-3.46159e-05,-1.6247e-06,2.85108e-05,5.45111e-05,-1.97155e-05,2.2236e-05
1463,-1.49966e-05,-3.45996e-06,3.40214e-05,5.60307e-05,-2.22179e-05,2.12443e-05
1464,-7.78322e-07,-5.11957e-07,3.47318e-05,5.11304e-05,-2.09355e-05,1.96922e-05
1465,3.73707e-06,3.99173e-06,3.25316e-05,4.35201e-05,-2.24028e-05,1.88321e-05
1466,1.02799e-05,8.73807e-06,3.16897e-05,4.34733e-05,-2.32374e-05,2.00847e-05
1467,1.10566e-05,1.53434e-05,2.73486e-05,4.81487e-05,-2.16426e-05,2.01391e-05
1468,7.83154e-06,2.35501e-05,2.24576e-05,5.07017e-05,-1.70469e-05,1.84549e-05
1469,-1.95162e-06,2.79138e-05,1.79056e-05,4.98768e-05,-1.3862e-05,1.72864e-05
1470,-1.1449e-05,2.59128e-05,1.45724e-05,5.01147e-05,-1.43377e-05,1.58134e-05
1471,-2.26975e-06,2.21529e-05,1.7019e-05,5.08343e-05,-1.68213e-05,1.40802e-05
1472,1.98606e-05,2.00325e-05,2.27334e-05,4.90395e-05,-1.64942e-05,1.21951e-05
1473,3.06528e-05,1.92667e-05,2.27099e-05,4.60575e-05,-1.22636e-05,1.11104e-05
1474,2.5791e-05,2.10165e-05,1.79449e-05,4.53956e-05,-9.06355e-06,9.80434e-06
1475,1.19251e-05,2.33205e-05,1.65206e-05,4.86844e-05,-9.16206e-06,7.72771e-06
1476,-8.47705e-07,2.11553e-05,1.82145e-05,5.01442e-05,-8.92619e-06,4.90549e-06
1477,-3.00607e-06,1.59278e-05,2.17877e-05,4.90817e-05,-6.67271e-06,5.06438e-06
1478,3.24235e-06,1.23918e-05,2.56208e-05,4.66997e-05,-5.77877e-06,5.7701e-06
1479,4.32645e-06,1.06288e-05,2.64923e-05,4.33852e-05,-3.19894e-06,4.22084e-06
1480,-2.66729e-06,1.12661e-05,2.33236e-05,3.9621e-05,4.27696e-06,1.94177e-06
1481,-1.45749e-05,1.53003e-05,2.16403e-05,3.75795e-05,1.22717e-05,6.85364e-07
1482,-2.92758e-05,1.81085e-05,2.20315e-05,3.89853e-05,1.40134e-05,-2.12022e-07
1483,-3.21726e-05,1.57298e-05,2.55028e-05,4.31531e-05,1.26443e-05,1.65878e-07
1484,-1.74421e-05,1.0049e-05,3.05366e-05,4.62769e-05,1.14855e-05,1.04113e-06
1485,-5.1843e-07,6.59245e-06,3.33088e-05,4.78862e-05,1.03313e-05,1.48783e-06
1486,6.29557e-06,9.53128e-06,3.45787e-05,4.78889e-05,9.25588e-06,2.39032e-06
1487,3.89824e-06,1.2574e-05,3.747e-05,4.63314e-05,1.01513e-05,3.4061e-06
1488,-1.21187e-05,9.13823e-06,4.27373e-05,4.53658e-05,9.41709e-06,4.36634e-06
1489,-2.0318e-05,1.5816e-06,4.9959e-05,4.52823e-05,5.98006e-06,5.59285e-06
1490,-2.49179e-06,-4.00068e-06,5.55433e-05,4.53531e-05,5.77988e-06,1.06478e-05
1491,7.70134e-06,-2.43738e-06,5.4476e-05,4.63868e-05,6.8109e-06,1.83342e-05
1492,1.22794e-06,9.54919e-07,5.00604e-05,4.84224e-05,6.34233e-06,1.86939e-05
1493,-2.38754e-06,3.37978e-07,4.50648e-05,5.02501e-05,8.2044e-06,1.39202e-05
1494,-3.6517e-06,-1.30068e-06,3.97993e-05,5.0827e-05,1.49749e-05,1.24962e-05
1495,-5.47874e-06,1.93741e-06,3.65619e-05,5.01102e-05,2.18229e-05,1.10672e-05
1496,-1.43891e-05,8.84829e-06,3.67806e-05,5.22845e-05,1.96029e-05,9.12602e-06
1497,-2.68617e-05,8.60408e-06,3.88454e-05,5.60761e-05,1.28142e-05,7.29128e-06
1498,-2.58248e-05,3.63684e-06,4.32549e-05,5.82636e-05,9.7282e-06,5.83176e-06
1499,-1.32525e-05,6.34541e-08,4.64345e-05,5.77981e-05,6.00689e-06,6.17966e-06
1500,-6.00087e-06,2.81901e-06,4.39976e-05,5.61151e-05,-2.48192e-07,5.61153e-06
1501,-5.62764e-06,8.80582e-06,3.99576e-05,5.32122e-05,-2.98475e-06,5.37809e-06
1502,-1.22149e-05,1.03265e-05,3.56761e-05,5.04954e-05,-1.44065e-06,6.03688e-06
1503,-2.18564e-05,7.52542e-06,3.43056e-05,5.12589e-05,1.79271e-07,6.6545e-06
1504,-2.43707e-05,7.46467e-06,3.88447e-05,5.38697e-05,-2.0456e-06,7.33789e-06
1505,-1.72407e-05,9.05093e-06,4.48871e-05,5.67278e-05,-6.85736e-06,7.05484e-06
1506,-1.1537e-05,9.27548e-06,4.74428e-05,5.75195e-05,-1.04216e-05,5.19467e-06
1507,-1.52653e-05,1.08021e-05,4.60565e-05,5.57885e-05,-1.09205e-05,2.44748e-06
1508,-2.88473e-05,1.3082e-05,4.00664e-05,5.48615e-05,-8.7293e-06,2.77925e-07
1509,-4.45146e-05,1.35588e-05,3.26084e-05,5.54773e-05,-5.65755e-06,7.00166e-07
1510,-4.72042e-05,1.19402e-05,3.17787e-05,5.57745e-05,-4.13505e-06,5.03553e-06
1511,-3.56895e-05,1.06205e-05,3.38913e-05,5.65574e-05,-6.13429e-06,9.33734e-06
1512,-2.54115e-05,1.05937e-05,3.12301e-05,5.80929e-05,-8.4005e-06,8.74674e-06
1513,-2.57616e-05,1.30636e-05,2.74207e-05,5.58347e-05,-7.65999e-06,5.48013e-06
1514,-3.3775e-05,1.50418e-05,2.78208e-05,5.10525e-05,-5.56046e-06,4.96453e-06
1515,-4.60717e-05,1.13105e-05,2.93484e-05,5.18229e-05,-6.78992e-06,5.14093e-06
1516,-4.14949e-05,2.54901e-06,3.15574e-05,5.40675e-05,-1.06643e-05,5.56484e-06
1517,-1.87019e-05,-9.47952e-07,3.44325e-05,5.11629e-05,-1.48222e-05,8.10301e-06
1518,-1.06392e-05,1.71206e-06,3.46853e-05,4.86719e-05,-1.72393e-05,8.06947e-06
1519,-1.17085e-05,3.79378e-06,3.50087e-05,4.82335e-05,-1.85935e-05,5.87445e-06
1520,-1.30786e-05,7.20147e-07,3.69199e-05,4.53406e-05,-1.73443e-05,6.22932e-06
1521,-2.19811e-05,1.02568e-06,3.63436e-05,4.27474e-05,-1.33915e-05,1.00735e-05
1522,-2.86117e-05,1.01123e-05,3.22846e-05,4.25208e-05,-1.18061e-05,1.3857e-05
1523,-3.75348e-05,1.7753e-05,2.53381e-05,4.62077e-05,-1.31641e-05,1.47956e-05
1524,-4.68592e-05,1.41514e-05,2.23299e-05,5.25325e-05,-1.80371e-05,1.22473e-05
1525,-4.29635e-05,5.29507e-06,2.71378e-05,5.2981e-05,-2.23704e-05,1.05015e-05
1526,-2.89525e-05,5.0683e-08,3.26415e-05,4.82821e-05,-2.07403e-05,1.47761e-05
1527,-2.0015e-05,1.88059e-06,3.56872e-05,4.59763e-05,-2.0199e-05,1.99549e-05
1528,-1.80053e-05,1.10633e-05,3.67643e-05,4.75411e-05,-2.4254e-05,2.24283e-05
1529,-2.54257e-05,1.96794e-05,3.5018e-05,4.93286e-05,-2.81362e-05,1.95369e-05
1530,-3.53995e-05,2.07979e-05,3.35005e-05,4.93837e-05,-2.77209e-05,1.58043e-05
1531,-3.36364e-05,1.94333e-05,3.73814e-05,4.88785e-05,-2.42306e-05,1.55479e-05
1532,-1.80653e-05,2.47353e-05,4.30852e-05,4.8433e-05,-2.02486e-05,1.83081e-05
1533,-3.48739e-06,3.72518e-05,4.5307e-05,4.73181e-05,-1.71876e-05,1.94071e-05
1534,-7.70986e-07,4.76781e-05,4.45805e-05,4.6281e-05,-1.8133e-05,1.68307e-05
1535,-8.48464e-06,4.77784e-05,4.12805e-05,4.66615e-05,-2.26923e-05,1.44934e-05
1536,-2.02336e-05,3.75618e-05,3.72315e-05,4.68048e-05,-2.58119e-05,1.33572e-05
1537,-1.86922e-05,2.46022e-05,3.86439e-05,4.56382e-05,-2.54874e-05,1.58299e-05
1538,8.99636e-08,1.78275e-05,4.2144e-05,4.36797e-05,-2.36055e-05,2.05387e-05
1539,1.51751e-05,1.63637e-05,4.04483e-05,4.01818e-05,-1.98114e-05,2.19284e-05
1540,1.30999e-05,1.71263e-05,3.77923e-05,3.76299e-05,-1.50905e-05,1.84503e-05
1541,2.56124e-07,2.06764e-05,3.63673e-05,3.54055e-05,-1.38006e-05,1.5709e-05
1542,-1.84897e-05,2.26822e-05,3.63144e-05,3.37192e-05,-1.35864e-05,1.45344e-05
1543,-2.44902e-05,2.04669e-05,4.2396e-05,3.2213e-05,-1.14436e-05,1.40603e-05
1544,-7.86456e-06,2.07802e-05,4.63062e-05,3.39171e-05,-1.25385e-05,1.44103e-05
1545,3.70093e-06,2.11206e-05,4.21415e-05,4.08778e-05,-1.92524e-05,1.28153e-05
1546,-1.53928e-07,2.24715e-05,3.95238e-05,4.48686e-05,-2.72474e-05,1.37508e-05
1547,-7.10472e-06,2.07205e-05,3.77425e-05,4.31148e-05,-2.78869e-05,1.73918e-05
1548,-1.459e-05,1.40355e-05,3.24716e-05,3.83227e-05,-2.24312e-05,1.79815e-05
1549,-1.4832e-05,8.70721e-06,2.75063e-05,3.61999e-05,-1.65322e-05,1.81953e-05
1550,-1.96548e-05,4.78752e-06,2.51822e-05,3.50652e-05,-1.69774e-05,1.74085e-05
