Time_Index,DELTOID_Affected,DELTOID_NonAffected,BICEPS_Affected,BICEPS_NonAffected,FOREARM_Affected,FOREARM_NonAffected
1,-1.11277e-05,1.00006e-05,3.92501e-05,5.04572e-05,-1.61092e-06,2.35905e-05
2,-1.06276e-05,1.69005e-05,3.75435e-05,4.83617e-05,-3.50196e-06,2.32427e-05
3,-1.07921e-05,1.92452e-05,3.09863e-05,4.56618e-05,-6.24328e-06,2.18259e-05
4,-1.67177e-05,1.48239e-05,2.44852e-05,4.50124e-05,-8.65835e-06,2.02774e-05
5,-1.86842e-05,1.03381e-05,2.39772e-05,4.37663e-05,-7.45624e-06,1.96697e-05
6,-1.03339e-05,1.077e-05,2.887e-05,3.93887e-05,-2.4105e-06,1.86867e-05
7,-3.36704e-06,1.74649e-05,3.33315e-05,3.46648e-05,3.0267e-06,1.60004e-05
8,-5.86982e-06,2.65828e-05,3.44549e-05,3.37716e-05,3.14298e-06,1.26895e-05
9,-1.60148e-05,3.04186e-05,3.28519e-05,3.58791e-05,-2.21438e-06,1.1638e-05
10,-3.02129e-05,2.71953e-05,2.80712e-05,3.87433e-05,-7.17953e-06,1.11735e-05
11,-3.32565e-05,2.08511e-05,2.43194e-05,4.19811e-05,-8.75357e-06,9.55199e-06
12,-2.02159e-05,2.05055e-05,2.91599e-05,4.57016e-05,-9.82143e-06,9.35592e-06
13,-1.46433e-05,2.43092e-05,3.5992e-05,4.82668e-05,-1.1164e-05,1.05689e-05
14,-1.71031e-05,2.53375e-05,4.12651e-05,4.97491e-05,-1.08876e-05,1.21263e-05
15,-1.3255e-05,2.13289e-05,4.41176e-05,5.25257e-05,-9.84699e-06,1.05046e-05
16,-1.05825e-05,1.53378e-05,4.07767e-05,5.36745e-05,-1.04677e-05,6.62269e-06
17,-1.34067e-05,1.46079e-05,3.80397e-05,5.3682e-05,-1.22437e-05,6.19007e-06
18,-2.53195e-05,1.59835e-05,3.55414e-05,5.40737e-05,-1.3673e-05,7.46077e-06
19,-3.74009e-05,1.28442e-05,3.15451e-05,5.74995e-05,-1.23904e-05,1.05504e-05
20,-3.58136e-05,8.53185e-06,3.0862e-05,6.03859e-05,-1.08371e-05,1.40421e-05
21,-2.31507e-05,8.89106e-06,3.55252e-05,5.85547e-05,-1.08693e-05,1.65855e-05
22,-1.37781e-05,1.13894e-05,3.9808e-05,5.36011e-05,-1.11569e-05,1.71512e-05
23,-1.03184e-05,1.23631e-05,3.81388e-05,4.95339e-05,-1.03573e-05,1.53166e-05
24,-1.57119e-05,9.98713e-06,3.17227e-05,4.96019e-05,-1.00768e-05,1.17941e-05
25,-2.66864e-05,6.76818e-06,2.52781e-05,5.19795e-05,-1.27075e-05,9.73334e-06
26,-2.76939e-05,6.57449e-06,2.62077e-05,5.32958e-05,-1.68959e-05,1.19378e-05
27,-1.61514e-05,8.10217e-06,3.16891e-05,5.34595e-05,-1.94852e-05,1.36202e-05
28,-3.9066e-06,1.0548e-05,3.44323e-05,5.41301e-05,-1.75695e-05,1.18432e-05
29,1.30774e-06,1.29517e-05,3.48537e-05,5.35242e-05,-1.40015e-05,1.00255e-05
30,-1.46762e-07,1.1759e-05,3.44857e-05,5.3282e-05,-1.26698e-05,1.08861e-05
31,-7.73165e-06,7.54619e-06,3.28604e-05,5.66222e-05,-1.47388e-05,1.19334e-05
32,-1.1366e-05,3.65289e-06,3.41257e-05,6.1747e-05,-1.64784e-05,1.26766e-05
33,-6.59227e-06,-3.9246e-07,3.82079e-05,6.35448e-05,-1.71707e-05,1.37179e-05
34,9.00469e-07,-2.68785e-06,3.76821e-05,6.3117e-05,-1.97858e-05,1.59882e-05
35,4.64448e-06,-6.27625e-07,3.11045e-05,6.25667e-05,-2.40705e-05,1.73993e-05
36,4.32032e-07,7.85292e-07,2.29504e-05,6.19426e-05,-2.72808e-05,1.31945e-05
37,-1.41552e-05,-5.8871e-06,1.60247e-05,6.0198e-05,-2.81753e-05,5.06923e-06
38,-2.09583e-05,-1.21101e-05,8.22378e-06,5.71958e-05,-2.60962e-05,2.05485e-06
39,-7.8068e-06,-8.76764e-06,6.00123e-06,5.74548e-05,-2.25403e-05,3.53281e-06
40,2.88153e-06,-4.58638e-06,1.28029e-05,5.93649e-05,-2.05812e-05,3.31782e-06
41,2.10998e-06,-3.77346e-06,1.8995e-05,5.75091e-05,-2.03483e-05,4.10188e-06
42,1.63136e-06,-4.09081e-06,2.43488e-05,5.64829e-05,-1.90692e-05,5.55164e-06
43,3.24954e-06,-2.2451e-06,2.84298e-05,5.84235e-05,-1.51731e-05,4.39895e-06
44,7.56319e-06,4.30433e-06,2.89983e-05,6.25255e-05,-1.16761e-05,2.19703e-06
45,4.04183e-06,9.3674e-06,2.38594e-05,6.4868e-05,-1.04611e-05,-2.70636e-07
46,-5.20354e-06,9.05172e-06,1.74899e-05,6.6274e-05,-1.12359e-05,-2.27956e-06
47,-5.12485e-06,7.34664e-06,2.11868e-05,6.70496e-05,-1.23221e-05,-3.0619e-06
48,3.18254e-06,8.20616e-06,2.9937e-05,6.39737e-05,-1.04994e-05,-2.60268e-06
49,5.5162e-06,1.18422e-05,3.77496e-05,5.91291e-05,-5.94899e-06,-3.02069e-06
50,-1.79483e-06,1.6068e-05,4.46214e-05,5.60443e-05,-1.9065e-06,-3.89556e-06
51,-1.52104e-05,1.82418e-05,4.94886e-05,5.51824e-05,-2.40161e-06,-3.91019e-06
52,-2.46955e-05,1.69611e-05,5.06604e-05,5.40894e-05,-6.71035e-06,-2.62077e-06
53,-1.75102e-05,1.66126e-05,5.05184e-05,5.25508e-05,-1.10326e-05,-7.72332e-07
54,-1.07297e-06,1.89458e-05,4.85601e-05,5.0461e-05,-1.20243e-05,1.1774e-06
55,7.25096e-06,2.21407e-05,4.56818e-05,4.74883e-05,-9.22944e-06,2.98879e-06
56,2.87615e-06,2.42506e-05,4.64212e-05,4.32547e-05,-5.58782e-06,3.91268e-06
57,-8.72318e-06,2.38654e-05,4.91367e-05,3.95391e-05,-3.22399e-06,5.31203e-06
58,-2.11859e-05,1.85155e-05,4.91185e-05,3.70596e-05,-3.25226e-06,7.06796e-06
59,-2.20768e-05,1.15002e-05,5.10374e-05,3.62789e-05,-6.41296e-06,9.53123e-06
60,-1.0821e-05,9.51826e-06,6.0787e-05,3.53374e-05,-9.2531e-06,1.33676e-05
61,-9.80737e-07,1.38116e-05,6.64668e-05,3.41209e-05,-7.74911e-06,1.76977e-05
62,1.09365e-06,2.29274e-05,6.21558e-05,3.26184e-05,-4.09127e-06,1.91266e-05
63,-1.3961e-06,3.15983e-05,5.55914e-05,3.20142e-05,1.59635e-06,1.75693e-05
64,-9.90807e-06,3.33597e-05,5.12897e-05,3.14374e-05,6.17591e-06,1.60528e-05
65,-8.01505e-06,3.16306e-05,5.00962e-05,2.97576e-05,2.37834e-06,1.74635e-05
66,8.51807e-06,3.03875e-05,5.06645e-05,2.81597e-05,-4.1747e-06,2.29994e-05
67,1.14412e-05,2.56314e-05,5.13263e-05,2.93873e-05,-4.98217e-06,2.74628e-05
68,1.11218e-06,2.14465e-05,5.12719e-05,3.53264e-05,-3.49663e-06,2.87481e-05
69,-5.84753e-06,2.15612e-05,5.03998e-05,4.23298e-05,-5.61215e-06,2.99651e-05
70,-9.0265e-06,2.35634e-05,5.14504e-05,4.6263e-05,-8.62704e-06,2.9359e-05
71,-7.36218e-06,2.8493e-05,5.36221e-05,4.48437e-05,-6.43534e-06,2.78068e-05
72,-1.0525e-05,3.23698e-05,4.95737e-05,4.03254e-05,-3.3452e-06,2.41336e-05
73,-1.75503e-05,2.81018e-05,4.32576e-05,3.97715e-05,-5.09717e-06,1.87485e-05
74,-1.22509e-05,2.25652e-05,4.34312e-05,4.52282e-05,-1.07494e-05,1.62699e-05
75,2.18547e-06,1.93109e-05,4.5569e-05,5.25302e-05,-1.43719e-05,1.67246e-05
76,9.56498e-06,1.91001e-05,4.36717e-05,5.85136e-05,-1.39388e-05,1.83428e-05
77,6.73455e-06,2.16518e-05,3.92689e-05,6.2255e-05,-1.42023e-05,1.9076e-05
78,-6.13295e-06,2.18492e-05,3.61554e-05,6.52245e-05,-1.64052e-05,1.82775e-05
79,-2.06243e-05,1.63233e-05,3.6331e-05,6.55516e-05,-1.78928e-05,1.62912e-05
80,-2.25566e-05,9.15419e-06,4.2374e-05,6.11601e-05,-1.54943e-05,1.52662e-05
81,-1.18824e-05,4.66255e-06,4.95052e-05,5.45153e-05,-9.82219e-06,1.88425e-05
82,-2.37536e-06,5.20511e-06,5.11182e-05,5.22959e-05,-5.69985e-06,2.51885e-05
83,-4.0271e-06,1.02001e-05,4.76242e-05,5.56668e-05,-6.32328e-06,2.78106e-05
84,-1.51056e-05,1.07435e-05,4.25816e-05,6.07752e-05,-8.48305e-06,2.49878e-05
85,-2.74951e-05,2.80572e-06,3.93364e-05,6.2384e-05,-7.33907e-06,1.95631e-05
86,-2.72079e-05,-4.60587e-06,4.18678e-05,5.92565e-05,-6.3259e-06,1.53082e-05
87,-1.57196e-05,-4.21912e-06,4.51629e-05,5.59634e-05,-9.95774e-06,1.39669e-05
88,-7.46812e-06,-1.76803e-06,4.30769e-05,5.51863e-05,-1.32532e-05,1.43472e-05
89,-7.91632e-06,-1.2252e-06,4.11082e-05,5.54131e-05,-1.29269e-05,1.41054e-05
90,-1.24201e-05,-1.5341e-06,3.99707e-05,5.31914e-05,-1.21511e-05,1.21805e-05
91,-1.92691e-05,-1.01174e-06,3.4729e-05,5.22562e-05,-1.37442e-05,8.87315e-06
92,-1.58475e-05,3.66945e-06,2.8714e-05,5.27443e-05,-1.45588e-05,6.34086e-06
93,4.66745e-08,1.14856e-05,2.76187e-05,5.20902e-05,-8.21908e-06,8.2102e-06
94,7.74284e-06,1.53463e-05,2.97874e-05,5.26558e-05,1.54707e-06,1.07456e-05
95,7.75911e-06,1.51298e-05,3.1998e-05,5.3118e-05,3.94354e-06,1.37596e-05
96,1.09959e-05,1.2348e-05,3.52373e-05,5.08776e-05,9.5621e-07,1.57202e-05
97,1.28473e-05,1.33556e-05,3.7023e-05,4.67584e-05,-3.75005e-06,1.36058e-05
98,1.28706e-05,2.06098e-05,3.48476e-05,4.45791e-05,-8.78744e-06,1.18111e-05
99,5.11883e-06,2.67562e-05,3.11201e-05,4.66767e-05,-9.92869e-06,9.53168e-06
100,-8.33286e-06,2.39739e-05,2.67646e-05,5.07502e-05,-9.39752e-06,8.07511e-06
101,-8.92941e-06,1.74835e-05,2.70117e-05,5.27647e-05,-6.93602e-06,6.9753e-06
102,3.96356e-06,1.57194e-05,3.19078e-05,5.0958e-05,-5.29571e-06,6.09354e-06
103,1.50673e-05,1.82495e-05,3.70179e-05,4.8367e-05,-6.29867e-06,5.98887e-06
104,1.64233e-05,2.06206e-05,3.78124e-05,4.71287e-05,-6.83794e-06,7.04691e-06
105,7.39897e-06,2.09319e-05,3.25373e-05,4.67124e-05,-4.93759e-06,8.44599e-06
106,-4.07258e-06,1.91791e-05,2.51688e-05,4.76204e-05,-1.14466e-06,8.70978e-06
107,-5.97426e-06,1.54876e-05,2.26025e-05,4.93485e-05,2.27769e-06,7.02391e-06
108,1.46447e-06,1.3068e-05,2.78951e-05,4.97601e-05,3.32964e-06,5.09374e-06
109,6.8063e-06,1.24512e-05,3.389e-05,4.86032e-05,6.44501e-07,5.58618e-06
110,4.67124e-06,1.3463e-05,3.44133e-05,4.98358e-05,-2.68619e-06,6.31638e-06
111,-2.72918e-06,1.43509e-05,2.94353e-05,5.47629e-05,-5.1406e-06,6.25281e-06
112,-1.09851e-05,1.23558e-05,2.25807e-05,6.07578e-05,-7.53426e-06,6.67417e-06
113,-7.96954e-06,9.38921e-06,2.10217e-05,6.49014e-05,-1.02177e-05,9.65867e-06
114,7.66182e-06,1.223e-05,2.92913e-05,6.50971e-05,-1.10841e-05,1.30142e-05
115,1.8215e-05,1.9559e-05,3.9614e-05,6.26636e-05,-1.11908e-05,1.26664e-05
116,1.64153e-05,2.51612e-05,4.04558e-05,6.01783e-05,-1.26995e-05,7.7037e-06
117,5.79322e-06,2.62432e-05,3.21649e-05,5.76566e-05,-1.32419e-05,1.13766e-06
118,-1.32674e-05,2.25162e-05,2.71247e-05,5.60875e-05,-1.35259e-05,-2.02957e-06
119,-2.31332e-05,1.90373e-05,3.08998e-05,5.65008e-05,-1.45401e-05,7.85873e-08
120,-1.1726e-05,1.92385e-05,3.8581e-05,5.74262e-05,-1.24148e-05,3.34873e-06
121,-1.87845e-06,1.92293e-05,3.91484e-05,5.60048e-05,-5.66498e-06,5.53768e-06
122,-2.38826e-06,1.81559e-05,3.41264e-05,5.41651e-05,8.65574e-07,5.77512e-06
123,-1.93965e-06,1.76045e-05,3.25088e-05,5.51326e-05,3.75907e-06,5.69757e-06
124,-2.02806e-06,1.81067e-05,3.38491e-05,5.42399e-05,2.52207e-06,6.4165e-06
125,-7.30515e-06,1.93647e-05,3.52717e-05,4.98115e-05,-2.12423e-06,7.74547e-06
126,-2.06096e-05,1.95573e-05,3.43247e-05,4.55173e-05,-6.66786e-06,7.26199e-06
127,-3.15827e-05,1.56556e-05,3.68372e-05,4.40446e-05,-9.35512e-06,5.99026e-06
128,-2.90568e-05,1.21156e-05,4.37547e-05,4.46358e-05,-7.16021e-06,7.47787e-06
129,-1.9589e-05,1.02431e-05,5.01793e-05,4.68744e-05,-3.11484e-06,9.55483e-06
130,-1.67107e-05,1.06518e-05,5.14819e-05,4.94047e-05,-2.93303e-06,1.0911e-05
131,-1.89687e-05,1.65153e-05,4.95068e-05,4.96386e-05,-5.62262e-06,9.39586e-06
132,-2.33068e-05,2.32932e-05,4.26974e-05,4.56443e-05,-7.8184e-06,5.07872e-06
133,-2.72574e-05,2.30527e-05,3.31767e-05,4.12684e-05,-8.23132e-06,1.29315e-06
134,-2.32902e-05,1.9651e-05,3.02828e-05,3.98172e-05,-9.03764e-06,1.57934e-06
135,-1.25126e-05,2.12157e-05,3.46057e-05,3.96463e-05,-9.31811e-06,4.59105e-06
136,-5.4968e-06,2.56874e-05,3.87627e-05,4.03757e-05,-8.3217e-06,6.43716e-06
137,-7.63669e-06,2.65874e-05,3.84256e-05,4.16757e-05,-7.47833e-06,5.20405e-06
138,-1.50114e-05,2.34338e-05,3.31401e-05,4.1987e-05,-8.31551e-06,2.62077e-06
139,-2.32029e-05,1.97236e-05,2.31805e-05,4.003e-05,-8.43291e-06,1.51435e-06
140,-2.31608e-05,1.72982e-05,1.95123e-05,3.80412e-05,-6.17504e-06,3.73913e-06
141,-1.36876e-05,1.6984e-05,2.6278e-05,3.7634e-05,-2.01557e-06,9.50711e-06
142,-6.75076e-06,1.60328e-05,3.3711e-05,3.71522e-05,2.21503e-06,1.51453e-05
143,-8.11334e-06,1.48225e-05,3.67433e-05,3.60265e-05,2.31222e-06,1.49996e-05
144,-1.30866e-05,1.37682e-05,3.63839e-05,3.57582e-05,-1.41087e-06,1.0211e-05
145,-2.27982e-05,1.10479e-05,3.15729e-05,3.77593e-05,-4.97909e-06,5.53375e-06
146,-2.47141e-05,6.27933e-06,2.90575e-05,4.29495e-05,-9.22494e-06,6.23901e-06
147,-9.69372e-06,3.33147e-06,3.18268e-05,4.88617e-05,-1.20362e-05,1.63255e-05
148,-7.93319e-08,3.77424e-06,3.47047e-05,4.69555e-05,-1.1331e-05,2.53087e-05
149,4.98094e-07,5.15657e-06,3.78485e-05,3.95509e-05,-1.27354e-05,2.63879e-05
150,2.06612e-06,5.57798e-06,4.32589e-05,3.82266e-05,-1.64681e-05,2.43537e-05
151,6.40663e-07,7.41727e-06,4.68336e-05,3.9818e-05,-1.76809e-05,2.47319e-05
152,-1.29551e-06,1.01955e-05,4.52323e-05,4.10642e-05,-1.68501e-05,2.77036e-05
153,-4.69664e-06,9.80057e-06,4.16808e-05,4.0177e-05,-2.03856e-05,3.03029e-05
154,-7.90617e-06,7.20407e-06,3.95323e-05,3.84886e-05,-2.46884e-05,2.80007e-05
155,-1.04008e-06,9.17424e-06,4.05194e-05,3.75531e-05,-2.37152e-05,2.35545e-05
156,1.20324e-05,1.1082e-05,4.20421e-05,3.79621e-05,-1.98167e-05,2.41683e-05
157,1.83641e-05,9.4802e-06,4.02681e-05,3.72968e-05,-1.77432e-05,2.53245e-05
158,1.47495e-05,9.24463e-06,3.74772e-05,3.46305e-05,-1.86363e-05,2.29566e-05
159,3.72857e-06,1.07125e-05,3.27664e-05,3.56976e-05,-1.89097e-05,1.79659e-05
160,-5.56956e-06,8.36126e-06,2.77036e-05,4.19648e-05,-1.71049e-05,1.43458e-05
161,-1.7411e-06,3.48002e-06,2.90131e-05,4.72002e-05,-1.28408e-05,1.37486e-05
162,1.13974e-05,8.88301e-07,3.68134e-05,4.67393e-05,-9.44745e-06,1.4708e-05
163,1.86912e-05,1.61304e-06,4.24982e-05,4.4859e-05,-8.95021e-06,1.51299e-05
164,1.43444e-05,4.23944e-06,4.23017e-05,4.40474e-05,-9.93939e-06,1.52077e-05
165,2.10655e-06,2.90364e-06,3.8532e-05,4.56062e-05,-1.01114e-05,1.52798e-05
166,-9.25729e-06,-5.4176e-06,3.37977e-05,4.98867e-05,-8.83615e-06,1.44738e-05
167,-7.49025e-06,-1.29936e-05,3.3363e-05,5.47712e-05,-6.66097e-06,1.34577e-05
168,5.02564e-06,-1.05405e-05,3.9118e-05,5.55988e-05,-5.93794e-06,1.44328e-05
169,1.08918e-05,-2.1579e-06,4.47671e-05,5.36349e-05,-8.35368e-06,1.68254e-05
170,5.27999e-06,4.37523e-06,4.73358e-05,5.4054e-05,-8.74673e-06,1.69776e-05
171,-4.29491e-06,5.25921e-06,4.83819e-05,5.87725e-05,-5.84574e-06,1.50047e-05
172,-1.60447e-05,6.41747e-07,4.68522e-05,6.75291e-05,-5.58638e-06,1.35708e-05
173,-1.87436e-05,-5.52016e-06,4.9299e-05,7.34606e-05,-9.7004e-06,1.43667e-05
174,-6.92145e-06,-5.04341e-06,5.63509e-05,7.1774e-05,-1.32381e-05,1.47574e-05
175,1.52116e-06,2.91233e-07,5.89874e-05,6.94423e-05,-1.27032e-05,1.42979e-05
176,4.44182e-06,5.01963e-06,5.61354e-05,6.6104e-05,-9.67076e-06,1.58124e-05
177,7.49823e-06,8.86972e-06,5.29592e-05,6.02476e-05,-7.48728e-06,1.99519e-05
178,6.09188e-06,1.35812e-05,4.87471e-05,5.5644e-05,-5.47988e-06,2.34433e-05
179,7.83447e-07,1.72482e-05,4.55359e-05,5.66203e-05,-4.21567e-06,2.31587e-05
180,-1.05971e-05,1.93901e-05,4.16088e-05,6.21678e-05,-4.41508e-06,1.91892e-05
181,-1.86834e-05,1.86961e-05,3.66192e-05,6.66881e-05,-3.36002e-06,1.48302e-05
182,-1.3294e-05,1.6374e-05,3.83464e-05,6.53991e-05,-2.96671e-06,1.39105e-05
183,-1.12211e-06,1.21972e-05,4.38169e-05,6.20906e-05,-4.91615e-06,1.52941e-05
184,4.27914e-06,8.00096e-06,4.48266e-05,6.15466e-05,-7.28241e-06,1.44802e-05
185,1.27372e-06,7.40454e-06,4.23136e-05,6.31732e-05,-8.34975e-06,1.09556e-05
186,-8.57277e-06,8.31805e-06,3.78734e-05,6.38808e-05,-7.23755e-06,7.55288e-06
187,-1.94106e-05,6.14366e-06,3.30526e-05,5.97462e-05,-5.96056e-06,7.37367e-06
188,-1.88497e-05,3.47614e-07,3.25478e-05,5.38421e-05,-6.06188e-06,9.99823e-06
189,-8.13059e-06,-4.67372e-06,3.50323e-05,4.86491e-05,-7.67897e-06,1.05034e-05
190,4.58616e-07,-5.22168e-06,3.37878e-05,4.54542e-05,-9.5946e-06,6.7222e-06
191,1.41193e-06,1.6298e-06,2.70059e-05,4.52827e-05,-1.02581e-05,3.74866e-06
192,-2.38655e-06,1.03746e-05,1.80809e-05,5.02483e-05,-9.12926e-06,5.7832e-06
193,-8.70334e-06,1.30025e-05,1.16221e-05,5.51977e-05,-9.62824e-06,8.76771e-06
194,-8.45815e-06,1.0551e-05,1.20513e-05,5.30759e-05,-1.29404e-05,9.42135e-06
195,-5.63755e-08,1.07564e-05,1.77254e-05,4.71841e-05,-1.67215e-05,9.92743e-06
196,3.45587e-06,1.20829e-05,2.47634e-05,4.32605e-05,-1.71477e-05,9.73556e-06
197,-1.43222e-06,1.27801e-05,2.90912e-05,4.16036e-05,-1.41534e-05,7.72456e-06
198,-9.42125e-06,1.55266e-05,2.87588e-05,4.46413e-05,-1.27338e-05,4.81605e-06
199,-2.23404e-05,1.92045e-05,2.50931e-05,5.09456e-05,-1.37239e-05,2.43936e-06
200,-2.45309e-05,1.99264e-05,2.62528e-05,5.53881e-05,-1.47678e-05,2.93388e-06
201,-9.9399e-06,1.45005e-05,3.56838e-05,5.66281e-05,-1.42176e-05,6.1457e-06
202,-4.29479e-06,6.99637e-06,4.27017e-05,5.58729e-05,-1.5087e-05,8.36453e-06
203,-8.16506e-06,7.07096e-06,4.66954e-05,5.21991e-05,-1.67838e-05,1.0695e-05
204,-8.25262e-06,1.13745e-05,4.93932e-05,4.67143e-05,-1.5946e-05,1.40057e-05
205,-7.85887e-06,1.58127e-05,5.027e-05,4.31599e-05,-1.38046e-05,1.3408e-05
206,-1.00474e-05,2.00393e-05,5.09925e-05,4.22247e-05,-1.32387e-05,1.06312e-05
207,-1.95129e-05,2.00065e-05,4.63877e-05,4.36932e-05,-1.41573e-05,6.98244e-06
208,-3.16307e-05,1.40915e-05,3.89255e-05,4.74239e-05,-1.54837e-05,4.99151e-06
209,-3.17842e-05,9.17703e-06,3.57006e-05,5.06706e-05,-1.43536e-05,6.781e-06
210,-2.07401e-05,1.12512e-05,3.89317e-05,5.05377e-05,-1.06992e-05,1.23739e-05
211,-1.43841e-05,1.69481e-05,4.33823e-05,4.87577e-05,-8.6618e-06,1.6923e-05
212,-1.61735e-05,2.33251e-05,4.64163e-05,4.74366e-05,-1.05449e-05,1.85639e-05
213,-2.32219e-05,2.63614e-05,4.44972e-05,4.7308e-05,-1.28053e-05,1.85297e-05
214,-3.15973e-05,2.45543e-05,3.8404e-05,4.86858e-05,-1.09636e-05,1.60133e-05
215,-3.09133e-05,2.34028e-05,3.68016e-05,5.03516e-05,-6.20381e-06,1.4359e-05
216,-1.88413e-05,2.69302e-05,4.14666e-05,5.07519e-05,-2.21382e-06,1.38269e-05
217,-7.62674e-06,3.26702e-05,4.56771e-05,5.02087e-05,-1.63662e-06,1.33291e-05
218,-5.39445e-06,3.75202e-05,4.58025e-05,4.90222e-05,-2.99869e-06,1.28128e-05
219,-1.30775e-05,3.97914e-05,4.37312e-05,4.83289e-05,-3.40418e-06,1.24924e-05
220,-2.56232e-05,3.65932e-05,3.98291e-05,4.5475e-05,-8.52117e-07,9.89924e-06
221,-3.02743e-05,3.05089e-05,3.85938e-05,3.95725e-05,1.79334e-06,8.98468e-06
222,-2.28016e-05,2.5178e-05,4.38204e-05,3.54737e-05,2.83473e-07,1.19695e-05
223,-1.06681e-05,1.75715e-05,4.86815e-05,3.58492e-05,-6.08436e-06,1.47594e-05
224,-6.22489e-06,9.85286e-06,4.7053e-05,3.71151e-05,-1.36002e-05,1.39087e-05
225,-1.44965e-05,7.51279e-06,4.17041e-05,3.70514e-05,-1.69499e-05,1.07925e-05
226,-2.95596e-05,4.48981e-06,3.24304e-05,3.89288e-05,-1.47043e-05,8.64145e-06
227,-3.20111e-05,-2.27051e-06,2.73674e-05,4.26743e-05,-1.00133e-05,7.22731e-06
228,-1.63943e-05,-4.56902e-06,3.62043e-05,4.4943e-05,-3.45973e-06,5.41551e-06
229,-8.27351e-06,-4.23186e-07,4.56053e-05,4.32095e-05,-3.8413e-07,6.42485e-06
230,-1.0596e-05,4.36209e-06,4.58334e-05,4.29916e-05,-3.23812e-06,8.64637e-06
231,-1.10865e-05,7.63423e-06,4.41222e-05,4.52996e-05,-7.98467e-06,8.01779e-06
232,-1.26431e-05,1.2677e-05,4.39402e-05,4.54658e-05,-1.05001e-05,6.98569e-06
233,-1.25411e-05,1.79275e-05,4.58169e-05,4.34169e-05,-7.55389e-06,3.14455e-06
234,-1.67065e-05,1.72826e-05,4.34423e-05,3.96142e-05,-4.14265e-06,-1.65099e-06
235,-2.32777e-05,9.19373e-06,3.80575e-05,3.76533e-05,-4.726e-07,-2.7874e-06
236,-1.83375e-05,7.04015e-06,3.84579e-05,3.49347e-05,9.98116e-07,7.57972e-07
237,-4.55794e-06,1.28421e-05,4.20111e-05,3.3322e-05,1.47006e-06,4.93291e-06
238,1.85774e-06,1.83481e-05,4.25572e-05,3.4247e-05,2.91002e-06,6.029e-06
239,-1.71763e-06,2.13135e-05,4.06958e-05,3.84621e-05,3.29221e-06,6.31436e-06
240,-1.12331e-05,2.19057e-05,3.67073e-05,4.49025e-05,3.23763e-06,7.25564e-06
241,-1.90131e-05,1.92961e-05,3.37779e-05,4.92845e-05,3.23076e-06,7.77732e-06
242,-1.4607e-05,1.46715e-05,3.59881e-05,5.08615e-05,2.49522e-06,8.43758e-06
243,-8.80019e-07,1.15116e-05,4.08953e-05,5.03637e-05,1.84772e-06,1.00533e-05
244,6.73014e-06,1.12398e-05,4.42963e-05,4.98474e-05,3.27559e-06,1.09771e-05
245,2.83075e-06,1.30366e-05,4.53789e-05,5.05407e-05,4.08184e-06,1.07627e-05
246,-5.73066e-06,1.23476e-05,4.61164e-05,5.40578e-05,3.16691e-06,1.13174e-05
247,-1.34053e-05,7.99055e-06,4.41415e-05,5.89928e-05,2.8509e-06,1.17788e-05
248,-9.0414e-06,4.75799e-06,4.10281e-05,6.10704e-05,4.3609e-06,1.09052e-05
249,7.9152e-06,5.24639e-06,4.1254e-05,5.74601e-05,6.05283e-06,1.03804e-05
250,1.82492e-05,5.73267e-06,4.0978e-05,5.31566e-05,9.68507e-06,9.65045e-06
251,1.25321e-05,6.39883e-06,3.53361e-05,5.15542e-05,1.35808e-05,7.16981e-06
252,-9.33829e-07,7.03979e-06,2.88437e-05,5.29863e-05,1.32632e-05,5.28913e-06
253,-1.69511e-05,4.65706e-06,2.6816e-05,5.61463e-05,8.18216e-06,6.99346e-06
254,-1.70768e-05,-2.73428e-07,2.9591e-05,5.8616e-05,2.61575e-06,1.13794e-05
255,8.78953e-07,-1.63685e-06,3.55182e-05,5.71632e-05,1.70387e-06,1.54998e-05
256,6.56329e-06,1.91264e-06,3.85504e-05,5.27693e-05,4.37462e-06,1.48592e-05
257,7.8924e-07,4.96265e-06,3.6169e-05,5.03636e-05,6.83281e-06,1.5219e-05
258,-1.48801e-06,5.2744e-06,3.32378e-05,5.31499e-05,5.84144e-06,1.78955e-05
259,-4.08852e-06,9.41004e-06,3.44868e-05,5.73996e-05,1.39178e-06,1.82205e-05
260,-1.00231e-05,1.74668e-05,3.77015e-05,5.57719e-05,-1.70293e-06,1.72445e-05
261,-2.27159e-05,2.04335e-05,3.58171e-05,5.24138e-05,-2.64871e-06,1.61218e-05
262,-3.04635e-05,1.53812e-05,3.10032e-05,5.41447e-05,-2.63733e-06,1.57649e-05
263,-2.09163e-05,9.14673e-06,2.64815e-05,5.50105e-05,-2.46548e-06,1.56985e-05
264,-2.47429e-06,7.54606e-06,2.67459e-05,5.19868e-05,-1.99821e-06,1.72943e-05
265,7.06043e-06,1.1845e-05,3.05957e-05,4.73648e-05,-5.29402e-07,1.78108e-05
266,5.25516e-06,1.67227e-05,3.45353e-05,4.62961e-05,1.36615e-06,1.64203e-05
267,-3.96117e-06,1.63901e-05,3.26094e-05,4.97616e-05,7.83995e-07,1.48716e-05
268,-1.11462e-05,1.14757e-05,2.45826e-05,5.42941e-05,-2.05576e-06,1.40968e-05
269,-6.37326e-06,9.23733e-06,1.9309e-05,5.60954e-05,-3.94373e-06,1.38151e-05
270,5.41481e-06,1.22873e-05,2.06299e-05,5.33266e-05,-4.11208e-06,1.42354e-05
271,1.08562e-05,1.74752e-05,2.41764e-05,4.88438e-05,-3.86447e-06,1.53007e-05
272,6.99761e-06,2.24124e-05,2.49411e-05,4.54111e-05,-4.69877e-06,1.5784e-05
273,-1.76287e-06,2.3502e-05,2.43363e-05,4.49879e-05,-5.83057e-06,1.51747e-05
274,-1.16847e-05,1.98005e-05,2.33847e-05,4.61493e-05,-6.04697e-06,1.46401e-05
275,-1.10201e-05,1.86465e-05,2.50228e-05,4.66293e-05,-5.98721e-06,1.5118e-05
276,1.29954e-06,2.46316e-05,2.91619e-05,4.50251e-05,-9.42493e-06,1.43822e-05
277,1.23937e-05,2.93116e-05,3.27302e-05,4.29607e-05,-1.50658e-05,1.08231e-05
278,1.25704e-05,2.86415e-05,3.52229e-05,4.09185e-05,-1.75494e-05,6.55702e-06
279,4.21693e-06,2.72721e-05,3.56612e-05,3.96654e-05,-1.7716e-05,5.51186e-06
280,-1.0229e-05,2.71394e-05,2.9159e-05,4.04115e-05,-1.98104e-05,7.46035e-06
281,-1.6747e-05,2.51507e-05,2.46174e-05,4.09085e-05,-2.46193e-05,7.85735e-06
282,-1.01373e-05,2.14058e-05,2.64408e-05,3.83257e-05,-3.11733e-05,6.83719e-06
283,-9.56263e-06,1.80204e-05,2.83534e-05,3.69794e-05,-3.51533e-05,8.92916e-06
284,-1.22984e-05,1.6741e-05,3.39288e-05,3.71584e-05,-3.40837e-05,1.09965e-05
285,-9.17988e-06,1.54123e-05,4.09131e-05,3.96297e-05,-3.12065e-05,1.24041e-05
286,-8.52448e-06,1.5417e-05,4.06479e-05,4.37768e-05,-3.0353e-05,1.52587e-05
287,-1.00996e-05,1.93807e-05,3.62888e-05,4.7002e-05,-3.27165e-05,1.77228e-05
288,-1.83361e-05,2.36324e-05,3.26451e-05,4.66768e-05,-3.29463e-05,1.64404e-05
289,-3.09089e-05,1.95552e-05,3.16973e-05,4.27988e-05,-2.91962e-05,1.39507e-05
290,-2.96124e-05,1.31989e-05,3.70594e-05,4.01622e-05,-2.6622e-05,1.50276e-05
291,-1.39232e-05,1.08816e-05,4.57748e-05,4.01104e-05,-2.44993e-05,1.77597e-05
292,4.52964e-07,1.33873e-05,4.76245e-05,4.15827e-05,-2.16656e-05,1.93852e-05
293,5.18396e-06,1.77493e-05,4.43823e-05,4.27998e-05,-1.81228e-05,1.93309e-05
294,-3.95907e-06,1.83552e-05,3.92575e-05,4.30517e-05,-1.6023e-05,1.797e-05
295,-1.73374e-05,1.39498e-05,3.20954e-05,4.12323e-05,-1.45179e-05,1.59145e-05
296,-1.83965e-05,7.60867e-06,2.92347e-05,3.98811e-05,-1.28196e-05,1.44389e-05
297,-7.5622e-06,3.86792e-06,3.39094e-05,4.00865e-05,-1.17899e-05,1.36236e-05
298,1.93012e-06,3.46727e-06,4.242e-05,4.15764e-05,-1.16487e-05,1.29336e-05
299,4.19434e-06,7.35466e-06,4.80063e-05,4.43199e-05,-1.10905e-05,1.34499e-05
300,-8.4088e-07,1.10684e-05,4.56595e-05,4.94057e-05,-9.13565e-06,1.5175e-05
301,-1.09419e-05,9.05119e-06,3.70623e-05,5.60052e-05,-7.59421e-06,1.4797e-05
302,-1.18203e-05,3.73128e-06,3.3643e-05,6.0724e-05,-8.42905e-06,1.20732e-05
303,9.94475e-08,3.12231e-06,3.92852e-05,6.28753e-05,-1.2231e-05,9.77331e-06
304,7.78692e-06,6.16094e-06,4.46992e-05,6.39504e-05,-1.61417e-05,8.68615e-06
305,4.99896e-06,1.10602e-05,4.35382e-05,6.26073e-05,-1.80115e-05,8.23786e-06
306,-1.37959e-06,1.42577e-05,3.9056e-05,6.13095e-05,-1.58562e-05,7.67376e-06
307,-1.1882e-05,1.12435e-05,3.19927e-05,6.43264e-05,-1.21129e-05,7.05417e-06
308,-1.15044e-05,6.965e-06,2.86352e-05,6.94768e-05,-1.02613e-05,7.04545e-06
309,2.2714e-06,8.89839e-06,3.17871e-05,7.32617e-05,-9.49034e-06,7.10797e-06
310,5.39859e-06,1.075e-05,3.70338e-05,7.25205e-05,-8.76044e-06,7.80049e-06
311,3.1356e-06,7.73339e-06,4.19874e-05,6.92077e-05,-1.24877e-05,9.74456e-06
312,3.39607e-06,7.57901e-06,4.18476e-05,6.82978e-05,-1.53546e-05,1.05513e-05
313,3.0134e-06,1.414e-05,3.73528e-05,6.95639e-05,-1.28298e-05,1.12658e-05
314,2.87782e-06,2.18437e-05,3.51755e-05,6.79654e-05,-9.24024e-06,1.32883e-05
315,-5.31226e-06,2.40542e-05,3.38231e-05,6.398e-05,-7.4255e-06,1.12493e-05
316,-1.46092e-05,2.07209e-05,2.9556e-05,6.31723e-05,-8.23738e-06,6.96548e-06
317,-8.97134e-06,1.60725e-05,3.05745e-05,6.30962e-05,-8.83906e-06,5.54527e-06
318,8.22977e-06,1.19177e-05,3.57888e-05,5.82867e-05,-7.084e-06,8.41935e-06
319,1.76493e-05,1.17009e-05,3.70532e-05,5.19542e-05,-2.79773e-06,1.36025e-05
320,1.38031e-05,1.35166e-05,3.57928e-05,5.08253e-05,1.43436e-06,1.60717e-05
321,1.31509e-06,1.14714e-05,3.23813e-05,5.3791e-05,2.61371e-06,1.57636e-05
322,-1.1503e-05,5.82032e-06,2.64925e-05,5.66829e-05,-5.46312e-08,1.50303e-05
323,-1.47607e-05,-2.50037e-07,2.59386e-05,5.76151e-05,-5.2318e-06,1.44576e-05
324,-7.1297e-06,-6.58936e-06,3.45157e-05,5.55752e-05,-9.18283e-06,1.33963e-05
325,1.00346e-06,-1.00405e-05,4.26869e-05,5.26972e-05,-9.92751e-06,1.36353e-05
326,9.55761e-07,-5.97043e-06,4.37264e-05,5.21128e-05,-8.51773e-06,1.51457e-05
327,-7.4973e-06,5.42923e-07,3.77765e-05,5.33287e-05,-6.90107e-06,1.52402e-05
328,-1.84072e-05,2.68658e-06,2.82388e-05,5.36893e-05,-6.6305e-06,1.31887e-05
329,-1.96932e-05,1.80122e-06,2.4706e-05,5.4575e-05,-6.61844e-06,1.24729e-05
330,-1.10065e-05,1.31771e-06,3.16841e-05,5.63416e-05,-4.62116e-06,1.51846e-05
331,-3.01657e-06,-1.58504e-06,3.81024e-05,5.70962e-05,-2.91985e-06,1.66568e-05
332,-1.34336e-06,-3.42313e-06,3.88279e-05,5.60063e-05,-3.53686e-06,1.3827e-05
333,-5.43515e-06,-2.47557e-06,3.82914e-05,5.34964e-05,-3.33231e-06,1.16707e-05
334,-1.59735e-05,-3.88371e-06,3.63067e-05,5.01825e-05,-2.52468e-06,1.30067e-05
335,-1.78054e-05,-4.92981e-06,3.43986e-05,4.7424e-05,-1.73759e-06,1.56426e-05
336,-2.96891e-06,-2.24643e-06,4.10257e-05,4.73617e-05,-8.30215e-07,1.96453e-05
337,3.26354e-06,-1.53295e-06,5.09326e-05,4.86759e-05,4.92043e-07,2.22304e-05
338,5.08069e-07,1.30462e-06,5.3041e-05,5.04438e-05,-1.35829e-06,2.04188e-05
339,-1.36671e-08,7.53454e-06,5.15331e-05,5.41882e-05,-5.71465e-06,1.85517e-05
340,-5.16224e-06,1.50169e-05,4.83863e-05,5.77538e-05,-5.72205e-06,1.77513e-05
341,-1.2399e-05,2.28935e-05,4.70193e-05,5.52589e-05,-6.3431e-06,1.76907e-05
342,-2.08564e-05,2.46173e-05,4.13705e-05,5.03078e-05,-1.03236e-05,1.88415e-05
343,-2.38057e-05,2.28977e-05,3.11738e-05,4.91461e-05,-1.16089e-05,1.91171e-05
344,-1.16504e-05,2.33613e-05,3.0654e-05,4.83227e-05,-8.53811e-06,1.90745e-05
345,6.30016e-06,2.5503e-05,3.87585e-05,4.57632e-05,-6.24342e-06,1.79641e-05
346,1.47666e-05,2.56872e-05,4.45671e-05,4.35344e-05,-7.0598e-06,1.37794e-05
347,1.38824e-05,2.68585e-05,4.38274e-05,4.38503e-05,-9.2599e-06,8.54638e-06
348,3.63928e-06,2.78214e-05,3.97244e-05,4.59612e-05,-1.10607e-05,6.9416e-06
349,-9.04581e-06,2.49166e-05,3.64515e-05,4.76404e-05,-1.2396e-05,9.44599e-06
350,-9.60636e-06,1.95959e-05,3.80128e-05,4.99356e-05,-1.36305e-05,1.42503e-05
351,3.07421e-06,1.50976e-05,4.33035e-05,5.23108e-05,-1.40562e-05,1.76066e-05
352,1.19963e-05,1.62651e-05,4.82638e-05,5.18179e-05,-1.47582e-05,1.72483e-05
353,7.6135e-06,2.50327e-05,5.03865e-05,4.9929e-05,-1.56249e-05,1.6288e-05
354,-3.84853e-06,3.28144e-05,4.78985e-05,5.07151e-05,-1.69655e-05,1.64576e-05
355,-1.31711e-05,2.81023e-05,4.25298e-05,5.42549e-05,-1.87262e-05,1.44649e-05
356,-8.8525e-06,1.68924e-05,4.37871e-05,5.66884e-05,-2.06879e-05,1.07053e-05
357,7.12282e-06,1.28719e-05,5.38218e-05,5.41991e-05,-1.98518e-05,8.18221e-06
358,1.57452e-05,1.66137e-05,6.26294e-05,4.86207e-05,-1.51817e-05,6.39462e-06
359,9.79548e-06,1.89756e-05,6.23719e-05,4.51902e-05,-1.04572e-05,5.79591e-06
360,-1.31761e-06,1.69207e-05,5.35561e-05,4.58564e-05,-6.88213e-06,4.47755e-06
361,-1.37265e-05,1.32242e-05,4.35644e-05,4.92885e-05,-3.72684e-06,-3.60854e-07
362,-1.51503e-05,1.26839e-05,4.41682e-05,5.22595e-05,-4.39912e-06,-3.51253e-06
363,-1.73778e-06,1.69871e-05,4.76094e-05,4.96778e-05,-8.24671e-06,-1.05255e-06
364,2.17667e-06,2.09086e-05,4.06162e-05,4.66019e-05,-8.98298e-06,1.65424e-06
365,-4.73207e-06,2.09497e-05,3.57229e-05,4.64782e-05,-3.94742e-06,4.35041e-07
366,-8.1485e-06,2.09095e-05,3.54444e-05,4.2886e-05,1.5233e-06,-4.71936e-08
367,-1.08893e-05,2.03073e-05,3.79438e-05,3.97885e-05,1.09019e-06,2.5142e-06
368,-1.28823e-05,2.05758e-05,4.29463e-05,3.99936e-05,-2.65544e-06,5.68149e-06
369,-2.02664e-05,2.06988e-05,4.13213e-05,4.22954e-05,-7.20358e-06,6.86383e-06
370,-2.80439e-05,1.78368e-05,3.60036e-05,4.2758e-05,-1.04251e-05,3.6116e-06
371,-2.24463e-05,1.54642e-05,3.52691e-05,3.97488e-05,-1.20292e-05,3.42043e-06
372,-1.13528e-05,1.4933e-05,3.81506e-05,3.93552e-05,-1.34716e-05,6.59419e-06
373,-7.47925e-06,1.79377e-05,3.9136e-05,4.07257e-05,-1.36259e-05,9.25652e-06
374,-8.29129e-06,2.31336e-05,3.79134e-05,4.0526e-05,-1.27575e-05,1.04789e-05
375,-1.52521e-05,2.52054e-05,3.38429e-05,4.00177e-05,-1.5118e-05,1.01531e-05
376,-2.34306e-05,2.02274e-05,2.92021e-05,4.07579e-05,-2.00971e-05,1.01371e-05
377,-2.01712e-05,1.409e-05,3.03259e-05,4.12881e-05,-2.16647e-05,9.95252e-06
378,-8.72991e-06,1.19524e-05,3.62943e-05,4.0898e-05,-1.92821e-05,9.33055e-06
379,-3.60961e-06,1.44974e-05,3.90327e-05,4.14259e-05,-1.66785e-05,7.69273e-06
380,-7.23428e-06,1.85891e-05,3.87545e-05,4.257e-05,-1.61129e-05,6.67661e-06
381,-1.3437e-05,2.10758e-05,3.77526e-05,4.24701e-05,-1.52612e-05,6.84715e-06
382,-2.06628e-05,1.89498e-05,3.4228e-05,4.24327e-05,-1.41797e-05,8.18343e-06
383,-2.30334e-05,1.5012e-05,3.21153e-05,4.38256e-05,-1.36529e-05,1.00499e-05
384,-1.78396e-05,1.42092e-05,3.34549e-05,4.54224e-05,-1.12612e-05,1.29916e-05
385,-1.47174e-05,1.37781e-05,3.11448e-05,4.58486e-05,-7.87226e-06,1.4758e-05
386,-1.93639e-05,1.35589e-05,2.46311e-05,4.55281e-05,-5.53981e-06,1.18811e-05
387,-2.66985e-05,1.3654e-05,2.05434e-05,4.63512e-05,-4.21285e-06,5.85268e-06
388,-3.74098e-05,1.01888e-05,1.70379e-05,4.8603e-05,-3.33357e-06,2.96006e-06
389,-4.00942e-05,5.77969e-06,1.50379e-05,4.9367e-05,-2.50535e-06,6.76254e-06
390,-2.86407e-05,5.35433e-06,2.10645e-05,4.83782e-05,-3.91919e-07,1.23083e-05
391,-1.99901e-05,5.64065e-06,2.70555e-05,4.50289e-05,2.27417e-06,1.13764e-05
392,-1.53404e-05,5.01382e-06,2.67517e-05,4.19363e-05,3.17921e-06,4.98054e-06
393,-1.24218e-05,3.37818e-06,2.61946e-05,4.08816e-05,-3.25179e-07,1.41215e-06
394,-1.39394e-05,3.27645e-06,2.69876e-05,4.51121e-05,-5.44559e-06,3.66638e-06
395,-1.67948e-05,7.2105e-06,2.97837e-05,5.276e-05,-8.4845e-06,7.11144e-06
396,-2.57155e-05,1.02927e-05,3.00598e-05,5.60237e-05,-1.1584e-05,7.66406e-06
397,-3.34589e-05,8.06088e-06,2.92972e-05,5.84358e-05,-1.226e-05,7.42579e-06
398,-2.76506e-05,4.32082e-06,3.36669e-05,6.08098e-05,-9.8277e-06,6.38095e-06
399,-1.40335e-05,2.95923e-06,4.00154e-05,6.10626e-05,-6.82708e-06,6.90681e-06
400,-6.57393e-06,5.38774e-06,4.16232e-05,5.65967e-05,-6.36395e-06,7.73139e-06
401,-5.78915e-06,1.26046e-05,4.00916e-05,5.30488e-05,-9.97265e-06,6.69511e-06
402,-1.10948e-05,1.94538e-05,3.66189e-05,5.60337e-05,-1.47654e-05,6.00035e-06
403,-1.7339e-05,1.92685e-05,3.22245e-05,6.23747e-05,-1.6912e-05,6.73989e-06
404,-1.30807e-05,1.68784e-05,3.22244e-05,6.50035e-05,-1.47566e-05,8.61523e-06
405,1.47383e-07,1.8942e-05,3.55174e-05,6.28689e-05,-9.96675e-06,8.80679e-06
406,6.87209e-06,2.40985e-05,3.58707e-05,5.89759e-05,-7.02498e-06,7.856e-06
407,3.1405e-06,2.76527e-05,3.28928e-05,5.64387e-05,-7.88793e-06,8.30973e-06
408,-3.68742e-06,2.49251e-05,3.07922e-05,5.78825e-05,-1.01003e-05,9.68194e-06
409,-9.92057e-06,1.56014e-05,3.10265e-05,6.02173e-05,-1.14068e-05,9.51832e-06
410,-8.7623e-06,9.95117e-06,3.7219e-05,6.02203e-05,-1.26751e-05,8.07492e-06
411,1.71443e-07,1.51331e-05,4.84135e-05,5.70951e-05,-1.5479e-05,9.02515e-06
412,7.25279e-06,2.34694e-05,5.37954e-05,5.32876e-05,-1.69488e-05,1.2353e-05
413,5.55366e-06,2.59119e-05,5.03937e-05,4.98001e-05,-1.66427e-05,1.22174e-05
414,-2.14089e-06,2.26203e-05,4.38495e-05,4.87191e-05,-1.6636e-05,8.15958e-06
415,-1.70559e-05,1.88989e-05,3.56947e-05,5.20965e-05,-1.50295e-05,5.36305e-06
416,-2.20859e-05,1.74721e-05,3.32181e-05,5.73786e-05,-1.24437e-05,7.17878e-06
417,-5.6928e-06,1.48582e-05,3.84922e-05,5.98704e-05,-1.26341e-05,1.14852e-05
418,6.06244e-06,7.04121e-06,4.4262e-05,5.85173e-05,-1.5065e-05,1.28187e-05
419,6.9501e-06,-2.67603e-07,4.7985e-05,5.24333e-05,-1.60827e-05,1.17365e-05
420,8.56488e-06,-2.53697e-06,4.84639e-05,4.80504e-05,-1.42366e-05,1.12476e-05
421,1.2032e-05,9.45868e-07,4.8739e-05,5.01582e-05,-1.52198e-05,1.10974e-05
422,1.32321e-05,8.48089e-06,5.14491e-05,5.35018e-05,-1.53662e-05,1.20278e-05
423,2.51151e-06,1.31024e-05,4.85265e-05,5.32487e-05,-1.10598e-05,1.13221e-05
424,-1.18965e-05,1.11944e-05,4.17e-05,5.27495e-05,-7.62486e-06,8.70101e-06
425,-1.1673e-05,6.01441e-06,4.0739e-05,5.47389e-05,-7.2818e-06,7.8229e-06
426,-7.91602e-07,-3.64159e-07,4.43579e-05,5.54352e-05,-7.06331e-06,9.55355e-06
427,4.63964e-06,-3.58901e-06,4.37532e-05,5.41893e-05,-5.43535e-06,1.2309e-05
428,2.74719e-06,-4.83901e-07,3.97313e-05,5.34311e-05,-4.51914e-06,1.43955e-05
429,-6.02262e-06,3.28555e-06,3.48038e-05,5.42893e-05,-4.05874e-06,1.56056e-05
430,-1.62312e-05,2.50107e-06,3.07931e-05,5.51062e-05,-4.93161e-06,1.74382e-05
431,-1.71473e-05,-1.49235e-06,3.05568e-05,5.41716e-05,-8.24206e-06,2.10309e-05
432,-8.54172e-06,-6.03337e-06,3.40462e-05,5.3102e-05,-1.18339e-05,2.37249e-05
433,-2.38812e-06,-8.60637e-06,3.82192e-05,5.43545e-05,-1.17959e-05,2.26631e-05
434,-4.91142e-06,-6.407e-06,3.82986e-05,5.64745e-05,-7.97646e-06,1.88583e-05
435,-1.38758e-05,-1.91773e-06,3.2387e-05,5.80716e-05,-2.63361e-06,1.68259e-05
436,-2.31456e-05,-8.48013e-07,2.24599e-05,5.90144e-05,8.06988e-07,1.81918e-05
437,-2.09138e-05,-3.73689e-08,1.84151e-05,5.90938e-05,1.98305e-06,2.17307e-05
438,-5.43825e-06,4.36081e-06,2.36462e-05,5.73265e-05,2.12755e-06,2.61654e-05
439,6.24117e-06,8.573e-06,2.85847e-05,5.48623e-05,2.23876e-06,3.07423e-05
440,3.11161e-06,1.29039e-05,2.76053e-05,5.18913e-05,2.35953e-06,3.22181e-05
441,-7.43803e-06,1.81355e-05,2.56784e-05,4.94685e-05,3.33313e-06,2.97569e-05
442,-1.87415e-05,1.89602e-05,2.32367e-05,4.68863e-05,3.9461e-06,2.36187e-05
443,-1.70646e-05,1.54915e-05,2.41654e-05,4.20701e-05,1.14591e-06,1.84145e-05
444,8.15821e-07,1.14714e-05,3.15376e-05,3.9415e-05,-1.02687e-06,2.03092e-05
445,9.04837e-06,1.05352e-05,3.55633e-05,3.78278e-05,-9.02038e-07,2.26207e-05
446,6.25651e-06,1.48263e-05,3.80833e-05,3.98394e-05,-1.92295e-08,2.35543e-05
447,7.59185e-06,1.79636e-05,4.65758e-05,4.5806e-05,1.91564e-06,2.41939e-05
448,8.28235e-06,1.87557e-05,5.53839e-05,4.75955e-05,4.04402e-06,2.32523e-05
449,5.42656e-06,2.00889e-05,5.81957e-05,4.52555e-05,3.50297e-06,2.28216e-05
450,-6.22204e-06,1.7689e-05,4.93425e-05,4.21851e-05,-1.70937e-07,2.14085e-05
451,-1.92556e-05,8.78033e-06,3.52076e-05,3.99391e-05,-3.50571e-06,1.92004e-05
452,-1.77365e-05,3.70201e-06,3.02657e-05,3.82882e-05,-3.597e-06,1.79358e-05
453,-7.54991e-06,6.65191e-06,3.61121e-05,3.5416e-05,-7.15641e-08,1.95864e-05
454,-1.47438e-06,1.35364e-05,4.28374e-05,3.02599e-05,1.98697e-06,2.29571e-05
455,-2.55247e-07,1.9215e-05,4.36275e-05,2.74785e-05,1.15813e-06,2.45448e-05
456,-5.19992e-06,1.9577e-05,4.08569e-05,3.09239e-05,1.7129e-06,2.29353e-05
457,-1.38086e-05,1.58164e-05,4.01616e-05,3.87537e-05,4.10011e-06,1.87116e-05
458,-1.50031e-05,1.35099e-05,4.59631e-05,4.41401e-05,5.76746e-06,1.54157e-05
459,-7.48297e-06,1.50125e-05,5.45424e-05,4.45084e-05,7.29044e-06,1.54997e-05
460,-3.26441e-06,1.68169e-05,5.63104e-05,4.28404e-05,7.12695e-06,1.66806e-05
461,-7.16884e-06,1.7602e-05,5.05031e-05,4.17649e-05,2.07946e-06,1.77922e-05
462,-1.42014e-05,1.61062e-05,4.24705e-05,4.16515e-05,-5.70929e-06,1.90238e-05
463,-1.90779e-05,1.15993e-05,3.61433e-05,4.09689e-05,-1.11764e-05,1.73984e-05
464,-1.37532e-05,7.5488e-06,3.45762e-05,4.08088e-05,-1.27878e-05,1.37777e-05
465,-1.18424e-06,7.07961e-06,3.63386e-05,4.27295e-05,-1.19442e-05,1.18171e-05
466,6.1248e-06,7.25007e-06,3.82376e-05,4.2978e-05,-1.00401e-05,1.22185e-05
467,5.50854e-06,8.50972e-06,3.89105e-05,3.95604e-05,-8.58679e-06,1.37471e-05
468,-1.7657e-06,1.08984e-05,3.75302e-05,3.85406e-05,-7.49986e-06,1.40508e-05
469,-1.46964e-05,8.392e-06,3.36492e-05,4.17135e-05,-6.80248e-06,1.18891e-05
470,-1.47357e-05,1.65069e-06,3.37638e-05,4.38514e-05,-8.25054e-06,9.98937e-06
471,7.48458e-07,1.05831e-06,3.54747e-05,4.2785e-05,-9.79385e-06,1.12611e-05
472,4.70994e-06,4.57486e-06,3.06973e-05,4.25956e-05,-6.56632e-06,1.27084e-05
473,-1.71579e-06,9.42358e-06,2.47416e-05,4.34857e-05,-3.25423e-06,1.16495e-05
474,-4.34875e-06,1.52293e-05,2.59534e-05,4.24818e-05,-2.51457e-06,1.00454e-05
475,-3.9867e-06,1.941e-05,3.02832e-05,3.89209e-05,-2.99263e-06,1.12073e-05
476,-2.01081e-06,2.36442e-05,2.99306e-05,3.56177e-05,-4.70282e-06,1.35665e-05
477,-6.94906e-06,2.43723e-05,2.40397e-05,3.78281e-05,-6.21334e-06,1.41287e-05
478,-1.45034e-05,2.04001e-05,2.12652e-05,4.29037e-05,-6.06553e-06,1.45536e-05
479,-1.10738e-05,1.81349e-05,2.77463e-05,4.39504e-05,-5.69641e-06,1.4303e-05
480,-1.04403e-06,1.88812e-05,3.58001e-05,4.07962e-05,-6.51573e-06,1.40816e-05
481,2.87539e-06,1.95032e-05,3.93915e-05,3.92319e-05,-7.93873e-06,1.37419e-05
482,-8.52763e-07,2.16188e-05,4.06107e-05,4.11743e-05,-9.30029e-06,1.40902e-05
483,-1.1519e-05,2.3632e-05,3.84778e-05,4.36736e-05,-9.11216e-06,1.3413e-05
484,-2.10145e-05,2.26726e-05,3.14823e-05,4.62487e-05,-8.26062e-06,1.16841e-05
485,-1.76179e-05,1.88498e-05,2.89348e-05,4.79393e-05,-7.88006e-06,1.18559e-05
486,-3.72311e-06,1.27143e-05,3.51111e-05,4.68213e-05,-8.22511e-06,1.45419e-05
487,6.9111e-06,9.13599e-06,4.24259e-05,4.4018e-05,-8.51159e-06,1.67472e-05
488,7.06982e-06,1.09876e-05,4.46799e-05,4.4445e-05,-8.47695e-06,1.71519e-05
489,-2.5835e-06,1.32969e-05,4.17473e-05,4.94634e-05,-6.95664e-06,1.66874e-05
490,-1.44607e-05,1.17822e-05,3.65441e-05,5.51436e-05,-3.38967e-06,1.46811e-05
491,-1.37171e-05,1.32703e-05,3.53514e-05,5.68344e-05,-1.38492e-06,1.37387e-05
492,-4.18279e-07,2.18588e-05,3.96782e-05,5.65391e-05,-5.40061e-06,1.61744e-05
493,8.95326e-06,2.91606e-05,4.35869e-05,5.52771e-05,-1.13791e-05,1.89267e-05
494,5.84633e-06,3.06569e-05,4.50217e-05,4.99709e-05,-1.2669e-05,1.82458e-05
495,-4.15302e-06,2.72855e-05,4.50007e-05,4.59073e-05,-9.33263e-06,1.71155e-05
496,-1.75041e-05,1.94203e-05,4.39134e-05,4.83311e-05,-4.23712e-06,1.67643e-05
497,-1.98986e-05,1.43205e-05,4.41636e-05,5.42545e-05,-2.79092e-07,1.69003e-05
498,-5.34226e-06,1.45593e-05,4.4504e-05,5.97049e-05,-6.99105e-07,1.75959e-05
499,2.65005e-06,1.42355e-05,3.90002e-05,6.01829e-05,-6.61394e-06,1.71269e-05
500,-1.8006e-06,1.07203e-05,3.4138e-05,5.73679e-05,-1.00206e-05,1.51059e-05
501,-8.05629e-06,7.58995e-06,3.5727e-05,5.5247e-05,-5.29762e-06,1.5783e-05
502,-1.03117e-05,1.14268e-05,3.88424e-05,5.42842e-05,1.00692e-06,1.83803e-05
503,-7.64286e-06,1.76519e-05,4.11452e-05,5.4922e-05,1.49077e-06,1.78842e-05
504,-1.23588e-05,1.71495e-05,4.23104e-05,5.61958e-05,9.56667e-07,1.37685e-05
505,-2.26468e-05,1.03492e-05,4.43387e-05,5.84073e-05,2.38145e-06,1.01033e-05
506,-2.16087e-05,6.41554e-06,5.16524e-05,6.01164e-05,1.25349e-06,1.07722e-05
507,-8.51499e-06,7.73334e-06,5.95435e-05,6.20025e-05,-1.38912e-06,1.3388e-05
508,4.58997e-07,1.41127e-05,6.12981e-05,6.35591e-05,-4.02846e-06,1.41411e-05
509,-9.88873e-07,2.14553e-05,5.7174e-05,6.56174e-05,-7.48464e-06,1.32419e-05
510,-1.18868e-05,2.36712e-05,4.92245e-05,6.6259e-05,-1.25217e-05,9.47788e-06
511,-2.33145e-05,1.82311e-05,4.12482e-05,6.56052e-05,-1.6962e-05,5.35687e-06
512,-2.25688e-05,1.19929e-05,3.68337e-05,6.55772e-05,-1.70849e-05,5.25897e-06
513,-8.20301e-06,1.12077e-05,3.68482e-05,6.62833e-05,-1.25246e-05,9.88456e-06
514,4.27822e-06,1.5144e-05,3.88879e-05,6.6844e-05,-9.11307e-06,1.46371e-05
515,4.29649e-06,2.18594e-05,4.18201e-05,6.40553e-05,-1.08594e-05,1.57116e-05
516,-4.34106e-06,2.63805e-05,4.13982e-05,5.9628e-05,-1.42756e-05,1.37857e-05
517,-1.6078e-05,2.30951e-05,3.58873e-05,5.8268e-05,-1.57411e-05,9.66286e-06
518,-2.0205e-05,1.55986e-05,3.29005e-05,6.03659e-05,-1.69025e-05,6.24004e-06
519,-1.25916e-05,1.29344e-05,3.59516e-05,6.09315e-05,-2.02191e-05,5.8233e-06
520,-3.42083e-06,1.51605e-05,4.00228e-05,5.93505e-05,-2.51895e-05,6.71394e-06
521,-1.62733e-06,1.90725e-05,4.33821e-05,5.80832e-05,-2.58876e-05,4.97691e-06
522,-9.21141e-06,2.06655e-05,4.64209e-05,6.05238e-05,-1.99213e-05,3.21614e-06
523,-2.44988e-05,1.64754e-05,4.58235e-05,6.35756e-05,-1.5344e-05,1.52222e-06
524,-2.78011e-05,8.79789e-06,4.84757e-05,6.13042e-05,-1.55963e-05,-8.20055e-07
525,-1.44138e-05,6.42615e-06,5.89374e-05,5.64456e-05,-1.56623e-05,1.92574e-07
526,-9.08698e-06,6.65848e-06,6.23019e-05,5.68439e-05,-1.32195e-05,1.12999e-06
527,-1.21953e-05,6.86761e-06,5.85437e-05,5.85076e-05,-1.18152e-05,1.51801e-06
528,-1.13348e-05,8.62045e-06,5.64098e-05,5.61656e-05,-1.1341e-05,4.65304e-06
529,-7.62497e-06,1.64022e-05,5.73353e-05,5.28548e-05,-1.0115e-05,7.04412e-06
530,-6.95622e-06,2.45476e-05,5.67808e-05,4.99813e-05,-1.01197e-05,5.39308e-06
531,-1.59486e-05,2.33159e-05,4.66681e-05,4.91922e-05,-1.22479e-05,1.41752e-06
532,-2.55288e-05,1.51313e-05,3.60336e-05,4.82838e-05,-1.44292e-05,-1.05509e-08
533,-2.00881e-05,9.68122e-06,3.77753e-05,4.61468e-05,-1.49393e-05,3.31119e-06
534,-4.71775e-06,1.15567e-05,4.75837e-05,4.53135e-05,-1.30556e-05,7.29553e-06
535,2.74857e-06,1.39816e-05,5.18026e-05,4.54044e-05,-1.07238e-05,8.02739e-06
536,3.33806e-06,1.50853e-05,4.7045e-05,4.62521e-05,-9.39961e-06,7.07164e-06
537,-2.24359e-06,1.4381e-05,3.70191e-05,4.85718e-05,-1.12843e-05,5.76376e-06
538,-1.04357e-05,1.20991e-05,2.88293e-05,5.22139e-05,-1.6964e-05,6.9911e-06
539,-1.05006e-05,9.64121e-06,3.05081e-05,5.41906e-05,-2.07472e-05,1.19718e-05
540,-3.85812e-07,6.86601e-06,4.13973e-05,5.22307e-05,-1.86099e-05,1.81352e-05
541,8.98445e-06,4.83898e-06,4.8083e-05,4.99043e-05,-1.29105e-05,2.08378e-05
542,7.91523e-06,6.00651e-06,4.17956e-05,5.06002e-05,-9.61545e-06,1.8283e-05
543,-3.20631e-06,8.86295e-06,2.78029e-05,5.32107e-05,-9.91976e-06,1.30963e-05
544,-1.72827e-05,9.05005e-06,1.81658e-05,5.43964e-05,-1.16919e-05,1.16453e-05
545,-1.96975e-05,8.84532e-06,2.21674e-05,5.28356e-05,-1.25964e-05,1.44506e-05
546,-9.31642e-06,9.64535e-06,3.33908e-05,5.08574e-05,-1.24296e-05,1.56145e-05
547,-4.41142e-07,8.14318e-06,3.89531e-05,4.99972e-05,-1.05732e-05,1.51829e-05
548,4.17252e-07,8.89442e-06,3.76776e-05,5.15442e-05,-8.15119e-06,1.57701e-05
549,-3.3507e-06,1.15039e-05,3.39814e-05,5.32722e-05,-7.24293e-06,1.85049e-05
550,-1.38362e-05,1.05131e-05,2.66685e-05,5.22443e-05,-7.49327e-06,2.14884e-05
551,-1.75518e-05,6.54106e-06,2.33908e-05,4.97809e-05,-7.42188e-06,2.39316e-05
552,-3.41825e-06,1.88811e-06,2.76705e-05,4.78374e-05,-9.02729e-06,2.62971e-05
553,4.93432e-06,-1.67416e-06,2.92058e-05,4.6465e-05,-1.24418e-05,2.58931e-05
554,1.63634e-06,-2.23236e-06,2.83307e-05,4.23941e-05,-1.41929e-05,2.40279e-05
555,-2.15305e-06,-2.71165e-06,2.90405e-05,3.71968e-05,-1.53549e-05,2.40686e-05
556,-3.37257e-06,-5.20656e-06,2.91316e-05,3.37456e-05,-1.77518e-05,2.34921e-05
557,-1.69441e-06,-3.92763e-06,2.79172e-05,3.27896e-05,-2.17512e-05,1.93828e-05
558,-9.1962e-06,-1.33703e-06,2.48034e-05,3.36332e-05,-2.37918e-05,1.44637e-05
559,-1.91262e-05,-2.17248e-06,1.87426e-05,3.5307e-05,-2.23187e-05,1.44083e-05
560,-1.7297e-05,-4.93272e-06,1.51132e-05,3.96781e-05,-1.8129e-05,1.87261e-05
561,-7.60271e-06,-5.50697e-06,1.68681e-05,4.56511e-05,-1.60757e-05,2.28122e-05
562,-4.39941e-06,-1.25165e-06,1.97462e-05,4.76724e-05,-1.6878e-05,2.28322e-05
563,-7.59435e-06,6.17994e-06,2.22463e-05,4.60516e-05,-1.59804e-05,1.91392e-05
564,-1.4621e-05,1.34211e-05,1.99981e-05,4.42728e-05,-1.23638e-05,1.40894e-05
565,-2.12475e-05,1.75892e-05,1.43843e-05,4.20544e-05,-8.30116e-06,9.20021e-06
566,-1.9142e-05,2.09586e-05,1.60199e-05,3.87212e-05,-6.29759e-06,5.13415e-06
567,-9.96551e-06,2.45399e-05,2.667e-05,3.66331e-05,-7.87378e-06,3.6153e-06
568,-3.05252e-06,2.97212e-05,3.48637e-05,3.69293e-05,-1.25661e-05,4.56896e-06
569,-2.55552e-06,3.60898e-05,3.5979e-05,3.7849e-05,-1.70729e-05,6.12635e-06
570,-7.7794e-06,3.92766e-05,3.40551e-05,3.8288e-05,-1.90507e-05,6.25679e-06
571,-1.61056e-05,3.54092e-05,3.23195e-05,3.73603e-05,-1.81604e-05,4.64654e-06
572,-1.65757e-05,2.93744e-05,3.56381e-05,3.70187e-05,-1.70838e-05,4.34989e-06
573,-8.27962e-06,2.76439e-05,4.60979e-05,3.63634e-05,-1.56115e-05,6.88538e-06
574,-2.19088e-06,2.86186e-05,5.35671e-05,3.46111e-05,-1.28045e-05,8.39476e-06
575,-2.43043e-06,3.06998e-05,4.85416e-05,3.47503e-05,-1.00158e-05,5.74674e-06
576,-6.45155e-06,2.9694e-05,3.76358e-05,3.72184e-05,-8.75207e-06,1.04568e-06
577,-1.76824e-05,2.05225e-05,2.98435e-05,4.07034e-05,-1.08109e-05,-2.93085e-06
578,-2.0976e-05,1.01805e-05,3.13884e-05,4.25062e-05,-1.15932e-05,-3.41907e-06
579,-8.66573e-06,4.58994e-06,4.35797e-05,4.13693e-05,-7.67235e-06,2.19451e-07
580,-2.58848e-07,2.93762e-06,5.39868e-05,4.05939e-05,-4.69685e-06,5.40203e-06
581,3.58536e-08,3.41085e-06,5.85476e-05,4.0902e-05,-2.4601e-06,7.85278e-06
582,1.05401e-06,3.02578e-06,5.81208e-05,4.28485e-05,-3.4657e-07,7.60819e-06
583,2.71322e-06,3.88221e-06,5.03091e-05,4.4368e-05,6.15796e-08,8.47346e-06
584,1.44678e-06,8.44745e-06,4.39529e-05,4.28364e-05,-1.26403e-07,9.43138e-06
585,-6.26773e-06,1.10603e-05,4.24007e-05,4.28297e-05,-9.07891e-07,8.15995e-06
586,-1.31216e-05,5.52795e-06,4.14192e-05,4.62944e-05,-3.54886e-06,6.73956e-06
587,-7.21699e-06,-7.72438e-07,4.12947e-05,5.10699e-05,-7.96599e-06,6.46512e-06
588,4.24386e-06,-2.32092e-06,4.12096e-05,5.33625e-05,-1.09095e-05,7.47678e-06
589,7.2003e-06,-9.53892e-08,3.82487e-05,5.13371e-05,-9.50187e-06,1.00511e-05
590,1.51525e-06,2.47959e-06,3.69856e-05,4.7348e-05,-6.3293e-06,1.06422e-05
591,-9.38173e-06,1.39295e-06,3.70535e-05,4.60845e-05,-3.80338e-06,7.93901e-06
592,-1.83247e-05,-5.34624e-06,3.67878e-05,5.03637e-05,-3.03183e-06,5.6114e-06
593,-1.69933e-05,-1.14557e-05,3.68942e-05,5.65363e-05,-3.44048e-06,5.15942e-06
594,-7.28423e-06,-1.2062e-05,3.69609e-05,5.90458e-05,-2.62803e-06,5.71149e-06
595,-1.52666e-06,-8.48747e-06,3.69191e-05,5.82572e-05,-2.16783e-07,5.73095e-06
596,-3.64307e-06,-4.15105e-06,3.69602e-05,5.7982e-05,2.76039e-06,6.03514e-06
597,-9.49656e-06,-7.36878e-07,3.47204e-05,5.90373e-05,3.86674e-06,7.08967e-06
598,-1.53989e-05,-1.22935e-07,3.01957e-05,5.95334e-05,2.6766e-06,8.29179e-06
599,-1.21299e-05,-3.84093e-06,3.21453e-05,5.78805e-05,2.55715e-06,8.15274e-06
600,9.75213e-07,-7.79921e-06,4.25091e-05,5.3632e-05,4.41492e-06,7.41643e-06
601,1.0769e-05,-5.51392e-06,5.10315e-05,5.01961e-05,4.92503e-06,7.81064e-06
602,1.11019e-05,3.85861e-06,5.04713e-05,5.207e-05,2.8699e-06,9.04674e-06
603,2.57607e-06,8.93927e-06,4.5329e-05,5.72842e-05,1.08056e-06,9.21178e-06
604,-1.13872e-05,5.63932e-06,3.86184e-05,6.28268e-05,2.04736e-06,6.67095e-06
605,-1.39198e-05,1.62874e-06,3.5454e-05,6.6369e-05,3.83948e-06,5.2126e-06
606,6.07425e-07,6.02143e-06,3.81988e-05,6.42073e-05,4.18698e-06,7.32634e-06
607,1.18551e-05,1.50831e-05,3.71988e-05,6.02643e-05,1.05567e-06,1.20765e-05
608,1.23593e-05,1.76364e-05,3.21841e-05,5.75129e-05,-2.18659e-06,1.71347e-05
609,8.60193e-06,1.567e-05,2.91143e-05,5.59983e-05,-4.20602e-06,1.80755e-05
610,3.78167e-06,1.76736e-05,2.89593e-05,5.82725e-05,-3.40898e-06,1.64604e-05
611,1.05598e-07,2.27362e-05,2.94438e-05,5.96191e-05,1.5806e-07,1.87822e-05
612,-8.16142e-06,2.4366e-05,2.79791e-05,5.78394e-05,1.63672e-06,2.23026e-05
613,-1.47992e-05,2.19633e-05,2.75914e-05,5.59293e-05,-1.98193e-06,2.29023e-05
614,-1.19201e-05,2.03052e-05,3.01553e-05,5.28174e-05,-7.76465e-06,2.25992e-05
615,-1.81273e-06,2.05721e-05,3.28771e-05,4.93256e-05,-1.14172e-05,2.25316e-05
616,3.73845e-06,2.46543e-05,3.4478e-05,5.07842e-05,-1.20629e-05,2.29717e-05
617,1.60154e-06,3.18623e-05,3.61473e-05,5.54802e-05,-1.18415e-05,2.37874e-05
618,-7.29981e-06,3.66474e-05,3.3724e-05,6.13775e-05,-1.54448e-05,2.26487e-05
619,-1.65932e-05,3.53361e-05,2.9254e-05,6.75112e-05,-2.13688e-05,1.75588e-05
620,-1.41446e-05,2.98978e-05,3.07294e-05,7.02786e-05,-2.52594e-05,1.22592e-05
621,-3.16192e-06,2.63387e-05,3.64358e-05,6.83331e-05,-2.5009e-05,1.10009e-05
622,2.83056e-06,3.02059e-05,3.7133e-05,6.54014e-05,-2.33229e-05,1.15645e-05
623,7.88284e-08,3.7619e-05,3.31997e-05,6.52754e-05,-2.03444e-05,1.12748e-05
624,-8.71973e-06,3.89617e-05,2.86018e-05,6.71753e-05,-1.54857e-05,1.04127e-05
625,-1.96462e-05,3.29438e-05,2.42231e-05,6.73276e-05,-1.1087e-05,7.97077e-06
626,-1.783e-05,2.60856e-05,2.48411e-05,6.29043e-05,-9.55195e-06,4.03784e-06
627,-3.32641e-06,2.31662e-05,3.14362e-05,5.5182e-05,-1.01204e-05,3.28444e-06
628,3.76951e-06,2.32462e-05,3.59349e-05,4.78966e-05,-1.17112e-05,6.55288e-06
629,-2.72276e-06,2.20028e-05,3.07762e-05,4.73986e-05,-1.4197e-05,9.99954e-06
630,-1.53009e-05,1.95326e-05,1.91351e-05,5.30268e-05,-1.62126e-05,1.13821e-05
631,-3.00271e-05,1.56237e-05,1.0542e-05,5.6712e-05,-1.58272e-05,9.8824e-06
632,-2.96896e-05,1.01018e-05,1.44057e-05,5.47709e-05,-1.50365e-05,8.02994e-06
633,-9.48766e-06,8.34594e-06,2.48479e-05,5.26893e-05,-1.52966e-05,9.70739e-06
634,1.01727e-06,8.05228e-06,2.78646e-05,4.96262e-05,-1.66981e-05,9.84828e-06
635,-6.07828e-08,1.01292e-05,2.67299e-05,4.67973e-05,-2.12402e-05,7.61265e-06
636,2.28436e-06,1.30727e-05,2.84487e-05,4.70604e-05,-2.30424e-05,8.22005e-06
637,3.00312e-06,1.60144e-05,3.10322e-05,4.97169e-05,-1.69618e-05,8.30999e-06
638,2.73748e-06,2.24681e-05,3.21657e-05,5.0782e-05,-9.82816e-06,7.38471e-06
639,-5.1257e-06,2.7618e-05,2.98055e-05,4.83353e-05,-5.9452e-06,9.76023e-06
640,-1.58039e-05,2.58502e-05,2.6173e-05,4.6052e-05,-3.75919e-06,1.51436e-05
641,-1.82261e-05,1.82053e-05,2.56428e-05,4.34045e-05,-3.49941e-06,1.80301e-05
642,-1.23348e-05,9.68367e-06,2.8464e-05,4.27304e-05,-2.31997e-06,1.4966e-05
643,-8.15009e-06,5.96674e-06,3.37566e-05,4.33918e-05,-1.14529e-06,7.25568e-06
644,-7.76911e-06,1.031e-05,4.11344e-05,4.53557e-05,-3.44762e-06,1.43914e-06
645,-1.14656e-05,1.63507e-05,4.28869e-05,4.65905e-05,-7.95593e-06,7.72679e-07
646,-1.87852e-05,1.87447e-05,3.89176e-05,4.72941e-05,-1.00792e-05,3.42447e-06
647,-2.02109e-05,1.85277e-05,4.00202e-05,4.95762e-05,-8.9707e-06,7.41814e-06
648,-1.27608e-05,1.67361e-05,4.73316e-05,5.19636e-05,-7.43463e-06,1.09183e-05
649,-6.1948e-06,1.47651e-05,5.24196e-05,5.26647e-05,-7.48948e-06,1.15055e-05
650,-5.81781e-06,1.4174e-05,5.17953e-05,5.02291e-05,-7.76e-06,8.82061e-06
651,-1.02827e-05,1.28562e-05,4.69233e-05,4.64064e-05,-7.83308e-06,6.72333e-06
652,-1.99548e-05,9.07692e-06,3.99107e-05,4.32067e-05,-8.26894e-06,7.19514e-06
653,-2.15437e-05,8.19768e-06,3.60476e-05,4.13981e-05,-8.3417e-06,9.5465e-06
654,-1.02014e-05,1.23057e-05,3.73394e-05,4.03843e-05,-7.42396e-06,1.1418e-05
655,4.93085e-07,1.49045e-05,3.92483e-05,3.95761e-05,-5.86047e-06,1.07463e-05
656,2.87982e-06,1.21808e-05,3.66616e-05,3.79862e-05,-4.24297e-06,9.38238e-06
657,-4.28302e-06,7.83525e-06,3.04717e-05,3.68139e-05,-3.2113e-06,1.02414e-05
658,-2.22692e-05,2.22136e-06,2.60021e-05,3.7558e-05,-4.5396e-06,9.88853e-06
659,-2.81435e-05,-2.09024e-06,2.93299e-05,3.98574e-05,-7.68274e-06,6.61043e-06
660,-1.46649e-05,-2.02766e-06,3.90477e-05,4.03609e-05,-1.04227e-05,5.94134e-06
661,-5.84047e-06,-1.91103e-07,4.42277e-05,3.76917e-05,-1.09328e-05,9.87146e-06
662,-6.62457e-06,-1.35859e-07,4.44347e-05,3.70968e-05,-1.02954e-05,1.28346e-05
663,-4.56718e-06,2.78863e-07,4.38161e-05,3.8362e-05,-1.03821e-05,1.3142e-05
664,1.92399e-06,5.32231e-06,4.23821e-05,3.8865e-05,-1.207e-05,1.35209e-05
665,7.15531e-06,1.08268e-05,4.12521e-05,3.86479e-05,-1.47764e-05,1.51517e-05
666,-5.77967e-07,1.28683e-05,3.7983e-05,3.79838e-05,-1.71321e-05,1.50164e-05
667,-1.20393e-05,9.60131e-06,3.59567e-05,3.94951e-05,-1.60315e-05,1.12513e-05
668,-9.05606e-06,5.35555e-06,3.87247e-05,4.27529e-05,-1.18878e-05,9.0658e-06
669,2.53467e-06,1.51448e-06,4.34485e-05,4.71597e-05,-7.23973e-06,9.88329e-06
670,6.29334e-06,1.60421e-06,4.55555e-05,4.93931e-05,-4.35604e-06,1.06388e-05
671,7.10488e-08,8.29304e-06,4.35972e-05,4.74445e-05,-2.35337e-06,9.50744e-06
672,-1.24222e-05,1.53866e-05,3.97256e-05,4.47913e-05,2.26182e-07,7.62931e-06
673,-2.30957e-05,1.66523e-05,3.90579e-05,4.652e-05,8.32534e-07,6.98357e-06
674,-1.98638e-05,1.43639e-05,4.45768e-05,5.01678e-05,-1.2781e-06,5.9501e-06
675,-6.34494e-06,1.20984e-05,5.05516e-05,5.24732e-05,-1.39644e-06,3.84431e-06
676,3.12675e-06,1.21953e-05,5.06687e-05,5.37977e-05,2.76734e-06,2.12952e-06
677,1.31883e-06,1.6791e-05,4.68773e-05,5.28968e-05,6.54698e-06,1.96621e-06
678,-8.84262e-06,2.10659e-05,4.32087e-05,4.86561e-05,5.34567e-06,1.43247e-06
679,-2.12476e-05,2.04496e-05,3.94281e-05,4.40522e-05,9.4486e-07,-1.71553e-06
680,-2.25802e-05,1.66437e-05,4.04949e-05,4.26269e-05,-2.59672e-06,-4.55661e-06
681,-1.00424e-05,1.47867e-05,4.85792e-05,4.29386e-05,-4.52657e-06,-3.44628e-06
682,1.88877e-06,1.57478e-05,5.47818e-05,4.48751e-05,-4.89444e-06,-1.20265e-06
683,4.18391e-06,1.8796e-05,5.6271e-05,4.6459e-05,-4.33075e-06,-4.78798e-07
684,-2.05392e-06,2.10284e-05,5.55001e-05,4.84238e-05,-1.95863e-06,2.04104e-07
685,-1.51506e-05,1.81596e-05,5.12435e-05,5.13569e-05,3.23009e-06,-2.13982e-08
686,-1.68567e-05,9.76893e-06,4.81209e-05,5.39747e-05,7.06257e-06,-2.47283e-07
687,-2.54414e-06,2.31876e-06,4.87636e-05,5.47963e-05,4.23068e-06,3.98258e-06
688,6.01378e-06,2.6968e-06,4.49594e-05,5.23289e-05,-7.36668e-07,1.18224e-05
689,5.99857e-06,6.33965e-06,3.94479e-05,5.09533e-05,-2.94048e-06,1.74285e-05
690,5.49846e-06,7.12387e-06,3.73306e-05,5.38734e-05,-3.37912e-06,2.00159e-05
691,4.86608e-06,1.07964e-05,3.8604e-05,5.80522e-05,-1.93269e-06,1.98563e-05
692,5.62048e-06,1.60063e-05,4.30287e-05,6.11897e-05,7.76979e-07,1.80066e-05
693,1.71542e-06,1.77905e-05,4.39337e-05,6.20048e-05,-8.09179e-07,1.81086e-05
694,-6.92848e-06,1.41458e-05,3.93561e-05,6.18953e-05,-7.27437e-06,2.05567e-05
695,-6.97365e-06,8.94934e-06,3.69658e-05,6.2065e-05,-1.13254e-05,2.41929e-05
696,4.32972e-06,6.59259e-06,4.2511e-05,6.27934e-05,-1.24595e-05,2.6986e-05
697,1.22532e-05,1.09561e-05,4.76825e-05,6.18375e-05,-1.46565e-05,2.87168e-05
698,1.00217e-05,1.95688e-05,4.85013e-05,6.03823e-05,-1.55718e-05,2.96989e-05
699,-2.60033e-06,2.15367e-05,4.69941e-05,6.07284e-05,-1.38747e-05,2.89178e-05
700,-1.49632e-05,1.5435e-05,4.72267e-05,5.97785e-05,-1.12659e-05,2.79952e-05
701,-1.44613e-05,1.16396e-05,5.18576e-05,5.61783e-05,-1.05635e-05,2.70417e-05
702,-3.93515e-06,1.40465e-05,5.76305e-05,5.27707e-05,-1.09171e-05,2.48326e-05
703,3.58874e-06,1.57773e-05,5.8718e-05,5.16875e-05,-9.39209e-06,2.22481e-05
704,3.94093e-06,1.34981e-05,5.38498e-05,5.05029e-05,-5.91451e-06,2.20206e-05
705,-8.61765e-07,1.0602e-05,4.45143e-05,4.83464e-05,-3.35828e-06,2.41182e-05
706,-1.03896e-05,8.11955e-06,3.43584e-05,4.54971e-05,-3.85875e-06,2.6539e-05
707,-1.41218e-05,5.34603e-06,3.2609e-05,4.19411e-05,-5.13507e-06,2.89209e-05
708,-7.52584e-06,5.11482e-06,3.85791e-05,3.79362e-05,-4.14045e-06,3.22417e-05
709,-1.72286e-06,6.6964e-06,4.20749e-05,3.53139e-05,-3.16406e-06,3.52422e-05
710,-5.45024e-06,7.55125e-06,4.16522e-05,3.43945e-05,-5.3092e-06,3.37501e-05
711,-1.55145e-05,6.0699e-06,4.04397e-05,3.49628e-05,-7.67336e-06,2.70978e-05
712,-2.87739e-05,5.01352e-06,3.60697e-05,3.73501e-05,-7.31107e-06,2.11345e-05
713,-2.77837e-05,5.80079e-06,3.46325e-05,4.07759e-05,-6.95787e-06,2.00995e-05
714,-8.97702e-06,9.06168e-06,3.68338e-05,4.42604e-05,-8.42504e-06,2.29307e-05
715,2.46759e-06,1.05939e-05,3.75633e-05,4.33913e-05,-8.00806e-06,2.44071e-05
716,5.04808e-06,7.17354e-06,3.96233e-05,3.97097e-05,-4.84382e-06,2.21945e-05
717,7.21267e-06,7.96105e-07,4.19288e-05,3.73729e-05,-2.21891e-06,1.99622e-05
718,6.63041e-06,-2.3073e-06,4.04838e-05,3.62777e-05,-5.06345e-06,1.94944e-05
719,5.11145e-06,2.02294e-06,3.76766e-05,3.66909e-05,-7.85223e-06,1.85101e-05
720,-2.25933e-06,1.01008e-05,3.20828e-05,3.7497e-05,-8.10211e-06,1.36776e-05
721,-1.10697e-05,1.47016e-05,2.65053e-05,3.79211e-05,-1.01897e-05,7.53929e-06
722,-8.33008e-06,1.55778e-05,2.86723e-05,3.67399e-05,-1.52119e-05,6.99675e-06
723,6.132e-06,1.74938e-05,3.68089e-05,3.60262e-05,-2.08928e-05,1.21286e-05
724,1.72697e-05,2.21181e-05,4.31127e-05,3.58731e-05,-2.29838e-05,1.5745e-05
725,1.91415e-05,2.74069e-05,4.54891e-05,3.72843e-05,-1.86728e-05,1.56961e-05
726,8.50107e-06,2.94723e-05,4.38629e-05,4.04439e-05,-1.12045e-05,1.12095e-05
727,-7.43474e-06,2.67502e-05,4.03557e-05,4.34711e-05,-5.81123e-06,6.05611e-06
728,-1.299e-05,2.39161e-05,4.21955e-05,4.52229e-05,-4.86474e-06,3.87983e-06
729,-4.93996e-06,2.36075e-05,4.86768e-05,4.58925e-05,-8.09208e-06,4.09723e-06
730,2.79882e-06,2.55609e-05,5.32879e-05,4.65541e-05,-1.06938e-05,3.79699e-06
731,-1.24376e-06,3.12071e-05,5.23401e-05,4.54951e-05,-9.33178e-06,2.64097e-06
732,-1.33277e-05,3.84764e-05,4.71011e-05,4.39341e-05,-6.1175e-06,2.23928e-06
733,-2.33523e-05,4.01947e-05,3.90664e-05,4.46013e-05,-4.44861e-06,3.00894e-06
734,-1.82908e-05,3.47073e-05,3.26489e-05,4.69688e-05,-4.11562e-06,5.03903e-06
735,-3.88421e-06,2.86643e-05,3.09081e-05,4.97524e-05,-3.31788e-06,6.69069e-06
736,3.27969e-06,2.65546e-05,3.17653e-05,5.23711e-05,-1.40396e-06,7.12757e-06
737,-4.4209e-07,2.8955e-05,3.13084e-05,5.27011e-05,-2.27359e-06,6.90498e-06
738,-9.31886e-06,2.88842e-05,2.78396e-05,5.28883e-05,-4.19927e-06,6.90269e-06
739,-2.13678e-05,2.1156e-05,2.08652e-05,5.54917e-05,-4.95808e-06,7.55566e-06
740,-2.03084e-05,1.26752e-05,1.55282e-05,5.94798e-05,-5.13196e-06,1.12993e-05
741,-3.84917e-06,1.27585e-05,1.52877e-05,6.22604e-05,-5.4658e-06,1.65476e-05
742,2.20995e-06,1.79001e-05,1.20303e-05,6.19796e-05,-7.67622e-06,2.12808e-05
743,-3.0585e-06,1.96115e-05,1.06373e-05,5.88531e-05,-1.25655e-05,2.36419e-05
744,-5.00839e-06,1.63583e-05,1.57202e-05,5.5424e-05,-1.65039e-05,2.39731e-05
745,-3.17823e-06,1.56271e-05,1.80566e-05,5.48969e-05,-1.54629e-05,2.20162e-05
746,-1.90351e-06,1.78926e-05,1.47648e-05,5.36745e-05,-1.42315e-05,1.57716e-05
747,-8.03213e-06,1.94127e-05,1.05559e-05,5.14078e-05,-1.62307e-05,8.71137e-06
748,-1.42929e-05,1.64162e-05,9.43665e-06,5.18329e-05,-1.75316e-05,5.79453e-06
749,-9.48648e-06,9.4207e-06,1.24256e-05,5.18983e-05,-1.61113e-05,7.10148e-06
750,1.41792e-06,1.96847e-06,1.70126e-05,5.11077e-05,-1.69034e-05,9.12802e-06
751,7.10267e-06,2.2951e-07,2.00363e-05,4.9408e-05,-2.11847e-05,8.89813e-06
752,3.70416e-06,8.08148e-06,2.29693e-05,4.84513e-05,-2.39954e-05,8.21835e-06
753,-1.04102e-05,1.52974e-05,2.2489e-05,4.9745e-05,-2.32981e-05,6.38476e-06
754,-2.35556e-05,1.60158e-05,1.94665e-05,5.211e-05,-2.12623e-05,2.7993e-06
755,-2.2124e-05,1.3678e-05,1.94868e-05,5.21995e-05,-1.96878e-05,6.21931e-07
756,-9.01186e-06,9.54687e-06,2.38908e-05,4.88142e-05,-1.9259e-05,1.18119e-06
757,-1.18468e-06,4.83462e-06,2.84267e-05,4.43999e-05,-1.9067e-05,3.54492e-06
758,-6.07795e-06,4.6132e-06,3.03451e-05,4.18052e-05,-1.74751e-05,6.76865e-06
759,-1.74039e-05,7.20495e-06,3.00632e-05,4.24764e-05,-1.50946e-05,9.77943e-06
760,-2.74692e-05,6.12451e-06,2.86746e-05,4.50754e-05,-1.44975e-05,1.15497e-05
761,-2.48297e-05,6.57409e-07,3.05318e-05,4.75221e-05,-1.64063e-05,1.34861e-05
762,-1.10853e-05,-1.70409e-06,3.71071e-05,4.87651e-05,-2.04149e-05,1.65681e-05
763,-3.38392e-06,2.50405e-06,4.29577e-05,4.96585e-05,-2.49809e-05,1.90432e-05
764,-8.19179e-06,7.5222e-06,4.37023e-05,5.05081e-05,-2.70703e-05,1.80754e-05
765,-1.93127e-05,8.38283e-06,3.95759e-05,5.25297e-05,-2.60104e-05,1.68112e-05
766,-3.4767e-05,5.28435e-06,3.15848e-05,5.76579e-05,-2.0067e-05,1.59516e-05
767,-3.65852e-05,2.64247e-06,2.91234e-05,6.27606e-05,-1.24066e-05,1.58894e-05
768,-1.64649e-05,2.27285e-06,3.89395e-05,6.30258e-05,-8.5695e-06,1.80573e-05
769,-2.52483e-06,1.07571e-06,4.8233e-05,6.21794e-05,-8.73319e-06,1.61177e-05
770,-1.77211e-06,8.24538e-08,5.01464e-05,6.13323e-05,-1.05547e-05,1.08142e-05
771,-4.13725e-06,3.51008e-07,4.96071e-05,6.0124e-05,-1.08469e-05,8.29048e-06
772,-7.12919e-06,4.1304e-06,4.68928e-05,6.00492e-05,-8.73273e-06,9.43997e-06
773,-5.0259e-06,1.24657e-05,4.54792e-05,6.18159e-05,-5.80635e-06,9.55788e-06
774,-6.37968e-06,1.79467e-05,4.51809e-05,6.3538e-05,-5.63395e-06,4.40514e-06
775,-1.14626e-05,1.50868e-05,4.63698e-05,6.58865e-05,-7.64831e-06,-2.76497e-06
776,-1.14314e-05,8.97778e-06,4.89043e-05,6.65826e-05,-8.45441e-06,-5.47999e-06
777,-5.08345e-06,6.94408e-06,5.01279e-05,6.34427e-05,-6.6339e-06,-2.11146e-06
778,-2.47138e-06,7.76927e-06,4.82236e-05,6.05157e-05,-3.44167e-06,2.92269e-07
779,-3.66589e-06,6.71395e-06,4.61459e-05,6.14382e-05,-2.13177e-07,-8.01442e-07
780,-7.78748e-06,2.21336e-06,4.27341e-05,6.42317e-05,1.65415e-06,-3.27479e-06
781,-1.05132e-05,-4.74598e-06,3.86129e-05,6.49547e-05,-5.71856e-07,-3.88612e-06
782,-4.26945e-06,-1.0257e-05,3.87552e-05,6.34772e-05,-4.9432e-06,-2.21328e-06
783,5.95102e-06,-1.01002e-05,4.29733e-05,6.11924e-05,-7.71838e-06,1.24277e-06
784,1.04476e-05,-4.11298e-06,4.47508e-05,6.01004e-05,-9.28216e-06,4.40644e-06
785,8.03492e-06,2.45903e-06,4.16933e-05,5.93678e-05,-1.1189e-05,5.3475e-06
786,1.90173e-06,3.30967e-06,3.83826e-05,5.71061e-05,-1.28074e-05,6.08032e-06
787,-8.61904e-06,-1.32659e-06,3.72916e-05,5.34811e-05,-1.29832e-05,7.29307e-06
788,-1.31194e-05,-6.58041e-06,4.16451e-05,5.17563e-05,-1.07937e-05,8.95559e-06
789,-4.26334e-06,-9.4604e-06,5.00505e-05,5.12829e-05,-8.49843e-06,1.0651e-05
790,6.16971e-06,-9.58211e-06,5.52678e-05,5.08738e-05,-9.71461e-06,1.20865e-05
791,6.61922e-06,-4.46423e-06,5.29256e-05,4.7257e-05,-1.23369e-05,1.42404e-05
792,6.32595e-07,2.3485e-06,4.62283e-05,4.25666e-05,-1.21462e-05,1.57677e-05
793,-1.1837e-05,3.23432e-06,3.89853e-05,4.17211e-05,-9.13358e-06,1.55865e-05
794,-1.84601e-05,-1.21439e-06,3.89813e-05,4.24012e-05,-7.49423e-06,1.67723e-05
795,-1.08673e-05,-1.8754e-06,4.5837e-05,4.38264e-05,-6.43228e-06,2.05063e-05
796,-5.77091e-06,3.59276e-06,5.06251e-05,4.39904e-05,-4.66296e-06,2.23279e-05
797,-7.45859e-06,7.8314e-06,5.19146e-05,4.30069e-05,-6.48323e-06,2.20529e-05
798,-8.24135e-06,8.60755e-06,5.29673e-05,4.52168e-05,-8.69278e-06,2.29249e-05
799,-4.33169e-06,9.08933e-06,5.06314e-05,4.7461e-05,-7.71385e-06,2.10769e-05
800,3.83799e-06,1.23775e-05,4.56811e-05,4.53165e-05,-4.66927e-06,1.86108e-05
801,1.86534e-06,1.51686e-05,4.20009e-05,4.05809e-05,-3.84772e-06,1.94082e-05
802,-7.83374e-06,1.63877e-05,4.03699e-05,3.69928e-05,-7.05701e-06,2.26255e-05
803,-8.66618e-06,1.80122e-05,4.23734e-05,3.57753e-05,-8.28609e-06,2.50423e-05
804,-1.11236e-06,2.08598e-05,4.53677e-05,3.70778e-05,-4.33728e-06,2.53452e-05
805,2.95269e-06,2.29364e-05,4.51291e-05,4.00213e-05,1.57298e-06,2.18182e-05
806,6.30775e-07,2.40017e-05,4.29853e-05,4.12741e-05,4.12505e-06,1.67467e-05
807,-6.9372e-06,2.21519e-05,4.00456e-05,4.15962e-05,3.25038e-06,1.32644e-05
808,-1.49415e-05,1.39285e-05,3.59933e-05,4.44828e-05,2.08671e-06,1.10939e-05
809,-1.42921e-05,4.52005e-06,3.25952e-05,4.88991e-05,2.43635e-06,1.07978e-05
810,-7.27737e-06,1.02046e-07,3.29752e-05,5.07678e-05,2.76917e-06,1.19012e-05
811,-5.01635e-06,2.64515e-06,3.55624e-05,5.17098e-05,1.06358e-06,1.36954e-05
812,-9.76604e-06,8.04043e-06,3.72574e-05,5.33089e-05,-1.3469e-06,1.62467e-05
813,-1.62056e-05,1.0434e-05,3.63885e-05,5.34098e-05,-2.08475e-06,1.79094e-05
814,-2.27543e-05,8.79657e-06,3.15914e-05,5.17293e-05,-1.57523e-06,1.65391e-05
815,-2.31405e-05,8.97633e-06,2.85504e-05,4.98312e-05,-3.66773e-06,1.52751e-05
816,-1.42915e-05,1.14689e-05,3.43201e-05,4.77756e-05,-8.51497e-06,1.56555e-05
817,-4.9276e-06,1.5346e-05,4.27331e-05,4.47452e-05,-1.07333e-05,1.64952e-05
818,-2.76698e-06,2.00244e-05,4.32972e-05,4.30604e-05,-7.60219e-06,1.6357e-05
819,-1.05964e-05,2.02367e-05,3.6932e-05,4.70219e-05,-3.99874e-06,1.42623e-05
820,-2.65021e-05,1.53838e-05,2.84717e-05,5.25155e-05,-2.15809e-06,9.53014e-06
821,-2.96899e-05,1.23137e-05,2.57012e-05,5.26459e-05,-1.91419e-07,6.48532e-06
822,-1.47259e-05,1.20505e-05,3.39706e-05,5.02692e-05,-1.11598e-06,9.52188e-06
823,-6.50491e-06,1.36758e-05,3.95326e-05,4.86488e-05,-4.296e-06,1.0254e-05
824,-5.32915e-06,1.69444e-05,3.65656e-05,5.20345e-05,-6.61856e-06,1.00434e-05
825,-1.78696e-06,1.85426e-05,3.44913e-05,5.53743e-05,-5.71805e-06,1.48309e-05
826,-2.26534e-07,1.96831e-05,3.38838e-05,5.32475e-05,-1.95923e-06,1.89547e-05
827,-2.86229e-06,2.49365e-05,3.33756e-05,5.06233e-05,7.98323e-07,2.12254e-05
828,-1.41681e-05,3.25546e-05,2.98911e-05,4.8568e-05,1.62842e-06,1.84171e-05
829,-2.83445e-05,3.38649e-05,2.68651e-05,4.92253e-05,1.60846e-06,1.30382e-05
830,-2.98268e-05,2.84464e-05,3.0043e-05,5.05389e-05,1.06958e-06,1.1003e-05
831,-1.8089e-05,2.11972e-05,3.81279e-05,5.1953e-05,-9.76228e-07,1.37695e-05
832,-9.94183e-06,1.72831e-05,4.19095e-05,5.33037e-05,-2.42646e-06,1.74866e-05
833,-8.54213e-06,1.90688e-05,4.01985e-05,5.43394e-05,-6.61545e-07,2.01137e-05
834,-1.38949e-05,2.39888e-05,3.36312e-05,5.42603e-05,1.45451e-06,2.08195e-05
835,-2.02195e-05,2.52243e-05,2.69769e-05,5.18815e-05,-1.01832e-06,1.88896e-05
836,-1.79432e-05,2.18891e-05,2.82778e-05,5.02708e-05,-6.89784e-06,1.70408e-05
837,-9.34749e-06,1.83683e-05,3.54764e-05,5.08393e-05,-1.21756e-05,1.68706e-05
838,-4.089e-06,1.80173e-05,4.02542e-05,5.31543e-05,-1.37742e-05,1.72037e-05
839,-5.55649e-06,1.97426e-05,3.85388e-05,5.44504e-05,-1.10452e-05,1.72672e-05
840,-1.27139e-05,1.93214e-05,3.34581e-05,5.62415e-05,-9.07298e-06,1.71492e-05
841,-2.27915e-05,1.45851e-05,2.87926e-05,5.73632e-05,-1.06152e-05,1.53055e-05
842,-2.23796e-05,9.54536e-06,3.09759e-05,5.5357e-05,-1.29951e-05,1.4119e-05
843,-9.71671e-06,9.95295e-06,3.86765e-05,5.30314e-05,-1.69807e-05,1.58362e-05
844,-1.99241e-06,1.27358e-05,4.37465e-05,5.49321e-05,-2.19507e-05,1.87306e-05
845,-7.28957e-06,1.39933e-05,4.13293e-05,5.91514e-05,-2.30584e-05,1.9565e-05
846,-1.64012e-05,1.64012e-05,3.4389e-05,6.24509e-05,-2.08954e-05,1.86207e-05
847,-2.76615e-05,1.66104e-05,2.42704e-05,6.36478e-05,-1.89496e-05,1.57814e-05
848,-2.65801e-05,1.1884e-05,1.99688e-05,6.19968e-05,-1.73998e-05,1.45174e-05
849,-8.16747e-06,1.08273e-05,2.34e-05,5.72554e-05,-1.57269e-05,1.5631e-05
850,-1.47668e-07,1.50086e-05,2.26435e-05,5.31185e-05,-1.42241e-05,1.55599e-05
851,-6.39584e-06,1.50778e-05,2.20495e-05,5.27987e-05,-1.40863e-05,1.48805e-05
852,-8.58454e-06,9.07247e-06,2.52275e-05,5.26242e-05,-1.71232e-05,1.36212e-05
853,-1.14418e-06,6.12197e-06,2.85999e-05,5.26431e-05,-1.89057e-05,1.34849e-05
854,3.79797e-06,9.77362e-06,3.03727e-05,5.4081e-05,-1.71413e-05,1.47164e-05
855,-4.70677e-06,1.45321e-05,2.61094e-05,5.70855e-05,-1.55181e-05,1.44478e-05
856,-1.66775e-05,1.26774e-05,2.42032e-05,5.71169e-05,-1.4593e-05,1.24827e-05
857,-1.49557e-05,9.01555e-06,2.96359e-05,5.358e-05,-1.445e-05,8.33189e-06
858,-7.68079e-07,7.97215e-06,3.7521e-05,5.06672e-05,-1.45678e-05,5.24104e-06
859,6.41525e-06,1.1161e-05,4.06624e-05,4.79646e-05,-1.58867e-05,3.20237e-06
860,3.78736e-06,1.91936e-05,3.79924e-05,4.6091e-05,-1.72566e-05,3.02078e-06
861,-4.75014e-06,2.62272e-05,3.19168e-05,4.6571e-05,-1.62603e-05,2.91581e-06
862,-1.30546e-05,2.70452e-05,2.46887e-05,4.85059e-05,-1.44191e-05,1.3147e-06
863,-1.32946e-05,2.58135e-05,2.39244e-05,5.19527e-05,-1.33437e-05,8.58587e-07
864,-4.64702e-06,2.60818e-05,3.16079e-05,5.40503e-05,-1.20618e-05,2.48603e-06
865,1.19766e-06,2.64228e-05,3.95496e-05,5.32125e-05,-9.27408e-06,4.90132e-06
866,-8.4825e-07,2.87019e-05,4.20089e-05,5.11025e-05,-5.69547e-06,5.35783e-06
867,-6.8385e-06,3.16769e-05,4.06696e-05,5.11439e-05,-4.48044e-06,4.51139e-06
868,-1.42683e-05,3.18447e-05,3.69496e-05,5.4748e-05,-8.52736e-06,2.34293e-06
869,-1.39224e-05,2.93985e-05,3.68809e-05,5.77149e-05,-1.34089e-05,-2.73691e-07
870,-4.96616e-06,2.62705e-05,4.16956e-05,5.69607e-05,-1.29034e-05,-5.67361e-07
871,2.0209e-06,2.08975e-05,4.6072e-05,5.47307e-05,-7.69722e-06,1.6605e-06
872,2.30354e-06,1.68782e-05,4.79962e-05,5.27435e-05,-4.16346e-06,3.57801e-06
873,-4.60415e-06,1.59114e-05,4.44017e-05,5.24226e-05,-8.37821e-06,3.47086e-06
874,-2.13336e-05,1.28701e-05,3.68791e-05,5.62627e-05,-1.72956e-05,-1.17855e-06
875,-2.67039e-05,1.02355e-05,3.80684e-05,5.92549e-05,-2.28678e-05,-4.41686e-06
876,-1.03641e-05,1.05491e-05,5.03871e-05,5.8099e-05,-2.22449e-05,-1.70375e-06
877,-1.7589e-06,1.04672e-05,5.65729e-05,5.36919e-05,-1.67607e-05,4.77025e-06
878,-3.61023e-06,1.23609e-05,5.32493e-05,5.30799e-05,-1.00159e-05,1.00977e-05
879,-4.95235e-06,1.42261e-05,5.20103e-05,5.47668e-05,-3.11228e-06,1.25147e-05
880,-7.76105e-06,1.31553e-05,5.23376e-05,5.45801e-05,1.939e-06,1.17869e-05
881,-8.10405e-06,1.08489e-05,5.17433e-05,5.50976e-05,1.24357e-06,9.7203e-06
882,-1.51742e-05,8.16778e-06,4.80907e-05,5.46201e-05,-5.14858e-06,7.33545e-06
883,-2.43623e-05,2.64699e-06,4.36524e-05,5.13763e-05,-8.41365e-06,5.65957e-06
884,-2.29497e-05,-2.35831e-06,4.32059e-05,4.66869e-05,-4.83107e-06,9.72062e-06
885,-1.15727e-05,-3.07696e-06,4.84351e-05,4.50282e-05,-1.82663e-06,1.54919e-05
886,-3.09582e-06,1.12642e-06,5.29919e-05,4.38382e-05,-2.21682e-06,1.76742e-05
887,-1.59761e-06,8.66734e-06,5.2438e-05,4.38922e-05,-3.25011e-06,1.57078e-05
888,-7.82603e-06,1.5074e-05,4.54848e-05,4.6397e-05,-3.4758e-06,1.30539e-05
889,-1.59005e-05,1.68733e-05,3.40587e-05,4.85815e-05,-4.98071e-06,1.2389e-05
890,-1.48985e-05,1.53873e-05,2.72959e-05,4.85781e-05,-6.94488e-06,1.42986e-05
891,-4.74628e-06,1.37197e-05,2.92318e-05,4.61988e-05,-5.68467e-06,1.7025e-05
892,4.26917e-06,1.39806e-05,3.45204e-05,4.43203e-05,-1.73902e-07,1.91953e-05
893,5.38997e-06,1.76631e-05,3.64819e-05,4.51986e-05,6.08777e-06,1.95818e-05
894,-1.18771e-06,2.06567e-05,3.39618e-05,4.64547e-05,9.24702e-06,1.73283e-05
895,-1.07649e-05,1.93538e-05,2.88241e-05,4.49191e-05,7.29937e-06,1.38344e-05
896,-9.26192e-06,1.43296e-05,2.97861e-05,4.32062e-05,2.46625e-06,1.04099e-05
897,3.00677e-06,1.02702e-05,3.92465e-05,4.28561e-05,-8.60638e-07,9.65183e-06
898,1.09395e-05,9.86166e-06,4.82688e-05,4.33968e-05,-8.62133e-07,1.05208e-05
899,7.99901e-06,1.29004e-05,5.20699e-05,4.33519e-05,2.46262e-07,1.25939e-05
900,-2.02067e-06,1.51367e-05,5.20837e-05,4.57561e-05,1.14645e-06,1.4188e-05
901,-1.74254e-05,1.25653e-05,4.59674e-05,4.96556e-05,2.20933e-06,1.13851e-05
902,-2.1489e-05,7.43623e-06,4.05644e-05,5.16989e-05,2.18967e-06,9.7659e-06
903,-8.12626e-06,5.0747e-06,4.49045e-05,5.02723e-05,5.967e-06,1.38173e-05
904,-3.17873e-06,4.76865e-06,4.87422e-05,4.5701e-05,1.16559e-05,1.94663e-05
905,-8.84414e-06,2.59527e-06,4.7744e-05,4.20009e-05,1.36719e-05,2.38803e-05
906,-9.46476e-06,1.94021e-08,4.62488e-05,4.03355e-05,1.05326e-05,2.50155e-05
907,-7.26443e-06,3.16638e-06,4.31758e-05,4.23024e-05,6.67412e-06,2.2199e-05
908,-5.38699e-06,1.13216e-05,4.25533e-05,4.5654e-05,8.79491e-06,1.90153e-05
909,-1.17682e-05,1.56164e-05,4.14751e-05,4.78147e-05,1.2854e-05,1.61557e-05
910,-2.1946e-05,1.10481e-05,3.46167e-05,5.04284e-05,1.33433e-05,1.48548e-05
911,-2.04395e-05,5.26285e-06,2.97668e-05,5.25448e-05,8.75468e-06,1.64219e-05
912,-7.82006e-06,5.05799e-06,3.42223e-05,5.26218e-05,2.88451e-06,1.92837e-05
913,9.52506e-07,8.45964e-06,3.77009e-05,5.06718e-05,-2.66484e-06,2.04822e-05
914,3.48949e-06,1.29445e-05,3.35244e-05,4.69066e-05,-6.62691e-06,1.8146e-05
915,-1.67491e-06,1.5064e-05,2.55026e-05,4.42496e-05,-8.4069e-06,1.46514e-05
916,-1.00727e-05,1.41238e-05,2.13294e-05,4.33068e-05,-8.31994e-06,1.31882e-05
917,-1.04479e-05,1.24758e-05,2.49688e-05,4.13422e-05,-9.20565e-06,1.43587e-05
918,-3.68951e-07,1.08092e-05,3.03596e-05,3.74885e-05,-1.08595e-05,1.68269e-05
919,8.8156e-06,1.03868e-05,3.04127e-05,3.55032e-05,-1.15369e-05,1.79359e-05
920,8.3479e-06,1.0379e-05,2.61643e-05,3.82435e-05,-1.19382e-05,1.55074e-05
921,1.11109e-06,9.65887e-06,2.38402e-05,4.28074e-05,-1.23314e-05,1.17079e-05
922,-7.43031e-06,7.35473e-06,2.42397e-05,4.62438e-05,-1.22816e-05,8.81987e-06
923,-7.85067e-06,3.92329e-06,2.85099e-05,4.68809e-05,-1.02962e-05,8.9797e-06
924,4.86416e-07,2.82305e-06,3.83066e-05,4.38077e-05,-9.47552e-06,1.23843e-05
925,7.01842e-06,5.04916e-06,4.73626e-05,4.07704e-05,-1.19348e-05,1.45212e-05
926,5.74696e-06,1.05324e-05,4.51133e-05,4.09145e-05,-1.5496e-05,1.21263e-05
927,-8.20228e-09,1.5859e-05,3.40265e-05,4.18553e-05,-1.63659e-05,7.8002e-06
928,-9.73002e-06,1.46847e-05,2.20228e-05,4.56718e-05,-1.58131e-05,6.75641e-06
929,-9.32294e-06,9.49677e-06,1.9098e-05,5.06709e-05,-1.56798e-05,9.94666e-06
930,6.19504e-06,5.35028e-06,2.79291e-05,5.16154e-05,-1.54289e-05,1.40566e-05
931,1.22357e-05,4.14272e-06,3.51086e-05,4.79476e-05,-1.73337e-05,1.42397e-05
932,8.84185e-06,4.26666e-06,3.62627e-05,4.36034e-05,-2.08582e-05,1.19683e-05
933,9.88973e-06,1.12057e-06,3.58523e-05,4.26958e-05,-2.16309e-05,1.30858e-05
934,8.23444e-06,-3.98262e-07,3.50281e-05,4.2069e-05,-2.054e-05,1.81625e-05
935,5.60743e-06,2.71214e-06,3.61922e-05,4.15383e-05,-1.75728e-05,2.4032e-05
936,-4.57407e-06,6.19262e-06,3.5824e-05,4.01672e-05,-1.35981e-05,2.58308e-05
937,-1.70312e-05,5.85987e-06,3.27034e-05,3.919e-05,-1.1782e-05,2.50598e-05
938,-1.60249e-05,7.36313e-06,3.18949e-05,4.07937e-05,-1.33657e-05,2.48766e-05
939,-5.41537e-06,1.07883e-05,3.61773e-05,4.39592e-05,-1.54668e-05,2.70486e-05
940,6.79234e-07,1.32948e-05,4.23338e-05,4.71555e-05,-1.49685e-05,2.88347e-05
941,4.99758e-08,1.65878e-05,4.64193e-05,4.95803e-05,-1.30002e-05,2.69985e-05
942,-7.63837e-06,1.93949e-05,4.43253e-05,5.19058e-05,-1.30266e-05,2.28969e-05
943,-1.60344e-05,2.12061e-05,3.89875e-05,5.35175e-05,-1.40407e-05,1.9696e-05
944,-1.42364e-05,2.17107e-05,3.88159e-05,5.4463e-05,-1.36796e-05,1.9445e-05
945,-5.08157e-06,2.12983e-05,4.28494e-05,5.32811e-05,-1.18166e-05,2.00941e-05
946,9.37104e-07,2.09698e-05,4.3412e-05,4.96055e-05,-9.07085e-06,1.82222e-05
947,1.28963e-06,2.37344e-05,4.02033e-05,4.486e-05,-6.21119e-06,1.36865e-05
948,-1.71175e-06,2.74089e-05,3.74611e-05,4.22387e-05,-3.45718e-06,9.74462e-06
949,-8.91236e-06,2.55065e-05,3.52925e-05,4.17591e-05,-1.9343e-06,8.39342e-06
950,-9.54202e-06,2.00212e-05,3.56663e-05,3.97455e-05,-2.61405e-06,1.07366e-05
951,1.18937e-06,2.04878e-05,3.74959e-05,3.34041e-05,-4.3175e-06,1.61254e-05
952,1.38297e-05,2.73934e-05,3.7046e-05,2.77476e-05,-4.47162e-06,1.98526e-05
953,1.66822e-05,3.42046e-05,3.38592e-05,2.76985e-05,-4.39381e-06,1.68604e-05
954,8.3464e-06,3.54554e-05,3.16564e-05,3.25496e-05,-3.14262e-06,9.20402e-06
955,-6.76952e-06,2.89296e-05,2.64316e-05,3.8061e-05,7.0269e-08,7.7014e-07
956,-8.17328e-06,2.2385e-05,2.07162e-05,3.98683e-05,1.92293e-06,-3.06643e-06
957,8.7581e-06,2.08408e-05,2.76901e-05,3.98989e-05,8.54683e-07,-1.13492e-06
958,1.52867e-05,1.94372e-05,3.75441e-05,4.18379e-05,-2.12287e-06,1.45248e-06
959,8.57112e-06,1.80022e-05,3.66309e-05,4.50264e-05,-6.88773e-06,3.14805e-06
960,3.63233e-06,1.4718e-05,3.20006e-05,4.54073e-05,-9.96193e-06,5.37222e-06
961,3.38805e-06,1.26646e-05,2.85189e-05,4.3363e-05,-9.27191e-06,7.66992e-06
962,2.2104e-06,1.33489e-05,2.96263e-05,4.34775e-05,-8.01056e-06,8.23608e-06
963,-1.01326e-05,1.17671e-05,3.29442e-05,4.90536e-05,-8.02329e-06,6.98503e-06
964,-2.39589e-05,8.16883e-06,3.242e-05,5.40983e-05,-8.65066e-06,7.42377e-06
965,-2.3701e-05,7.29133e-06,3.37264e-05,5.30206e-05,-7.77901e-06,9.45912e-06
966,-1.03132e-05,1.05301e-05,4.17707e-05,4.85672e-05,-5.0523e-06,1.1755e-05
967,-1.13418e-06,1.50313e-05,5.03361e-05,4.68077e-05,-4.18628e-06,1.21875e-05
968,-3.5035e-06,1.80137e-05,5.2218e-05,4.88356e-05,-5.63437e-06,9.92266e-06
969,-1.61136e-05,1.51519e-05,4.76864e-05,5.29032e-05,-5.73784e-06,5.976e-06
970,-2.88156e-05,8.79191e-06,4.20163e-05,5.72811e-05,-4.54522e-06,5.11754e-06
971,-3.14252e-05,5.7184e-06,4.21039e-05,5.93722e-05,-7.48586e-06,8.88254e-06
972,-2.30599e-05,8.27086e-06,4.57764e-05,5.77932e-05,-1.47029e-05,1.30733e-05
973,-1.20028e-05,1.11398e-05,4.5543e-05,5.34115e-05,-1.8543e-05,1.42244e-05
974,-7.06064e-06,1.15576e-05,4.14317e-05,5.0287e-05,-1.56578e-05,1.23482e-05
975,-1.21209e-05,1.09683e-05,3.68304e-05,5.17136e-05,-1.08791e-05,1.11168e-05
976,-2.42506e-05,8.66838e-06,3.28486e-05,5.616e-05,-1.05574e-05,1.0786e-05
977,-2.72619e-05,4.44772e-06,3.22177e-05,5.83404e-05,-1.31402e-05,1.02861e-05
978,-1.87585e-05,1.43801e-06,3.71793e-05,5.44252e-05,-1.4438e-05,9.48313e-06
979,-1.10834e-05,2.59347e-06,4.30268e-05,4.84693e-05,-1.22358e-05,8.7314e-06
980,-1.13241e-05,6.99623e-06,4.45232e-05,4.7985e-05,-7.1552e-06,7.05676e-06
981,-1.73788e-05,1.12144e-05,4.11552e-05,5.35358e-05,-4.19182e-06,5.31633e-06
982,-2.67864e-05,1.18729e-05,3.64643e-05,6.00312e-05,-5.82255e-06,2.87741e-06
983,-2.82442e-05,9.48476e-06,3.90506e-05,6.125e-05,-8.606e-06,1.25979e-06
984,-1.85402e-05,9.22934e-06,4.36637e-05,5.84198e-05,-1.09715e-05,3.07486e-06
985,-1.46517e-05,1.13943e-05,4.06248e-05,5.52408e-05,-1.30032e-05,6.99388e-06
986,-1.55311e-05,1.11978e-05,3.78728e-05,5.12459e-05,-1.25131e-05,1.00264e-05
987,-1.44517e-05,6.44377e-06,3.64866e-05,4.59221e-05,-9.55771e-06,1.12414e-05
988,-1.78199e-05,2.9932e-06,3.42393e-05,4.2147e-05,-6.60503e-06,1.28459e-05
989,-2.15448e-05,3.48515e-06,3.62937e-05,4.00911e-05,-7.44849e-06,1.62024e-05
990,-2.96816e-05,-3.95587e-08,3.96983e-05,4.01243e-05,-1.2312e-05,1.65497e-05
991,-3.91844e-05,-8.37954e-06,4.03932e-05,4.3648e-05,-1.96333e-05,1.4583e-05
992,-3.54956e-05,-1.09641e-05,4.23836e-05,4.71273e-05,-2.50938e-05,1.42175e-05
993,-2.08462e-05,-6.54978e-06,4.69369e-05,4.62796e-05,-2.66502e-05,1.26222e-05
994,-1.13526e-05,-1.93466e-06,5.2324e-05,4.35036e-05,-2.40171e-05,8.11104e-06
995,-1.1592e-05,1.61443e-06,5.67701e-05,4.49778e-05,-1.95017e-05,4.22756e-06
996,-1.99988e-05,2.92851e-06,5.48144e-05,5.09297e-05,-1.69946e-05,1.88133e-06
997,-2.54278e-05,3.6342e-07,4.70147e-05,5.75015e-05,-1.63441e-05,2.97714e-07
998,-1.60955e-05,-1.7234e-06,4.20246e-05,6.15408e-05,-1.6362e-05,-5.66093e-07
999,2.46873e-06,1.74413e-06,4.43445e-05,6.10689e-05,-1.58187e-05,-2.42557e-07
1000,1.30751e-05,7.5402e-06,4.92095e-05,5.67263e-05,-1.66155e-05,1.18356e-06
1001,8.90906e-06,1.07736e-05,5.27179e-05,5.19636e-05,-1.73829e-05,3.02574e-06
1002,-3.85346e-06,1.13529e-05,5.16766e-05,5.05765e-05,-1.62829e-05,5.86944e-06
1003,-1.69607e-05,1.23532e-05,4.62414e-05,5.2673e-05,-1.34968e-05,7.47865e-06
1004,-1.77042e-05,1.61117e-05,4.31938e-05,5.40044e-05,-9.89679e-06,7.40333e-06
1005,-6.28847e-06,2.18251e-05,4.52372e-05,5.29673e-05,-5.98404e-06,8.70026e-06
1006,2.53604e-06,2.7066e-05,4.72158e-05,5.1873e-05,-3.03508e-06,1.17946e-05
1007,2.3405e-06,3.15352e-05,4.83206e-05,5.39137e-05,-1.77349e-07,1.25973e-05
1008,-4.3598e-06,3.07531e-05,4.7463e-05,5.87575e-05,2.56587e-06,1.13476e-05
1009,-1.90151e-05,2.349e-05,4.21226e-05,6.47536e-05,3.82937e-06,9.34098e-06
1010,-2.38129e-05,1.48301e-05,3.90795e-05,6.73931e-05,1.33314e-06,7.97277e-06
1011,-1.17282e-05,1.20176e-05,4.31772e-05,6.53548e-05,-3.13027e-06,1.00795e-05
1012,-5.16349e-06,1.42315e-05,4.87855e-05,6.21863e-05,-6.12554e-06,1.05486e-05
1013,-4.89632e-06,1.6544e-05,5.26199e-05,5.63176e-05,-7.46612e-06,8.75591e-06
1014,-1.50786e-06,1.93058e-05,5.34201e-05,5.11299e-05,-8.17108e-06,8.67777e-06
1015,3.02577e-06,2.14754e-05,4.99116e-05,5.15878e-05,-9.03787e-06,1.0007e-05
1016,5.10008e-06,2.34401e-05,4.54741e-05,5.41305e-05,-8.99969e-06,1.19442e-05
1017,-4.67188e-06,2.17704e-05,3.93296e-05,5.35754e-05,-9.20484e-06,1.07557e-05
1018,-1.71364e-05,2.02379e-05,3.48661e-05,5.37988e-05,-1.00817e-05,8.11448e-06
1019,-1.56809e-05,2.32886e-05,3.62938e-05,5.8266e-05,-1.2199e-05,5.50345e-06
1020,-1.15505e-06,2.54464e-05,4.30813e-05,6.0819e-05,-1.48284e-05,3.80017e-06
1021,1.06222e-05,2.34208e-05,4.8421e-05,5.98572e-05,-1.78591e-05,3.31348e-06
1022,1.28074e-05,2.3248e-05,4.92954e-05,5.67363e-05,-1.94571e-05,4.5363e-06
1023,6.4053e-06,2.41789e-05,4.55057e-05,5.27305e-05,-1.89919e-05,6.02396e-06
1024,-1.01079e-06,1.92573e-05,3.9432e-05,4.90213e-05,-1.73163e-05,5.43669e-06
1025,7.2527e-08,1.42404e-05,3.69454e-05,4.75153e-05,-1.47437e-05,5.91279e-06
1026,8.45483e-06,1.4096e-05,3.87651e-05,4.76633e-05,-1.18039e-05,9.66099e-06
1027,1.40531e-05,1.67016e-05,4.19753e-05,4.61902e-05,-1.01212e-05,1.46663e-05
1028,9.97856e-06,1.8917e-05,4.42494e-05,4.24095e-05,-1.05064e-05,1.74036e-05
1029,-2.84303e-06,2.0638e-05,4.23051e-05,3.95368e-05,-1.18316e-05,1.68289e-05
1030,-1.77522e-05,1.84064e-05,3.22596e-05,4.0462e-05,-1.39118e-05,1.40689e-05
1031,-1.73842e-05,1.10869e-05,2.38734e-05,4.45629e-05,-1.57571e-05,1.19095e-05
1032,1.50185e-06,5.42396e-06,2.5543e-05,4.9281e-05,-1.57629e-05,1.19915e-05
1033,1.75547e-05,6.87841e-06,3.02123e-05,5.30772e-05,-1.39696e-05,1.30623e-05
1034,1.45118e-05,1.23953e-05,2.98984e-05,5.44315e-05,-1.09663e-05,1.25056e-05
1035,-9.8172e-07,1.33682e-05,2.85084e-05,5.36431e-05,-8.55303e-06,1.01504e-05
1036,-1.93658e-05,7.83151e-06,2.6346e-05,5.21488e-05,-1.09025e-05,7.57733e-06
1037,-2.47244e-05,5.43571e-06,2.70786e-05,4.96409e-05,-1.72052e-05,6.88323e-06
1038,-1.50711e-05,1.09596e-05,3.65704e-05,5.15139e-05,-2.04543e-05,1.07749e-05
1039,-1.15397e-05,1.30195e-05,3.9711e-05,5.66593e-05,-1.92284e-05,1.47508e-05
1040,-1.01687e-05,9.18765e-06,3.26555e-05,5.89394e-05,-1.89288e-05,1.45166e-05
1041,-2.40612e-06,5.64174e-06,2.67203e-05,6.08423e-05,-2.02109e-05,1.30626e-05
1042,3.30686e-06,4.12964e-06,2.43863e-05,6.20259e-05,-2.0704e-05,1.08798e-05
1043,2.83271e-06,7.03717e-06,2.71298e-05,5.97642e-05,-1.68819e-05,1.17787e-05
1044,-9.56801e-06,8.74059e-06,2.83834e-05,5.76359e-05,-1.26851e-05,1.36443e-05
1045,-2.36927e-05,6.32139e-06,2.5977e-05,5.81304e-05,-1.26214e-05,1.43634e-05
1046,-2.29912e-05,4.46512e-06,2.8626e-05,6.06189e-05,-1.6368e-05,1.47417e-05
1047,-1.09405e-05,6.27862e-06,3.76712e-05,6.31033e-05,-1.88528e-05,1.32455e-05
1048,-2.94984e-06,1.15177e-05,4.70311e-05,6.62226e-05,-1.59623e-05,1.0341e-05
1049,-4.66591e-06,1.8056e-05,5.09433e-05,6.76e-05,-9.91084e-06,8.54959e-06
1050,-1.3782e-05,2.08362e-05,4.54902e-05,6.71862e-05,-3.96581e-06,9.05057e-06
1051,-2.34005e-05,1.61314e-05,3.5766e-05,6.57485e-05,-2.45238e-06,1.06619e-05
1052,-2.31001e-05,9.99912e-06,3.31137e-05,6.41449e-05,-2.72111e-06,1.28627e-05
1053,-1.29732e-05,7.24549e-06,3.8477e-05,6.33057e-05,-2.37802e-06,1.57651e-05
1054,-6.10867e-06,9.88453e-06,4.34768e-05,6.12152e-05,-5.25216e-07,1.74987e-05
1055,-7.59127e-06,1.68433e-05,4.38571e-05,5.73828e-05,1.31237e-06,1.62325e-05
1056,-1.43889e-05,2.37598e-05,4.03242e-05,5.57374e-05,5.15039e-07,1.55876e-05
1057,-2.38921e-05,2.42383e-05,3.56525e-05,5.72675e-05,-4.38929e-06,1.61144e-05
1058,-2.44533e-05,2.04256e-05,3.63138e-05,5.67736e-05,-9.99832e-06,1.54573e-05
1059,-1.28194e-05,1.99637e-05,4.28057e-05,5.3093e-05,-1.2716e-05,1.38438e-05
1060,-3.71362e-06,2.48863e-05,4.6283e-05,4.86037e-05,-1.27023e-05,1.20381e-05
1061,-3.71692e-06,2.9459e-05,4.3553e-05,4.48417e-05,-1.14858e-05,1.03471e-05
1062,-8.2679e-06,2.80431e-05,3.99343e-05,4.30429e-05,-1.29461e-05,1.13795e-05
1063,-1.88081e-05,2.2776e-05,3.32047e-05,4.52783e-05,-1.62264e-05,1.35623e-05
1064,-1.97373e-05,1.86562e-05,2.67515e-05,4.65049e-05,-1.60827e-05,1.5092e-05
1065,-3.04531e-06,2.17312e-05,2.70831e-05,4.75462e-05,-1.0049e-05,1.58195e-05
1066,6.10524e-06,2.74821e-05,2.55699e-05,4.87053e-05,-3.46056e-06,1.64725e-05
1067,6.71175e-06,2.77339e-05,2.3279e-05,4.85673e-05,-1.98965e-06,1.76602e-05
1068,8.50346e-06,2.47727e-05,2.52815e-05,4.80885e-05,-5.22704e-06,1.85181e-05
1069,9.04961e-06,2.11846e-05,2.91009e-05,4.68413e-05,-8.51735e-06,1.98156e-05
1070,9.65822e-06,1.91941e-05,3.29963e-05,4.6334e-05,-9.01302e-06,2.07903e-05
1071,4.85222e-06,1.76414e-05,2.95246e-05,4.81265e-05,-5.44803e-06,1.87854e-05
1072,-2.3377e-06,1.54945e-05,2.08302e-05,5.15784e-05,-8.16626e-08,1.58695e-05
1073,-1.53713e-06,1.38937e-05,1.64862e-05,5.2732e-05,3.23617e-06,1.41803e-05
1074,6.31745e-06,1.13082e-05,1.79973e-05,5.01327e-05,3.02544e-06,1.32018e-05
1075,1.07724e-05,9.07833e-06,1.98903e-05,4.46059e-05,6.40126e-07,1.1712e-05
1076,7.53723e-06,1.04856e-05,2.17835e-05,4.01496e-05,-5.91227e-07,8.69109e-06
1077,-4.4923e-06,1.44562e-05,2.44389e-05,4.03522e-05,3.98231e-08,6.34638e-06
1078,-1.69987e-05,1.38578e-05,2.56235e-05,4.47243e-05,9.80917e-07,7.6164e-06
1079,-1.78347e-05,8.13508e-06,2.69241e-05,4.885e-05,4.6113e-07,1.2102e-05
1080,-7.05417e-06,1.41627e-06,3.00069e-05,4.91511e-05,-8.12698e-07,1.53363e-05
1081,5.80151e-07,-1.72526e-06,3.27252e-05,4.83691e-05,-2.5925e-06,1.58228e-05
1082,-2.94604e-06,-1.0363e-06,3.35833e-05,4.91819e-05,-3.68776e-06,1.56986e-05
1083,-1.36766e-05,-3.47186e-07,3.06711e-05,5.06e-05,-2.69252e-06,1.52523e-05
1084,-2.45345e-05,-2.27324e-06,2.29154e-05,5.14408e-05,-1.66808e-07,1.34406e-05
1085,-2.33565e-05,-4.92544e-06,1.86214e-05,5.03356e-05,3.13817e-06,1.21379e-05
1086,-7.7529e-06,-6.93083e-06,2.40759e-05,4.65489e-05,3.60434e-06,1.50656e-05
1087,7.00919e-06,-8.47635e-06,3.21166e-05,4.23093e-05,1.67585e-06,1.96042e-05
1088,8.52339e-06,-7.39157e-06,3.30053e-05,4.25506e-05,3.32817e-06,1.94032e-05
1089,-1.14116e-06,-3.28701e-06,2.57561e-05,4.60299e-05,5.64751e-06,1.72985e-05
1090,-1.79798e-05,-2.38629e-06,1.60986e-05,4.69762e-05,3.38243e-06,1.7682e-05
1091,-2.64136e-05,-4.2945e-06,1.41675e-05,4.66678e-05,-1.70164e-06,1.97259e-05
1092,-1.4818e-05,-3.20473e-06,1.85826e-05,4.68876e-05,-6.62024e-06,2.01808e-05
1093,-4.28875e-06,-7.20762e-07,2.29974e-05,4.90847e-05,-8.72655e-06,1.7031e-05
1094,-2.20793e-06,-7.97994e-07,2.95175e-05,5.11661e-05,-1.24033e-05,1.68847e-05
1095,3.12241e-06,-5.1204e-06,3.47486e-05,5.2941e-05,-1.47986e-05,2.23079e-05
1096,5.97816e-06,-8.20132e-06,3.61911e-05,5.47828e-05,-1.14085e-05,2.48606e-05
1097,4.39482e-06,-5.87308e-06,3.52055e-05,5.34573e-05,-6.35734e-06,2.41689e-05
1098,-6.05063e-06,-2.02591e-06,2.98458e-05,5.03326e-05,-3.14417e-06,2.19278e-05
1099,-1.78588e-05,-1.99775e-06,2.52922e-05,4.72676e-05,-2.97932e-06,1.98347e-05
1100,-1.46589e-05,-8.13977e-07,2.73991e-05,4.5669e-05,-2.69402e-06,1.92978e-05
1101,-7.93724e-08,2.46208e-06,3.45149e-05,4.34084e-05,-2.17972e-06,1.87306e-05
1102,8.23667e-06,6.26677e-06,4.19761e-05,4.06731e-05,-2.71237e-06,1.73285e-05
1103,6.13467e-06,1.19957e-05,4.33564e-05,3.96923e-05,-4.31905e-06,1.48943e-05
1104,-1.63393e-06,1.53236e-05,3.65744e-05,4.09159e-05,-4.62992e-06,1.43283e-05
1105,-9.62093e-06,1.43428e-05,2.88134e-05,4.22546e-05,-3.99266e-06,1.65136e-05
1106,-7.26346e-06,1.18508e-05,2.83704e-05,4.43296e-05,-3.21257e-06,2.12908e-05
1107,6.69347e-06,1.08373e-05,3.51597e-05,4.73685e-05,-2.63249e-06,2.61816e-05
1108,2.06362e-05,1.2165e-05,4.2278e-05,4.99611e-05,-3.64158e-06,2.82124e-05
1109,2.38183e-05,1.39481e-05,4.77639e-05,5.1551e-05,-7.06571e-06,2.59859e-05
1110,1.48547e-05,1.2675e-05,5.11932e-05,5.14842e-05,-1.12517e-05,2.06554e-05
1111,9.76426e-07,8.3771e-06,4.85537e-05,4.98362e-05,-1.30997e-05,1.53254e-05
1112,-2.58417e-06,6.31e-06,4.4062e-05,4.72275e-05,-1.24993e-05,1.30445e-05
1113,5.98776e-06,7.63425e-06,4.52857e-05,4.45181e-05,-9.81489e-06,1.44026e-05
1114,1.21085e-05,9.89543e-06,4.70778e-05,4.18544e-05,-8.05871e-06,1.53726e-05
1115,7.84127e-06,1.41693e-05,4.54668e-05,4.17393e-05,-1.02901e-05,1.25894e-05
1116,-2.46594e-06,2.00375e-05,4.35984e-05,4.60406e-05,-1.31939e-05,8.97252e-06
1117,-1.51825e-05,2.03909e-05,4.3968e-05,4.85831e-05,-1.11058e-05,4.81621e-06
1118,-1.73772e-05,1.32066e-05,4.76026e-05,4.5164e-05,-7.09982e-06,1.27518e-06
1119,-3.82855e-06,5.62703e-06,5.22425e-05,4.06091e-05,-5.94154e-06,3.01114e-06
1120,3.03566e-06,2.27466e-06,5.29339e-05,3.97239e-05,-8.20416e-06,6.86614e-06
1121,1.37083e-07,4.46722e-06,5.06194e-05,4.01634e-05,-1.07502e-05,1.13541e-05
1122,-2.86546e-06,6.747e-06,4.96473e-05,3.70993e-05,-9.8091e-06,1.3279e-05
1123,-7.86684e-06,7.34805e-06,4.8523e-05,3.55279e-05,-7.30443e-06,1.08833e-05
1124,-1.22801e-05,1.04088e-05,4.93473e-05,3.65267e-05,-6.77303e-06,9.97339e-06
1125,-2.0168e-05,1.56188e-05,4.65922e-05,3.70909e-05,-8.40768e-06,1.08659e-05
1126,-2.80374e-05,1.7615e-05,4.10997e-05,3.84859e-05,-8.58731e-06,1.0763e-05
1127,-2.45036e-05,1.69189e-05,4.00686e-05,4.40637e-05,-7.50064e-06,9.87695e-06
1128,-1.31881e-05,1.76885e-05,4.4362e-05,5.04725e-05,-7.87609e-06,9.62032e-06
1129,-7.31007e-06,2.23302e-05,4.93706e-05,5.25835e-05,-1.02907e-05,7.70624e-06
1130,-8.60304e-06,2.9175e-05,5.03785e-05,4.92489e-05,-1.43801e-05,4.01568e-06
1131,-1.58795e-05,3.10781e-05,4.58768e-05,4.39944e-05,-1.74731e-05,-2.30861e-07
1132,-2.48409e-05,2.79651e-05,3.7559e-05,4.26026e-05,-1.78125e-05,-3.20446e-06
1133,-2.36525e-05,2.62694e-05,3.52672e-05,4.41147e-05,-1.55706e-05,-2.26436e-06
1134,-1.04365e-05,2.66122e-05,4.17165e-05,4.44138e-05,-1.18746e-05,1.75261e-06
1135,-2.02112e-07,2.32807e-05,4.9351e-05,4.27823e-05,-7.72278e-06,5.5303e-06
1136,-1.7781e-06,1.78737e-05,5.09226e-05,4.21056e-05,-3.65807e-06,6.64185e-06
1137,-1.15873e-05,1.60072e-05,4.56606e-05,4.21451e-05,-1.8906e-06,5.57051e-06
1138,-2.43668e-05,1.72843e-05,3.7718e-05,4.19633e-05,-4.32987e-06,5.79071e-06
1139,-2.57125e-05,1.93892e-05,3.52466e-05,4.12767e-05,-7.94058e-06,9.04586e-06
1140,-9.34003e-06,2.19528e-05,4.07241e-05,3.93275e-05,-9.2968e-06,1.20311e-05
1141,7.18597e-06,2.55167e-05,4.59636e-05,3.7264e-05,-8.03247e-06,1.40026e-05
1142,9.08725e-06,3.28075e-05,4.3111e-05,3.82182e-05,-5.93366e-06,1.696e-05
1143,2.52439e-06,4.01443e-05,3.50463e-05,4.02769e-05,-4.14292e-06,1.91876e-05
1144,-1.03282e-05,3.70627e-05,2.69713e-05,4.23965e-05,-3.67843e-06,1.89918e-05
1145,-1.58819e-05,2.66487e-05,2.65068e-05,4.57651e-05,-4.53221e-06,1.83949e-05
1146,-4.93678e-06,1.88702e-05,3.42019e-05,4.68787e-05,-5.88182e-06,1.64645e-05
1147,1.58672e-06,1.66838e-05,3.79914e-05,4.74186e-05,-7.00759e-06,1.5202e-05
1148,3.23657e-06,1.82623e-05,3.75245e-05,5.11523e-05,-9.3733e-06,1.8101e-05
1149,6.13304e-06,1.98867e-05,3.51989e-05,5.47535e-05,-1.56768e-05,1.92317e-05
1150,4.90934e-06,2.29651e-05,3.2174e-05,5.2411e-05,-2.1128e-05,1.38352e-05
1151,1.02898e-06,2.69446e-05,3.17941e-05,4.43928e-05,-2.49326e-05,7.3684e-06
1152,-9.52779e-06,3.08936e-05,2.95384e-05,3.88534e-05,-2.64343e-05,4.93145e-06
1153,-2.44948e-05,3.14896e-05,2.74991e-05,4.03056e-05,-2.6067e-05,6.95134e-06
1154,-2.84569e-05,2.9004e-05,3.02182e-05,4.58018e-05,-2.67819e-05,1.0768e-05
1155,-1.96019e-05,2.66472e-05,3.43905e-05,4.96368e-05,-2.48976e-05,1.37613e-05
1156,-1.18367e-05,2.49585e-05,3.39688e-05,5.12957e-05,-1.96885e-05,1.35984e-05
1157,-9.24621e-06,2.55313e-05,3.09726e-05,5.1354e-05,-1.60149e-05,1.12898e-05
1158,-1.6803e-05,2.50233e-05,2.77722e-05,4.96048e-05,-1.57598e-05,8.69167e-06
1159,-2.8522e-05,1.87417e-05,2.62737e-05,4.84325e-05,-1.54885e-05,8.59387e-06
1160,-2.87614e-05,1.16406e-05,3.16021e-05,4.95223e-05,-1.35475e-05,1.13683e-05
1161,-1.65307e-05,9.01297e-06,4.12296e-05,4.97029e-05,-1.22681e-05,1.47987e-05
1162,-7.18075e-06,1.01675e-05,4.68343e-05,4.75028e-05,-1.25531e-05,1.56357e-05
1163,-8.20004e-06,1.2398e-05,4.47202e-05,4.62195e-05,-1.15338e-05,1.43532e-05
1164,-1.69151e-05,1.22819e-05,3.77608e-05,4.79387e-05,-8.99509e-06,1.42937e-05
1165,-2.87672e-05,8.87676e-06,3.11202e-05,5.00963e-05,-8.37894e-06,1.41743e-05
1166,-2.88164e-05,5.21894e-06,3.08495e-05,4.8543e-05,-8.55493e-06,1.30453e-05
1167,-1.39873e-05,3.9349e-06,3.68399e-05,4.65419e-05,-7.32155e-06,1.25287e-05
1168,2.03142e-08,3.05806e-06,4.16655e-05,4.77696e-05,-5.41825e-06,1.33121e-05
1169,2.07315e-06,2.08155e-06,4.24528e-05,4.88962e-05,-4.60286e-06,1.31587e-05
1170,-7.06902e-06,-1.89527e-07,4.23034e-05,4.83833e-05,-5.23931e-06,9.34122e-06
1171,-2.54855e-05,-4.50224e-06,4.02398e-05,4.99073e-05,-7.52386e-06,1.86507e-06
1172,-3.18238e-05,-8.32959e-06,4.10928e-05,5.06835e-05,-1.2293e-05,-1.77044e-06
1173,-1.60841e-05,-7.55339e-06,4.49241e-05,4.95004e-05,-1.43489e-05,3.471e-07
1174,-5.74516e-06,-1.45732e-06,4.46437e-05,5.04327e-05,-1.31601e-05,4.11807e-06
1175,-3.81193e-06,5.00669e-06,4.36306e-05,5.37182e-05,-1.1688e-05,5.26114e-06
1176,1.20163e-06,4.35221e-06,4.87246e-05,5.61683e-05,-9.38892e-06,4.58202e-06
1177,5.23717e-06,4.3706e-07,5.4618e-05,5.71447e-05,-6.98458e-06,4.83444e-06
1178,6.3992e-06,2.17014e-07,5.6478e-05,5.6825e-05,-8.02997e-06,4.93784e-06
1179,-2.50049e-06,1.61231e-06,5.51773e-05,5.52154e-05,-1.09044e-05,2.84818e-06
1180,-1.65388e-05,-8.66495e-07,5.38815e-05,5.47111e-05,-1.13701e-05,-1.72645e-07
1181,-1.69849e-05,-4.79725e-06,5.47716e-05,5.76004e-05,-9.27952e-06,-7.55347e-07
1182,-6.075e-06,-6.20945e-06,5.40206e-05,6.30905e-05,-6.79579e-06,2.39546e-08
1183,1.45583e-06,-2.91293e-06,4.97586e-05,6.61698e-05,-7.43542e-06,7.24946e-07
1184,1.22339e-06,5.99096e-06,4.76211e-05,6.49439e-05,-1.0184e-05,3.44541e-06
1185,-8.01475e-06,1.48437e-05,4.74212e-05,6.22737e-05,-1.20934e-05,6.36005e-06
1186,-1.68511e-05,1.56557e-05,4.59645e-05,6.20026e-05,-1.23535e-05,6.5719e-06
1187,-1.39211e-05,1.0545e-05,4.69897e-05,6.56769e-05,-1.13074e-05,3.95545e-06
1188,-2.38415e-06,6.02034e-06,4.99571e-05,6.93975e-05,-1.04632e-05,1.74728e-06
1189,4.14638e-06,5.33852e-06,4.95109e-05,6.80004e-05,-1.09088e-05,3.07423e-06
1190,1.13858e-06,8.40244e-06,4.52219e-05,6.30989e-05,-1.10883e-05,8.54238e-06
1191,-8.92846e-06,1.01209e-05,4.04648e-05,6.16879e-05,-8.99786e-06,1.37448e-05
1192,-1.97115e-05,5.1909e-06,3.59586e-05,6.35011e-05,-5.40901e-06,1.22074e-05
1193,-1.97274e-05,-1.24004e-06,3.6505e-05,6.32397e-05,-3.12383e-06,8.01161e-06
1194,-9.493e-06,2.66475e-07,4.35084e-05,6.06371e-05,-3.15472e-06,9.77483e-06
1195,-2.43218e-06,8.24978e-06,5.0212e-05,5.88603e-05,-4.26774e-06,1.77503e-05
1196,-5.5999e-06,1.71775e-05,4.937e-05,5.90337e-05,-5.9423e-06,2.29061e-05
1197,-1.59632e-05,2.0973e-05,4.04308e-05,5.92517e-05,-6.17021e-06,2.16768e-05
1198,-2.89242e-05,1.81576e-05,3.24232e-05,5.97973e-05,-2.8411e-06,1.72227e-05
1199,-2.78632e-05,1.48762e-05,3.40258e-05,6.05168e-05,-1.7579e-07,1.5495e-05
1200,-1.22814e-05,1.71063e-05,4.00735e-05,5.81152e-05,-8.6553e-07,2.10122e-05
1201,-4.94413e-06,1.92995e-05,4.28841e-05,5.47466e-05,-1.58692e-06,2.67816e-05
1202,-3.28406e-06,1.9559e-05,4.56519e-05,5.57131e-05,3.99546e-07,2.64902e-05
1203,5.23182e-07,1.97831e-05,4.96894e-05,5.96444e-05,4.55645e-06,2.36738e-05
1204,3.5823e-06,2.08924e-05,4.90219e-05,6.31454e-05,9.57615e-06,2.24152e-05
1205,2.18976e-06,2.09773e-05,4.44227e-05,6.45644e-05,1.23122e-05,2.14115e-05
1206,-1.05249e-05,1.86774e-05,3.78268e-05,6.39475e-05,1.03403e-05,1.89016e-05
1207,-2.39466e-05,1.72402e-05,3.37921e-05,6.26412e-05,4.77894e-06,1.63431e-05
1208,-2.08586e-05,1.96556e-05,3.47313e-05,6.23106e-05,2.83451e-07,1.70398e-05
1209,-4.99931e-06,2.10546e-05,3.57238e-05,6.26385e-05,-1.15081e-06,2.18227e-05
1210,6.5372e-06,1.8766e-05,3.50495e-05,5.99746e-05,-2.45569e-06,2.48797e-05
1211,9.85413e-06,1.79164e-05,3.55439e-05,5.61883e-05,-4.27693e-06,2.42046e-05
1212,3.85489e-06,1.66649e-05,3.69621e-05,5.5443e-05,-4.24127e-06,2.08273e-05
1213,-7.97965e-06,1.11765e-05,3.66965e-05,5.56427e-05,-2.60353e-06,1.73784e-05
1214,-1.50621e-05,6.06933e-06,3.60005e-05,5.27694e-05,1.30255e-06,1.62848e-05
1215,-1.31517e-05,5.9093e-06,3.40803e-05,4.62844e-05,8.48355e-06,1.94372e-05
1216,-9.30788e-06,9.1867e-06,3.1674e-05,4.04989e-05,1.42529e-05,2.46401e-05
1217,-6.63791e-06,1.36771e-05,3.15775e-05,3.9823e-05,1.33196e-05,2.82623e-05
1218,-6.99499e-06,1.51973e-05,3.16953e-05,4.40526e-05,6.76339e-06,2.89577e-05
1219,-1.1287e-05,1.08828e-05,2.94141e-05,4.92567e-05,2.49453e-07,2.78825e-05
1220,-9.95615e-06,5.53719e-06,3.20141e-05,5.24807e-05,-1.67483e-06,2.66548e-05
1221,1.26537e-07,6.02431e-06,4.01104e-05,5.20258e-05,4.90912e-07,2.66047e-05
1222,7.53277e-06,8.99181e-06,4.37657e-05,4.67429e-05,1.87293e-06,2.75716e-05
1223,6.16107e-06,9.00461e-06,4.05129e-05,3.85106e-05,-2.65829e-07,2.86127e-05
1224,-1.87408e-06,1.01529e-05,3.21722e-05,3.3001e-05,-6.08646e-06,2.918e-05
1225,-1.5234e-05,1.23302e-05,2.35966e-05,3.1165e-05,-8.78718e-06,2.56369e-05
1226,-1.85674e-05,9.50837e-06,2.39116e-05,3.03524e-05,-6.34367e-06,2.17613e-05
1227,-6.62668e-06,7.44352e-06,3.23951e-05,3.12914e-05,-3.68669e-06,1.96795e-05
1228,7.70844e-07,1.11439e-05,3.66171e-05,3.04911e-05,-1.84673e-06,1.67518e-05
1229,2.24832e-06,1.28987e-05,3.54118e-05,2.66597e-05,-1.57527e-06,1.55798e-05
1230,7.20546e-06,8.58038e-06,3.72924e-05,2.82902e-05,-1.67068e-06,1.74991e-05
1231,1.08058e-05,8.1089e-06,4.15372e-05,3.4896e-05,-3.37679e-06,1.87292e-05
1232,9.59504e-06,1.49117e-05,4.28773e-05,3.98587e-05,-4.97666e-06,1.68735e-05
1233,-1.90555e-07,2.3555e-05,3.45983e-05,4.20616e-05,-4.6818e-06,1.28028e-05
1234,-1.05134e-05,2.72986e-05,2.48794e-05,4.49218e-05,-7.59012e-06,9.74088e-06
1235,-6.34611e-06,2.66638e-05,2.54126e-05,4.99479e-05,-1.10539e-05,7.96661e-06
1236,6.64324e-06,2.57684e-05,3.32871e-05,5.42539e-05,-1.24561e-05,7.73502e-06
1237,1.02075e-05,2.5262e-05,3.91434e-05,5.60529e-05,-1.20823e-05,9.75742e-06
1238,3.18847e-06,2.47594e-05,3.9296e-05,5.44565e-05,-1.04685e-05,1.11904e-05
1239,-8.91409e-06,2.16554e-05,3.71251e-05,5.33569e-05,-8.21839e-06,8.18481e-06
1240,-1.79608e-05,1.74185e-05,3.66513e-05,5.44004e-05,-5.51646e-06,3.3303e-06
1241,-1.48958e-05,1.48992e-05,4.06563e-05,5.62189e-05,-2.34923e-06,2.65154e-06
1242,-3.95675e-06,1.31843e-05,4.46027e-05,5.53753e-05,6.87012e-08,4.86191e-06
1243,3.58984e-06,1.29399e-05,4.19935e-05,5.2713e-05,-3.5034e-07,5.42284e-06
1244,2.83851e-06,1.66824e-05,3.37365e-05,5.23617e-05,-1.38955e-06,4.48154e-06
1245,-6.68261e-06,2.0664e-05,2.72733e-05,5.36529e-05,-1.23641e-06,3.20833e-06
1246,-1.89721e-05,1.88118e-05,2.4842e-05,5.28519e-05,-3.58088e-07,1.35868e-06
1247,-2.00113e-05,1.37156e-05,2.88523e-05,5.10984e-05,-1.17119e-07,-9.60119e-07
1248,-8.90281e-06,1.33259e-05,3.76153e-05,4.98699e-05,1.36106e-07,-1.67937e-06
1249,7.07877e-08,1.87076e-05,4.14231e-05,4.64109e-05,-6.2718e-07,1.17622e-06
1250,-2.85843e-07,2.44246e-05,3.63663e-05,4.1645e-05,-2.99713e-06,5.36535e-06
1251,-8.49358e-06,2.43733e-05,2.69235e-05,4.0026e-05,-4.02552e-06,5.70075e-06
1252,-2.31605e-05,1.83294e-05,1.50652e-05,4.12956e-05,-5.11732e-06,4.04848e-06
1253,-2.63262e-05,1.3395e-05,8.69354e-06,4.12866e-05,-7.1829e-06,4.77376e-06
1254,-1.00114e-05,1.30545e-05,1.30073e-05,4.13482e-05,-8.69411e-06,5.54658e-06
1255,-4.5628e-07,1.53639e-05,1.82381e-05,4.1602e-05,-7.3167e-06,5.29793e-06
1256,1.37682e-07,1.67683e-05,2.29552e-05,3.89438e-05,-4.80855e-06,5.70997e-06
1257,4.68645e-06,1.48761e-05,2.4276e-05,3.49063e-05,-8.17244e-06,6.05829e-06
1258,4.27533e-06,1.31912e-05,2.14055e-05,3.52792e-05,-1.52246e-05,6.67028e-06
1259,-3.18439e-06,1.23136e-05,1.91862e-05,3.63571e-05,-2.12345e-05,8.48739e-06
1260,-1.53486e-05,1.17021e-05,1.52479e-05,3.54695e-05,-2.29496e-05,8.3509e-06
1261,-2.36062e-05,1.28972e-05,1.1203e-05,3.62607e-05,-2.17604e-05,7.84697e-06
1262,-1.90935e-05,1.51099e-05,1.24856e-05,3.72895e-05,-2.12452e-05,8.53727e-06
1263,-9.23759e-06,1.3908e-05,1.86018e-05,3.76712e-05,-2.04803e-05,1.06577e-05
1264,-6.84241e-06,1.18577e-05,2.15063e-05,3.89103e-05,-1.98591e-05,1.2036e-05
1265,-1.07494e-05,1.44657e-05,2.12038e-05,4.07084e-05,-2.12033e-05,1.27372e-05
1266,-1.70728e-05,1.69566e-05,1.81784e-05,4.36247e-05,-2.26841e-05,1.22885e-05
1267,-2.04044e-05,1.02188e-05,1.43218e-05,4.71212e-05,-2.30802e-05,1.0368e-05
1268,-1.41734e-05,9.87716e-08,1.56399e-05,4.91388e-05,-2.22323e-05,8.97395e-06
1269,-6.41847e-07,-3.6386e-06,2.26269e-05,4.85643e-05,-2.12159e-05,8.75231e-06
1270,9.53228e-06,4.43754e-07,2.99983e-05,4.76342e-05,-2.18827e-05,8.16944e-06
1271,1.0512e-05,8.36865e-06,3.31861e-05,4.78476e-05,-2.34005e-05,5.41048e-06
1272,3.17281e-06,1.42878e-05,3.1198e-05,5.07379e-05,-2.43687e-05,1.67798e-06
1273,-8.31768e-06,1.50925e-05,2.43228e-05,5.53034e-05,-2.41055e-05,-8.7569e-07
1274,-1.19349e-05,1.4109e-05,2.0214e-05,5.59775e-05,-2.41372e-05,8.12707e-07
1275,-3.22073e-06,1.52759e-05,2.53525e-05,5.21791e-05,-2.48996e-05,4.61078e-06
1276,5.66162e-06,1.6058e-05,3.35165e-05,5.00818e-05,-2.5845e-05,7.15631e-06
1277,5.21193e-06,1.7113e-05,3.52771e-05,5.32768e-05,-2.772e-05,4.55323e-06
1278,-1.32057e-06,1.73725e-05,3.1622e-05,5.81507e-05,-2.81174e-05,3.49208e-07
1279,-1.46389e-05,1.70254e-05,2.46587e-05,6.18766e-05,-2.54591e-05,-2.92142e-06
1280,-2.0949e-05,1.79418e-05,2.37283e-05,6.32723e-05,-2.56197e-05,-4.50374e-06
1281,-9.13378e-06,1.79712e-05,3.44644e-05,6.20551e-05,-2.5725e-05,-9.90315e-07
1282,-1.74485e-07,1.44307e-05,3.88269e-05,5.90101e-05,-2.17442e-05,3.50765e-06
1283,-1.66353e-06,1.25382e-05,3.31419e-05,5.83343e-05,-1.58943e-05,6.11808e-06
1284,-2.06591e-06,1.34082e-05,3.12664e-05,6.17873e-05,-1.31593e-05,6.85881e-06
1285,-1.41224e-06,1.49057e-05,3.36872e-05,6.71697e-05,-1.59339e-05,5.37255e-06
1286,-1.23725e-06,1.69802e-05,3.95083e-05,6.78124e-05,-1.63248e-05,3.71695e-06
1287,-5.78574e-06,1.53801e-05,4.40085e-05,6.27237e-05,-1.19087e-05,3.4784e-06
1288,-1.11988e-05,1.02024e-05,4.42731e-05,5.68558e-05,-8.89659e-06,2.47727e-06
1289,-6.29019e-06,5.71461e-06,4.41839e-05,5.10039e-05,-8.608e-06,6.68296e-07
1290,7.09006e-06,5.27119e-06,4.65971e-05,4.74801e-05,-7.93947e-06,7.39321e-07
1291,1.55852e-05,9.59736e-06,4.96543e-05,4.70289e-05,-5.9987e-06,2.23108e-06
1292,1.22947e-05,1.41012e-05,5.01207e-05,4.8754e-05,-3.21969e-06,3.3622e-06
1293,-2.77504e-06,1.29501e-05,4.81155e-05,5.10523e-05,-9.27535e-07,2.91298e-06
1294,-1.70812e-05,6.05558e-06,4.47279e-05,5.09454e-05,3.38045e-07,1.71924e-06
1295,-1.81647e-05,3.56677e-07,4.41136e-05,4.75773e-05,5.81588e-07,1.41741e-06
1296,-9.86336e-06,-1.46554e-06,4.73889e-05,4.30263e-05,-4.21779e-07,2.95444e-06
1297,-2.54985e-06,1.12398e-06,5.11538e-05,4.19162e-05,-2.42684e-06,5.76602e-06
1298,-8.91324e-07,7.09209e-06,5.18648e-05,4.54434e-05,-3.4271e-06,8.62087e-06
1299,-6.12479e-06,1.01816e-05,4.80004e-05,5.14693e-05,-3.10357e-06,9.63346e-06
1300,-1.6294e-05,6.26988e-06,4.26329e-05,5.77096e-05,-3.70025e-06,8.30947e-06
1301,-1.80299e-05,1.16161e-06,4.37633e-05,6.01845e-05,-5.85137e-06,8.9557e-06
1302,-5.20693e-06,-5.73149e-07,5.07495e-05,5.76406e-05,-8.34559e-06,1.46766e-05
1303,6.86777e-06,-6.71265e-07,5.37233e-05,5.2775e-05,-9.0896e-06,2.26668e-05
1304,3.44763e-06,3.6987e-06,4.91273e-05,4.96001e-05,-6.24555e-06,2.67708e-05
1305,-1.00887e-05,1.22143e-05,4.05255e-05,5.01524e-05,-1.03837e-06,2.35832e-05
1306,-2.46096e-05,1.8002e-05,3.11968e-05,5.00326e-05,-4.97077e-07,1.74811e-05
1307,-2.66116e-05,1.96589e-05,3.09547e-05,4.9199e-05,-3.63639e-06,1.70783e-05
1308,-1.47153e-05,1.9748e-05,4.16068e-05,5.15942e-05,-3.74584e-06,2.39479e-05
1309,-1.06614e-05,1.79512e-05,4.54346e-05,5.39922e-05,-2.31367e-07,2.89397e-05
1310,-1.37958e-05,2.03599e-05,4.23483e-05,5.46405e-05,3.87704e-06,2.8496e-05
1311,-1.52404e-05,2.39864e-05,4.13024e-05,5.48351e-05,3.7332e-06,2.62539e-05
1312,-1.63861e-05,2.25911e-05,4.09819e-05,5.27798e-05,1.48934e-06,2.20391e-05
1313,-1.71368e-05,1.85223e-05,4.31943e-05,4.97008e-05,7.37525e-07,1.90506e-05
1314,-2.63119e-05,1.50927e-05,4.51597e-05,4.89782e-05,1.1946e-06,1.9557e-05
1315,-3.44265e-05,1.14738e-05,4.35885e-05,5.17167e-05,1.54488e-06,1.87873e-05
1316,-2.72957e-05,5.77693e-06,4.03254e-05,5.63309e-05,1.27992e-06,1.76673e-05
1317,-1.05659e-05,2.64455e-06,3.98841e-05,5.7937e-05,1.43773e-06,2.10576e-05
1318,-9.05754e-07,2.93032e-06,4.22182e-05,5.56613e-05,1.93566e-06,2.47976e-05
1319,-1.40049e-08,6.54838e-06,4.6735e-05,5.19518e-05,2.35949e-07,2.53271e-05
1320,-6.06007e-06,9.01545e-06,4.96458e-05,5.05688e-05,-3.97012e-06,2.36929e-05
1321,-1.26112e-05,5.39933e-06,4.90196e-05,5.32041e-05,-7.56533e-06,2.15004e-05
1322,-9.41386e-06,-8.50707e-07,5.04302e-05,5.55559e-05,-9.18296e-06,2.07894e-05
1323,2.24014e-06,-6.19551e-06,5.52238e-05,5.39973e-05,-9.39485e-06,2.07057e-05
1324,9.64735e-06,-7.60998e-06,5.78047e-05,5.0104e-05,-8.95123e-06,1.8968e-05
1325,6.16598e-06,-4.18082e-06,5.46832e-05,4.50964e-05,-1.00445e-05,1.64032e-05
1326,-3.68816e-06,1.3171e-07,4.83794e-05,3.97554e-05,-1.41559e-05,1.60229e-05
1327,-1.44006e-05,-5.60842e-08,4.38128e-05,3.85172e-05,-1.7589e-05,1.73046e-05
1328,-1.41784e-05,-8.74288e-08,4.6277e-05,4.27518e-05,-1.68759e-05,1.82905e-05
1329,-3.21689e-06,4.08101e-06,5.3173e-05,4.43625e-05,-1.36734e-05,2.04959e-05
1330,6.65461e-06,6.77221e-06,5.72993e-05,4.12277e-05,-1.12495e-05,2.51161e-05
1331,7.33011e-06,8.54503e-06,5.44674e-05,4.08064e-05,-1.14595e-05,2.81633e-05
1332,-1.29956e-06,1.38963e-05,4.86596e-05,4.48701e-05,-1.39637e-05,2.65436e-05
1333,-1.71641e-05,1.69862e-05,4.24019e-05,4.97143e-05,-1.69996e-05,2.24629e-05
1334,-1.93724e-05,1.57573e-05,3.97817e-05,5.32996e-05,-1.82736e-05,2.04827e-05
1335,-1.3584e-06,1.45216e-05,4.26831e-05,5.51429e-05,-1.82211e-05,2.41551e-05
1336,7.79022e-06,1.4283e-05,3.99678e-05,5.29107e-05,-1.73813e-05,2.65017e-05
1337,5.75501e-06,1.32611e-05,3.36878e-05,4.98203e-05,-1.63073e-05,2.45423e-05
1338,7.58473e-06,8.34672e-06,3.22859e-05,4.81491e-05,-1.60793e-05,2.28862e-05
1339,8.06884e-06,3.15445e-06,3.36694e-05,4.55783e-05,-1.65509e-05,2.24068e-05
1340,3.16747e-06,5.80489e-06,3.45763e-05,4.22772e-05,-2.15604e-05,2.29181e-05
1341,-1.20979e-05,1.11958e-05,3.02907e-05,4.1368e-05,-2.87412e-05,2.08492e-05
1342,-2.65889e-05,1.13622e-05,2.37891e-05,4.44099e-05,-3.18874e-05,1.60514e-05
1343,-2.26939e-05,1.05022e-05,2.37138e-05,4.85201e-05,-2.82105e-05,1.38475e-05
1344,-5.21691e-06,1.06774e-05,2.92364e-05,5.1366e-05,-2.2232e-05,1.55291e-05
1345,6.14645e-06,1.17907e-05,3.13006e-05,5.20502e-05,-1.9672e-05,1.61594e-05
1346,4.65593e-06,1.48497e-05,2.86559e-05,5.25834e-05,-2.07986e-05,1.52412e-05
1347,-5.44849e-06,1.89937e-05,2.3123e-05,5.25166e-05,-2.16273e-05,1.30416e-05
1348,-1.56199e-05,2.06971e-05,1.88288e-05,5.03267e-05,-1.91922e-05,1.02455e-05
1349,-1.3982e-05,2.02614e-05,2.32193e-05,4.80945e-05,-1.55793e-05,8.81613e-06
1350,-2.49943e-06,1.79889e-05,3.7233e-05,4.97708e-05,-1.39932e-05,9.4959e-06
1351,3.64592e-06,1.75535e-05,4.8647e-05,5.39464e-05,-1.46021e-05,1.11642e-05
1352,-1.11722e-06,2.17596e-05,4.93905e-05,5.56142e-05,-1.54411e-05,1.14241e-05
1353,-9.68825e-06,2.33823e-05,4.38528e-05,5.45163e-05,-1.5557e-05,8.25403e-06
1354,-1.68313e-05,1.64318e-05,3.78605e-05,5.3197e-05,-1.69183e-05,3.37145e-06
1355,-1.57369e-05,1.08761e-05,3.73584e-05,5.29448e-05,-1.96776e-05,2.97115e-06
1356,-6.26139e-06,1.29592e-05,4.12832e-05,5.36593e-05,-1.9325e-05,8.44193e-06
1357,1.08504e-07,1.73007e-05,4.21271e-05,5.46497e-05,-1.73148e-05,1.30201e-05
1358,-3.00671e-06,2.17291e-05,3.58736e-05,5.42063e-05,-1.51949e-05,1.25568e-05
1359,-1.18851e-05,2.42113e-05,2.71e-05,5.21577e-05,-1.33646e-05,9.96609e-06
1360,-2.51146e-05,2.23285e-05,1.86656e-05,5.19037e-05,-1.13791e-05,6.46663e-06
1361,-2.70264e-05,1.87003e-05,1.9724e-05,5.60027e-05,-1.18596e-05,3.8799e-06
1362,-1.04074e-05,2.04302e-05,3.46954e-05,5.97024e-05,-1.5639e-05,3.87879e-06
1363,-8.94779e-07,2.33221e-05,4.49105e-05,5.73279e-05,-1.42008e-05,4.16121e-06
1364,-1.97072e-06,2.02936e-05,4.42068e-05,5.3139e-05,-8.17684e-06,7.99757e-07
1365,-1.5329e-06,1.27445e-05,3.84792e-05,5.34245e-05,-4.51836e-06,-1.65862e-06
1366,-3.79137e-06,7.59851e-06,3.35651e-05,5.58038e-05,-2.75118e-06,-9.85969e-08
1367,-8.42369e-06,9.42279e-06,3.50666e-05,5.4385e-05,-1.17704e-06,3.88373e-06
1368,-1.93178e-05,1.2708e-05,3.62086e-05,5.27174e-05,-1.74604e-07,6.4842e-06
1369,-2.7551e-05,1.16112e-05,3.81606e-05,5.45749e-05,-9.10231e-07,7.15367e-06
1370,-2.05581e-05,9.37963e-06,4.48956e-05,5.56209e-05,2.03691e-06,8.69191e-06
1371,-5.54475e-06,6.85365e-06,5.12396e-05,5.6121e-05,9.48536e-06,1.04643e-05
1372,1.75748e-06,6.24289e-06,5.14693e-05,5.56357e-05,1.46344e-05,1.37401e-05
1373,-4.85207e-07,8.77674e-06,4.90858e-05,5.59105e-05,1.61168e-05,1.77204e-05
1374,-1.03321e-05,1.15848e-05,4.62386e-05,5.75792e-05,1.59764e-05,1.96552e-05
1375,-2.13608e-05,1.22205e-05,4.13301e-05,6.0113e-05,1.40494e-05,1.75116e-05
1376,-2.01605e-05,1.09316e-05,3.75059e-05,6.18448e-05,9.72677e-06,1.60776e-05
1377,-8.60577e-06,1.01161e-05,3.97182e-05,6.16364e-05,3.85899e-06,1.84477e-05
1378,-2.65728e-07,1.15559e-05,4.48638e-05,6.01696e-05,-1.54874e-06,2.0158e-05
1379,5.07686e-08,1.50398e-05,4.90424e-05,5.77428e-05,-4.76247e-06,1.70667e-05
1380,-4.27668e-06,1.56189e-05,4.99411e-05,5.39928e-05,-5.44148e-06,1.09606e-05
1381,-1.19461e-05,1.24657e-05,4.60304e-05,5.13339e-05,-4.17001e-06,6.84625e-06
1382,-1.21456e-05,1.04159e-05,4.21907e-05,5.32149e-05,-2.24687e-06,6.44576e-06
1383,-1.28866e-06,1.14059e-05,4.13365e-05,5.55757e-05,-6.9909e-07,7.97084e-06
1384,8.15904e-06,1.49452e-05,3.86429e-05,5.53198e-05,1.71022e-06,1.0262e-05
1385,7.51391e-06,2.09096e-05,3.36516e-05,5.38556e-05,2.8711e-06,1.28391e-05
1386,4.73795e-07,2.63297e-05,3.20925e-05,5.49525e-05,1.39854e-08,1.4842e-05
1387,-1.07162e-05,2.71214e-05,3.30973e-05,5.41695e-05,-2.59567e-06,1.44364e-05
1388,-1.4722e-05,2.15764e-05,3.73097e-05,5.05293e-05,-4.94498e-06,1.31237e-05
1389,-6.21949e-06,1.98185e-05,4.23124e-05,4.6879e-05,-6.09564e-06,1.35206e-05
1390,-1.37427e-06,2.35114e-05,4.25128e-05,4.16296e-05,-6.32825e-06,1.15944e-05
1391,5.63439e-07,2.40576e-05,3.78455e-05,3.85047e-05,-6.54078e-06,8.95485e-06
1392,4.34756e-06,2.19227e-05,3.55463e-05,4.14289e-05,-4.92755e-06,1.17735e-05
1393,4.22038e-06,2.42779e-05,3.68903e-05,4.56394e-05,-5.68173e-06,1.53191e-05
1394,-8.39517e-07,3.04604e-05,3.74636e-05,4.38091e-05,-1.13248e-05,1.56384e-05
1395,-1.3067e-05,3.26104e-05,3.33811e-05,3.77358e-05,-1.56096e-05,1.48001e-05
1396,-2.26575e-05,2.90847e-05,2.87211e-05,3.45728e-05,-1.66067e-05,1.32759e-05
1397,-1.41677e-05,2.38834e-05,3.09841e-05,3.61057e-05,-1.61293e-05,1.1265e-05
1398,3.18605e-06,2.05226e-05,3.83845e-05,3.95591e-05,-1.54218e-05,8.93666e-06
1399,7.7342e-06,2.03538e-05,4.21008e-05,4.19476e-05,-1.6752e-05,9.20294e-06
1400,-2.31728e-06,2.45732e-05,3.74768e-05,4.22312e-05,-2.03797e-05,1.1369e-05
1401,-1.97906e-05,2.41599e-05,2.94636e-05,4.17115e-05,-2.39758e-05,1.19125e-05
1402,-3.06291e-05,1.33555e-05,2.54803e-05,4.26021e-05,-2.54909e-05,9.42375e-06
1403,-2.65348e-05,1.36845e-06,3.10159e-05,4.34636e-05,-2.60528e-05,5.78215e-06
1404,-1.60157e-05,-3.2397e-06,4.00458e-05,4.09687e-05,-2.62559e-05,2.66933e-06
1405,-1.10152e-05,-2.68546e-06,4.1927e-05,3.62485e-05,-2.4232e-05,7.84059e-07
1406,-1.07161e-05,5.38041e-07,3.72056e-05,3.42498e-05,-1.86523e-05,-1.76406e-07
1407,-1.27366e-05,4.29352e-06,3.16865e-05,3.86986e-05,-1.40024e-05,-1.49941e-07
1408,-2.01325e-05,3.16214e-06,2.77749e-05,4.51143e-05,-1.20166e-05,1.65404e-06
1409,-2.20745e-05,-1.66084e-06,2.96375e-05,4.50494e-05,-1.08904e-05,4.54331e-06
1410,-1.09312e-05,-4.4594e-06,3.55843e-05,4.05618e-05,-1.10986e-05,7.17138e-06
1411,2.77718e-07,-5.14379e-06,3.93416e-05,3.97173e-05,-1.41588e-05,7.33365e-06
1412,3.43308e-07,-3.62661e-06,3.99353e-05,4.19986e-05,-1.67207e-05,4.59946e-06
1413,-7.11383e-06,-9.08404e-07,3.75693e-05,4.36011e-05,-1.63739e-05,1.59128e-06
1414,-1.9543e-05,-1.33073e-06,3.20619e-05,4.25008e-05,-1.61457e-05,6.02083e-07
1415,-2.24238e-05,-2.90953e-07,2.97742e-05,3.99981e-05,-1.79314e-05,2.88531e-07
1416,-8.13877e-06,3.60833e-06,3.86576e-05,3.97713e-05,-1.92459e-05,2.97339e-06
1417,-1.9704e-06,5.74763e-06,5.04537e-05,4.19785e-05,-1.88381e-05,7.20263e-06
1418,-4.74034e-06,7.31836e-06,5.29267e-05,4.59625e-05,-1.68988e-05,8.96399e-06
1419,-2.29213e-06,1.00806e-05,4.61456e-05,4.89823e-05,-1.51515e-05,9.96664e-06
1420,1.13716e-07,1.24772e-05,3.52111e-05,4.97241e-05,-1.57908e-05,1.10275e-05
1421,2.91461e-06,1.46694e-05,2.63333e-05,4.79086e-05,-1.62189e-05,1.25344e-05
1422,-4.7366e-06,1.64926e-05,2.22629e-05,4.57322e-05,-1.63574e-05,1.25176e-05
1423,-1.91193e-05,1.56709e-05,2.28517e-05,4.76184e-05,-1.47051e-05,1.00137e-05
1424,-2.0539e-05,1.37544e-05,3.10113e-05,5.0186e-05,-1.50876e-05,9.046e-06
1425,-1.02325e-05,1.39575e-05,3.96835e-05,5.15115e-05,-1.70483e-05,1.17173e-05
1426,-2.65662e-06,1.70164e-05,4.07036e-05,5.25099e-05,-1.61688e-05,1.62383e-05
1427,-6.13444e-07,2.23754e-05,3.56972e-05,5.28371e-05,-1.34982e-05,1.72266e-05
1428,-4.12939e-06,2.43658e-05,2.73433e-05,5.30973e-05,-1.0734e-05,1.47449e-05
1429,-9.91536e-06,2.03913e-05,2.07939e-05,5.52449e-05,-9.14452e-06,1.26456e-05
1430,-8.54133e-06,1.63346e-05,2.18866e-05,6.00115e-05,-6.76945e-06,1.20501e-05
1431,2.1102e-07,1.63709e-05,2.70024e-05,6.23974e-05,-2.87847e-06,1.24225e-05
1432,6.95888e-06,1.93019e-05,2.85852e-05,6.10402e-05,5.12943e-07,1.24616e-05
1433,5.57659e-06,2.3231e-05,2.70786e-05,6.0001e-05,1.25221e-06,1.29472e-05
1434,-2.54232e-06,2.65187e-05,2.49394e-05,6.01279e-05,1.78091e-06,1.39487e-05
1435,-1.27691e-05,2.56874e-05,2.33005e-05,5.81081e-05,3.36012e-06,1.44748e-05
1436,-1.44545e-05,2.20587e-05,2.35792e-05,5.29644e-05,3.59706e-06,1.47785e-05
1437,-6.02378e-06,1.63663e-05,2.5082e-05,4.94257e-05,6.16668e-07,1.51926e-05
1438,1.7308e-06,9.35248e-06,2.5874e-05,4.9619e-05,-1.3514e-06,1.4203e-05
1439,3.27909e-06,4.99017e-06,2.60887e-05,5.08792e-05,-1.05461e-06,1.44971e-05
1440,-2.93981e-06,4.81503e-06,2.50723e-05,5.14221e-05,-2.12288e-07,1.46428e-05
1441,-1.83779e-05,5.12017e-06,2.18637e-05,4.89368e-05,-6.65926e-07,1.28154e-05
1442,-2.15896e-05,4.28581e-06,2.30926e-05,4.6275e-05,-3.49894e-06,1.33479e-05
1443,-4.09939e-06,4.37012e-06,2.89128e-05,4.913e-05,-3.96434e-06,1.64202e-05
1444,4.79276e-06,3.10706e-06,2.88978e-05,5.16148e-05,-1.46058e-06,1.73461e-05
1445,-1.27019e-06,-3.90501e-06,2.92313e-05,5.09477e-05,3.81837e-07,1.62328e-05
1446,-4.9386e-06,-1.24135e-05,3.42545e-05,5.23517e-05,-2.43224e-07,1.56367e-05
1447,-4.84269e-06,-1.16181e-05,4.06135e-05,5.37297e-05,-2.3132e-06,1.6387e-05
1448,-4.83906e-06,-3.18901e-06,4.43508e-05,5.21881e-05,-3.57374e-06,1.93585e-05
1449,-1.29111e-05,1.30135e-06,4.00627e-05,5.34306e-05,-4.68383e-06,2.06787e-05
1450,-2.40455e-05,-2.16054e-06,3.37649e-05,5.75234e-05,-5.59419e-06,2.07366e-05
1451,-2.17272e-05,-4.45103e-06,3.36171e-05,5.93325e-05,-6.03743e-06,1.99295e-05
1452,-7.5897e-06,2.07776e-06,3.70484e-05,5.65581e-05,-5.49662e-06,1.92427e-05
1453,1.90992e-06,1.50163e-05,3.81526e-05,5.14025e-05,-3.67993e-06,1.71169e-05
1454,3.61972e-06,2.68839e-05,3.51916e-05,4.7409e-05,-1.8816e-06,1.53229e-05
1455,-1.37042e-06,3.35686e-05,2.76747e-05,4.48401e-05,-4.90847e-07,1.49511e-05
1456,-1.02204e-05,3.33334e-05,2.3625e-05,4.57742e-05,-8.71653e-07,1.42937e-05
1457,-1.31634e-05,3.09657e-05,3.05136e-05,4.80981e-05,-3.38585e-06,1.51107e-05
1458,-7.42718e-06,3.03489e-05,4.35536e-05,4.76897e-05,-6.01378e-06,1.79811e-05
1459,-2.58929e-06,3.02119e-05,4.978e-05,4.35733e-05,-5.50208e-06,1.96341e-05
1460,-5.42385e-06,2.94102e-05,4.44079e-05,3.98995e-05,-3.85096e-06,1.55624e-05
1461,-1.45971e-05,2.6913e-05,3.58187e-05,4.03806e-05,-3.31772e-06,9.19822e-06
1462,-2.65027e-05,2.30012e-05,3.42831e-05,4.24809e-05,-1.86102e-06,5.02584e-06
1463,-2.94014e-05,2.06002e-05,4.15083e-05,4.20168e-05,-5.90247e-07,5.0149e-06
1464,-1.96455e-05,1.94892e-05,5.02686e-05,3.99085e-05,-1.95233e-06,5.43286e-06
1465,-1.09073e-05,1.79235e-05,5.34617e-05,3.86876e-05,-4.86492e-06,3.72416e-06
1466,-1.26117e-05,1.85018e-05,5.36239e-05,3.87468e-05,-6.43749e-06,1.43389e-06
1467,-1.8741e-05,1.76448e-05,5.43562e-05,3.96195e-05,-6.43075e-06,-1.0557e-06
1468,-2.9879e-05,1.02156e-05,5.13815e-05,3.94648e-05,-6.4924e-06,-4.02716e-06
1469,-2.97786e-05,-1.70754e-07,4.67346e-05,3.69453e-05,-3.54997e-06,-2.78843e-06
1470,-1.20659e-05,-9.20072e-07,4.53737e-05,3.66792e-05,-6.61929e-07,2.53471e-06
1471,-4.09103e-06,4.70933e-06,4.62688e-05,4.11701e-05,-9.10804e-07,3.3796e-06
1472,-7.95559e-06,7.09439e-06,5.0527e-05,4.50331e-05,-2.56574e-07,1.99777e-06
1473,-9.73471e-06,3.27299e-06,5.77291e-05,4.75734e-05,-8.61212e-07,1.07133e-06
1474,-5.32407e-06,1.13369e-07,6.2068e-05,4.79013e-05,-2.69245e-06,-1.31226e-06
1475,4.2567e-07,2.25709e-06,6.18458e-05,4.85589e-05,-3.14861e-06,-2.72634e-07
1476,-4.26403e-06,2.47743e-06,5.93961e-05,5.16997e-05,-4.3803e-06,1.0566e-06
1477,-1.40075e-05,8.64986e-07,5.70016e-05,5.56481e-05,-6.8835e-06,2.0777e-06
1478,-1.24114e-05,-3.25663e-07,5.79852e-05,5.95908e-05,-8.0648e-06,2.96593e-06
1479,-2.05241e-06,-2.71196e-06,6.12179e-05,5.98686e-05,-6.80563e-06,4.67215e-06
1480,3.57141e-06,-4.85218e-06,6.07733e-05,5.67438e-05,-4.57312e-06,8.12536e-06
1481,2.07751e-06,-2.79061e-06,5.49306e-05,5.48672e-05,-3.36838e-06,1.0635e-05
1482,-3.97303e-06,-6.22205e-08,4.668e-05,5.68171e-05,-3.5577e-06,1.13463e-05
1483,-1.0836e-05,-6.63889e-07,4.07369e-05,6.00062e-05,-4.12488e-06,1.17185e-05
1484,-1.01594e-05,-1.73384e-06,3.97766e-05,6.03869e-05,-3.29357e-06,1.28394e-05
1485,4.10004e-08,-4.03815e-07,4.16104e-05,5.83852e-05,-1.01072e-06,1.36541e-05
1486,7.32238e-06,2.53633e-06,4.19099e-05,5.66991e-05,1.10315e-06,1.49351e-05
1487,4.37461e-06,6.65568e-06,3.90506e-05,5.63634e-05,7.92647e-07,1.60915e-05
1488,-5.13074e-06,1.09004e-05,3.30637e-05,5.71404e-05,-3.08161e-06,1.81814e-05
1489,-1.42818e-05,1.20192e-05,2.6928e-05,5.75773e-05,-9.11726e-06,2.12348e-05
1490,-1.2057e-05,1.19888e-05,2.6323e-05,5.64278e-05,-1.20832e-05,2.49549e-05
1491,5.05079e-07,1.59918e-05,3.15053e-05,5.50743e-05,-7.37243e-06,2.64644e-05
1492,6.77891e-06,2.18372e-05,3.50478e-05,5.38072e-05,-1.3073e-06,2.57886e-05
1493,2.58883e-06,2.59369e-05,3.26629e-05,5.13575e-05,-2.46933e-06,2.31149e-05
1494,-5.83059e-06,3.03328e-05,2.6538e-05,4.93733e-05,-9.50922e-06,2.06862e-05
1495,-1.76482e-05,3.15449e-05,2.18276e-05,4.90214e-05,-1.59959e-05,2.15069e-05
1496,-1.93512e-05,2.79058e-05,2.60606e-05,4.93754e-05,-1.71039e-05,2.44445e-05
1497,-6.21992e-06,2.57628e-05,3.34183e-05,4.95349e-05,-1.54749e-05,2.61501e-05
1498,3.87328e-06,2.41402e-05,3.46328e-05,4.83338e-05,-1.46924e-05,2.29911e-05
1499,6.11907e-06,2.12061e-05,3.45934e-05,4.55017e-05,-1.35099e-05,2.0936e-05
1500,5.56514e-06,1.72254e-05,3.57174e-05,4.32057e-05,-1.18936e-05,2.34551e-05
1501,7.8525e-06,1.62341e-05,3.57697e-05,4.40319e-05,-1.35362e-05,2.43002e-05
1502,1.22718e-05,2.18678e-05,3.35664e-05,4.4147e-05,-1.82392e-05,2.33884e-05
1503,8.80275e-06,2.64361e-05,2.90132e-05,4.14793e-05,-2.004e-05,2.43995e-05
1504,-2.5005e-07,2.48865e-05,2.47731e-05,4.19688e-05,-1.68476e-05,2.75792e-05
1505,-1.75405e-07,2.28411e-05,2.62955e-05,4.71356e-05,-1.108e-05,2.93566e-05
1506,1.07357e-05,2.22406e-05,3.45203e-05,5.32371e-05,-4.35904e-06,2.89017e-05
1507,1.83205e-05,2.13248e-05,4.36343e-05,5.47649e-05,2.99196e-07,2.6504e-05
1508,1.64809e-05,2.27475e-05,4.76596e-05,5.21079e-05,1.7013e-07,2.28574e-05
1509,6.73934e-06,2.46445e-05,4.26164e-05,5.04519e-05,-2.35992e-06,1.88066e-05
1510,-2.8132e-06,2.38441e-05,3.44828e-05,5.18601e-05,-3.07427e-06,1.46845e-05
1511,-1.14267e-06,2.14014e-05,3.48563e-05,5.28072e-05,-7.4601e-07,1.16969e-05
1512,9.53357e-06,1.72804e-05,4.18102e-05,5.19398e-05,1.15115e-06,1.25536e-05
1513,1.50072e-05,1.38439e-05,4.33395e-05,5.06731e-05,4.76358e-07,1.61955e-05
1514,1.08176e-05,1.51687e-05,3.98899e-05,5.03381e-05,-1.10773e-06,1.70903e-05
1515,-2.06559e-07,1.90857e-05,3.73515e-05,5.17414e-05,-6.11695e-07,1.44546e-05
1516,-1.15629e-05,1.76254e-05,3.50609e-05,5.48053e-05,3.11696e-07,1.13618e-05
1517,-1.1025e-05,1.03939e-05,3.58808e-05,5.84463e-05,-1.12179e-07,1.00118e-05
1518,7.73993e-07,5.06741e-06,4.26654e-05,5.8979e-05,-1.62519e-06,8.84915e-06
1519,7.51247e-06,6.9793e-06,4.85041e-05,5.57014e-05,-3.65739e-06,7.7925e-06
1520,2.58768e-06,1.24252e-05,5.01628e-05,5.38116e-05,-4.05753e-06,6.24291e-06
1521,-7.75148e-06,1.27456e-05,4.79943e-05,5.72305e-05,-4.27784e-06,2.46056e-06
1522,-1.98789e-05,5.86706e-06,4.13544e-05,6.08076e-05,-7.42751e-06,-1.609e-06
1523,-2.23816e-05,4.85229e-07,3.51731e-05,5.82304e-05,-1.17235e-05,-5.30952e-07
1524,-1.15915e-05,5.09083e-06,3.69859e-05,5.07295e-05,-1.39274e-05,4.59482e-06
1525,-6.16222e-06,9.32471e-06,4.12293e-05,4.55101e-05,-1.31744e-05,7.59391e-06
1526,-5.11953e-06,5.8567e-06,4.12176e-05,4.34771e-05,-1.18735e-05,7.48808e-06
1527,-6.82167e-07,8.36735e-07,4.12687e-05,4.26106e-05,-1.49145e-05,5.13516e-06
1528,-2.74457e-07,1.88626e-06,4.02375e-05,4.1262e-05,-1.84942e-05,2.77526e-06
1529,-7.18211e-06,6.69678e-06,3.71852e-05,3.76022e-05,-1.55308e-05,3.50784e-06
1530,-1.97368e-05,7.79069e-06,3.08643e-05,3.51419e-05,-9.27768e-06,5.01763e-06
1531,-2.71741e-05,6.22045e-06,2.9086e-05,3.67164e-05,-5.37186e-06,3.99907e-06
1532,-1.95809e-05,4.87958e-06,3.6016e-05,4.02141e-05,-4.793e-06,1.55409e-06
1533,-5.25414e-06,3.20727e-06,4.24719e-05,4.4361e-05,-5.58835e-06,1.67401e-06
1534,1.38715e-06,-2.28546e-07,4.33118e-05,4.67855e-05,-6.60701e-06,3.8153e-06
1535,-2.20571e-07,-6.30329e-07,3.98513e-05,4.66622e-05,-8.75462e-06,6.9099e-06
1536,-9.20295e-06,6.85917e-07,3.37646e-05,4.54789e-05,-1.14347e-05,9.63189e-06
1537,-2.0153e-05,-8.47168e-07,2.7329e-05,4.50098e-05,-1.39222e-05,1.03454e-05
1538,-2.16638e-05,-2.69974e-06,2.68881e-05,4.58738e-05,-1.4807e-05,9.52626e-06
1539,-1.26548e-05,-1.18013e-06,3.01233e-05,4.70675e-05,-1.49181e-05,7.91546e-06
1540,-4.55793e-06,3.00416e-06,3.16647e-05,4.82697e-05,-1.54513e-05,5.69191e-06
1541,-5.43057e-06,8.3862e-06,3.21158e-05,4.87167e-05,-1.46519e-05,4.42331e-06
1542,-1.4852e-05,1.17919e-05,3.26954e-05,4.93056e-05,-1.16251e-05,6.124e-06
1543,-2.49245e-05,1.04341e-05,3.16371e-05,5.05513e-05,-7.67814e-06,9.01034e-06
1544,-2.2719e-05,8.19604e-06,3.17485e-05,5.07335e-05,-5.00515e-06,1.01415e-05
1545,-8.63487e-06,1.06281e-05,3.46202e-05,4.86858e-05,-6.66226e-06,1.01583e-05
1546,2.02719e-06,1.61847e-05,3.58838e-05,4.59859e-05,-1.0166e-05,1.12399e-05
1547,2.09519e-06,1.85893e-05,3.62482e-05,4.3899e-05,-1.06003e-05,1.36724e-05
1548,-5.07276e-06,1.89617e-05,3.62083e-05,4.59772e-05,-8.70361e-06,1.4618e-05
1549,-1.94296e-05,1.84671e-05,3.12077e-05,5.24697e-05,-6.96237e-06,1.28694e-05
