Time_Index,DELTOID_Affected,DELTOID_NonAffected,BICEPS_Affected,BICEPS_NonAffected,FOREARM_Affected,FOREARM_NonAffected
1,-2.31285e-06,4.37005e-06,3.70699e-05,3.89266e-05,1.7486e-06,5.89932e-06
2,1.55276e-05,-4.31062e-07,4.12693e-05,4.19305e-05,-9.01385e-07,8.10413e-06
3,3.15747e-05,-4.66168e-06,4.30863e-05,4.34337e-05,-3.34387e-06,9.43671e-06
4,3.35722e-05,-5.19496e-06,4.08655e-05,4.40897e-05,-4.52298e-06,8.52174e-06
5,2.2589e-05,-1.13761e-06,3.68045e-05,4.46701e-05,-2.97144e-06,6.7346e-06
6,6.21006e-06,3.20263e-06,3.25449e-05,4.42808e-05,1.63926e-06,5.60132e-06
7,-3.4648e-06,7.26424e-06,3.0658e-05,4.20794e-05,6.14422e-06,5.60387e-06
8,4.66486e-07,1.32323e-05,3.19468e-05,4.01433e-05,6.89609e-06,6.2896e-06
9,1.01328e-05,1.82208e-05,3.3304e-05,4.0418e-05,4.16763e-06,6.77486e-06
10,1.27841e-05,1.91255e-05,3.20174e-05,4.14198e-05,3.89888e-07,5.90275e-06
11,3.8624e-06,1.70891e-05,2.83965e-05,4.10225e-05,-3.355e-06,4.64167e-06
12,-1.2772e-05,1.31311e-05,2.32924e-05,4.10903e-05,-8.02894e-06,4.89777e-06
13,-2.40608e-05,7.22323e-06,1.97284e-05,4.36307e-05,-1.43157e-05,5.99134e-06
14,-1.82548e-05,2.1068e-06,2.09077e-05,4.71297e-05,-2.19382e-05,6.27845e-06
15,-2.82521e-06,1.46802e-06,2.55127e-05,5.07717e-05,-2.80136e-05,5.87858e-06
16,6.03315e-06,4.09925e-06,3.00721e-05,5.27134e-05,-2.821e-05,5.80158e-06
17,2.88292e-06,5.60532e-06,3.15155e-05,5.01011e-05,-2.19419e-05,5.28861e-06
18,-1.04805e-05,2.90016e-06,2.96465e-05,4.40868e-05,-1.39653e-05,4.40996e-06
19,-2.34579e-05,-4.82356e-06,3.01991e-05,4.12898e-05,-7.90464e-06,4.86268e-06
20,-1.98467e-05,-1.32853e-05,3.68439e-05,4.5352e-05,-1.98181e-06,7.38921e-06
21,-6.68087e-06,-1.75523e-05,4.28367e-05,4.95992e-05,2.70749e-06,1.07219e-05
22,5.00899e-07,-1.69833e-05,4.16761e-05,5.01867e-05,2.98852e-06,1.33513e-05
23,4.47184e-06,-1.39122e-05,3.65099e-05,5.05763e-05,-3.99986e-07,1.61691e-05
24,7.99349e-06,-9.84482e-06,3.23406e-05,5.07574e-05,-5.31721e-06,1.74544e-05
25,8.68404e-06,-2.47339e-06,3.12315e-05,4.8884e-05,-9.5673e-06,1.43735e-05
26,7.13234e-07,7.76131e-06,2.97357e-05,4.70025e-05,-1.2337e-05,1.03048e-05
27,-1.42321e-05,1.44326e-05,2.35925e-05,4.68874e-05,-1.28822e-05,9.77121e-06
28,-1.81292e-05,1.58142e-05,1.7726e-05,4.62701e-05,-1.05262e-05,1.3424e-05
29,-5.66283e-06,1.5543e-05,1.8712e-05,4.34764e-05,-6.79476e-06,1.87017e-05
30,5.7609e-06,1.68928e-05,2.44235e-05,3.99732e-05,-4.49364e-06,2.22247e-05
31,4.95885e-06,2.2627e-05,2.71603e-05,3.78056e-05,-5.95374e-06,2.26383e-05
32,-5.46597e-06,3.04614e-05,2.27406e-05,3.79428e-05,-1.05928e-05,2.05614e-05
33,-1.83405e-05,3.23122e-05,1.57034e-05,4.0168e-05,-1.44804e-05,1.82714e-05
34,-2.31194e-05,2.68068e-05,1.51025e-05,4.30386e-05,-1.45687e-05,1.76771e-05
35,-1.67946e-05,2.17074e-05,2.14176e-05,4.53876e-05,-1.1502e-05,1.89944e-05
36,-9.40799e-06,2.11034e-05,2.63921e-05,4.71284e-05,-7.89361e-06,2.15191e-05
37,-9.059e-06,2.30327e-05,2.68409e-05,4.77203e-05,-5.40774e-06,2.24931e-05
38,-1.43456e-05,2.46263e-05,2.55696e-05,4.75009e-05,-3.47109e-06,1.96459e-05
39,-2.28485e-05,2.31945e-05,2.38034e-05,4.7682e-05,-1.30223e-06,1.53708e-05
40,-2.7411e-05,1.8496e-05,2.38593e-05,4.85289e-05,2.07448e-07,1.29291e-05
41,-2.13405e-05,1.43532e-05,2.86442e-05,5.01473e-05,2.01052e-07,1.35599e-05
42,-1.28091e-05,1.2537e-05,3.49125e-05,5.21527e-05,-7.24422e-07,1.65578e-05
43,-1.18667e-05,1.23204e-05,3.65859e-05,5.26544e-05,-3.16196e-06,1.90381e-05
44,-1.83367e-05,1.24211e-05,3.40232e-05,5.12163e-05,-6.82523e-06,1.95566e-05
45,-3.09514e-05,9.26356e-06,3.16144e-05,5.1204e-05,-9.95229e-06,1.87348e-05
46,-4.12556e-05,3.22635e-06,3.18834e-05,5.41945e-05,-1.14076e-05,1.7462e-05
47,-3.53815e-05,6.3635e-07,3.50557e-05,5.68491e-05,-8.82582e-06,1.60243e-05
48,-2.28052e-05,1.59719e-06,3.8436e-05,5.78488e-05,-2.929e-06,1.42283e-05
49,-2.10359e-05,3.40549e-07,4.17207e-05,5.8384e-05,3.35654e-06,1.51111e-05
50,-2.52664e-05,-4.57661e-06,4.58907e-05,5.84188e-05,7.23738e-06,1.9617e-05
51,-2.52602e-05,-6.47349e-06,4.76266e-05,5.82744e-05,6.02455e-06,2.23951e-05
52,-1.98645e-05,1.46837e-07,4.52217e-05,5.7863e-05,2.84056e-06,2.11503e-05
53,-1.7187e-05,9.74453e-06,4.02524e-05,5.71105e-05,4.23584e-07,1.82371e-05
54,-2.05779e-05,1.45219e-05,3.47675e-05,5.59643e-05,-1.39771e-06,1.57582e-05
55,-1.84318e-05,1.51433e-05,3.50013e-05,5.45235e-05,-2.84519e-06,1.43947e-05
56,-4.68713e-06,1.48124e-05,4.20835e-05,5.46166e-05,-5.05352e-06,1.37861e-05
57,9.73981e-06,1.45624e-05,4.7392e-05,5.72592e-05,-6.90979e-06,1.2423e-05
58,1.65719e-05,1.68042e-05,4.73817e-05,5.94973e-05,-6.65037e-06,1.03178e-05
59,1.53601e-05,2.07368e-05,4.4321e-05,5.85231e-05,-6.24333e-06,9.62775e-06
60,8.17984e-06,2.11739e-05,4.09128e-05,5.58235e-05,-8.03258e-06,1.10497e-05
61,3.77248e-06,1.72476e-05,4.20401e-05,5.31706e-05,-1.02762e-05,1.23732e-05
62,7.79385e-06,1.31695e-05,4.80032e-05,5.0641e-05,-1.14192e-05,1.19137e-05
63,1.31099e-05,1.02696e-05,5.18939e-05,4.92829e-05,-1.21803e-05,1.18062e-05
64,1.21365e-05,7.46864e-06,5.08313e-05,5.07196e-05,-1.19677e-05,1.4072e-05
65,6.1714e-06,4.88618e-06,4.7361e-05,5.46266e-05,-1.03738e-05,1.73969e-05
66,-3.85959e-06,2.12165e-06,4.2443e-05,5.91028e-05,-9.57076e-06,1.86788e-05
67,-1.3537e-05,-6.4228e-07,3.77357e-05,6.07548e-05,-8.77715e-06,1.66834e-05
68,-1.47062e-05,-1.27157e-06,3.64615e-05,5.73049e-05,-5.33863e-06,1.38469e-05
69,-1.04633e-05,1.31113e-06,3.9511e-05,5.14273e-05,-1.48863e-06,1.28994e-05
70,-1.25271e-05,7.32556e-06,4.47207e-05,4.814e-05,-4.41491e-07,1.38204e-05
71,-2.27271e-05,1.45731e-05,4.79131e-05,4.92319e-05,-1.13854e-06,1.55084e-05
72,-3.62498e-05,1.85231e-05,4.73974e-05,5.33052e-05,-8.65255e-07,1.64252e-05
73,-4.34557e-05,1.74857e-05,4.7489e-05,5.63846e-05,1.48446e-06,1.61191e-05
74,-3.46029e-05,1.47128e-05,5.26481e-05,5.46102e-05,4.26336e-06,1.69957e-05
75,-2.0617e-05,1.35817e-05,5.73524e-05,5.13084e-05,3.7605e-06,1.84539e-05
76,-1.47433e-05,1.40298e-05,5.78758e-05,5.12304e-05,3.56143e-07,1.73472e-05
77,-1.34158e-05,1.27925e-05,5.81871e-05,5.4854e-05,-1.27387e-06,1.68299e-05
78,-1.16502e-05,1.06558e-05,5.85306e-05,6.01568e-05,-2.69894e-07,1.88886e-05
79,-9.74349e-06,1.22616e-05,5.84609e-05,6.1334e-05,1.82884e-06,1.92923e-05
80,-1.30256e-05,1.48049e-05,5.50818e-05,5.82847e-05,3.89243e-06,1.5708e-05
81,-2.1369e-05,1.31268e-05,4.79394e-05,5.67271e-05,4.64366e-06,1.01005e-05
82,-2.14094e-05,8.43021e-06,4.38793e-05,5.69243e-05,6.0684e-06,7.33278e-06
83,-7.96021e-06,3.91674e-06,4.49083e-05,5.62585e-05,1.0089e-05,1.04813e-05
84,5.49762e-06,4.05783e-07,4.58098e-05,5.3442e-05,1.39954e-05,1.57229e-05
85,9.17545e-06,-3.63936e-07,4.44029e-05,4.91142e-05,1.5585e-05,1.71312e-05
86,4.67027e-06,1.03087e-06,4.19184e-05,4.60403e-05,1.40789e-05,1.45017e-05
87,-3.74348e-06,-5.5294e-07,3.92537e-05,4.6764e-05,8.90255e-06,1.13168e-05
88,-8.06236e-06,-5.06338e-06,3.93441e-05,4.96661e-05,2.21078e-06,1.0937e-05
89,-4.43549e-06,-5.83907e-06,4.25873e-05,5.12065e-05,-2.69476e-06,1.39061e-05
90,3.42327e-07,-3.45006e-07,4.45875e-05,5.07515e-05,-5.28737e-06,1.66743e-05
91,9.86236e-07,7.68139e-06,4.22076e-05,5.01217e-05,-7.74802e-06,1.55818e-05
92,-5.19802e-07,1.43322e-05,3.58797e-05,5.13765e-05,-1.09938e-05,1.17434e-05
93,-3.42352e-06,1.60363e-05,2.90583e-05,5.48791e-05,-1.29128e-05,8.6614e-06
94,-4.3235e-06,1.16267e-05,2.7614e-05,5.82182e-05,-1.19558e-05,7.71182e-06
95,2.42281e-06,6.34673e-06,3.32051e-05,5.80866e-05,-1.01839e-05,8.78786e-06
96,9.17068e-06,5.31299e-06,3.9658e-05,5.48764e-05,-9.09909e-06,1.14558e-05
97,3.9115e-06,9.4694e-06,4.08179e-05,5.18887e-05,-8.42777e-06,1.36457e-05
98,-1.21192e-05,1.73994e-05,3.84019e-05,5.07643e-05,-8.72687e-06,1.38989e-05
99,-3.45195e-05,2.15985e-05,3.616e-05,5.1283e-05,-1.05538e-05,1.18386e-05
100,-5.19323e-05,1.83534e-05,3.64058e-05,5.07125e-05,-1.33985e-05,7.2706e-06
101,-4.81923e-05,1.31626e-05,4.06536e-05,4.79865e-05,-1.55579e-05,3.75967e-06
102,-3.38223e-05,1.23255e-05,4.28001e-05,4.53087e-05,-1.56765e-05,3.7529e-06
103,-2.57845e-05,1.71743e-05,3.85546e-05,4.34659e-05,-1.55503e-05,6.06314e-06
104,-2.1959e-05,2.32801e-05,3.41793e-05,4.37677e-05,-1.782e-05,8.18569e-06
105,-1.83572e-05,2.86302e-05,3.26161e-05,4.64386e-05,-2.07195e-05,7.13879e-06
106,-1.40598e-05,3.2735e-05,3.02439e-05,4.81544e-05,-2.18387e-05,3.43056e-06
107,-1.37146e-05,3.37228e-05,2.48514e-05,4.71322e-05,-2.24701e-05,1.01938e-06
108,-1.99348e-05,2.86092e-05,2.02407e-05,4.49775e-05,-2.40544e-05,1.59511e-06
109,-2.16177e-05,2.21883e-05,2.31503e-05,4.29537e-05,-2.58499e-05,3.37375e-06
110,-9.70875e-06,2.0655e-05,3.2321e-05,4.1218e-05,-2.66763e-05,4.29832e-06
111,7.53869e-06,2.17128e-05,3.94369e-05,4.00038e-05,-2.62947e-05,3.2768e-06
112,1.90988e-05,2.30916e-05,4.0664e-05,3.94148e-05,-2.36296e-05,1.9097e-06
113,2.0726e-05,2.20871e-05,3.89635e-05,4.09606e-05,-2.00815e-05,2.27981e-06
114,1.3702e-05,1.55387e-05,3.68721e-05,4.63066e-05,-1.86974e-05,3.85837e-06
115,8.2289e-06,6.72764e-06,3.56383e-05,5.1789e-05,-1.81566e-05,4.86112e-06
116,1.26951e-05,2.26124e-06,3.67571e-05,5.2106e-05,-1.48806e-05,5.5032e-06
117,2.10724e-05,1.36295e-06,3.90896e-05,4.87947e-05,-8.98832e-06,6.36052e-06
118,2.46689e-05,4.98832e-07,3.94404e-05,4.69363e-05,-3.49474e-06,5.68909e-06
119,2.22569e-05,2.29522e-07,3.7081e-05,4.80294e-05,3.20106e-07,2.91277e-06
120,1.36976e-05,1.80766e-06,3.39866e-05,5.05087e-05,1.85904e-06,-3.82407e-07
121,6.35226e-06,4.21594e-06,3.18633e-05,5.15887e-05,8.56608e-08,-2.61272e-06
122,1.0036e-05,7.63102e-06,3.21472e-05,5.0339e-05,-3.66269e-06,-3.52185e-06
123,1.77085e-05,1.34003e-05,3.39034e-05,4.83852e-05,-6.73697e-06,-3.08072e-06
124,1.66079e-05,2.14088e-05,3.39223e-05,4.56713e-05,-8.92193e-06,-3.71936e-07
125,6.91533e-06,2.842e-05,3.26476e-05,4.31561e-05,-1.05316e-05,3.35618e-06
126,-7.51108e-06,2.83376e-05,3.18038e-05,4.31187e-05,-1.2093e-05,5.60042e-06
127,-1.77355e-05,2.14135e-05,3.25412e-05,4.56194e-05,-1.50649e-05,6.87168e-06
128,-1.17375e-05,1.5603e-05,3.48052e-05,4.69013e-05,-2.07769e-05,9.5304e-06
129,-1.55479e-06,1.11534e-05,3.388e-05,4.41116e-05,-2.81821e-05,1.1451e-05
130,-1.28767e-06,4.48391e-06,2.99277e-05,4.15733e-05,-3.23925e-05,8.57706e-06
131,-3.45768e-06,-2.67829e-06,2.69196e-05,4.37312e-05,-3.05562e-05,3.54158e-06
132,-5.15849e-06,-6.63857e-06,2.45797e-05,4.8103e-05,-2.77088e-05,1.33006e-06
133,-7.89968e-06,-4.58094e-06,2.46792e-05,4.70352e-05,-2.72184e-05,2.6999e-06
134,-1.38865e-05,-9.67939e-08,2.75353e-05,4.12975e-05,-2.60144e-05,4.97949e-06
135,-2.29347e-05,-4.36995e-07,2.97274e-05,4.00417e-05,-2.358e-05,6.28084e-06
136,-2.40721e-05,-5.35945e-06,3.23722e-05,4.31161e-05,-2.168e-05,7.73458e-06
137,-1.45171e-05,-7.57173e-06,3.63984e-05,4.41893e-05,-2.09041e-05,1.12291e-05
138,-7.99734e-06,-3.34341e-06,3.81221e-05,4.26482e-05,-1.9971e-05,1.49183e-05
139,-1.10774e-05,6.60099e-06,3.72236e-05,4.10343e-05,-1.75037e-05,1.5054e-05
140,-1.90638e-05,1.73003e-05,3.63274e-05,4.05079e-05,-1.49476e-05,1.21398e-05
141,-2.80737e-05,2.20119e-05,3.63119e-05,4.15915e-05,-1.41404e-05,1.03479e-05
142,-3.05424e-05,2.00075e-05,3.88042e-05,4.36968e-05,-1.56382e-05,1.26415e-05
143,-2.02309e-05,1.75769e-05,4.49668e-05,4.49445e-05,-1.87109e-05,1.79579e-05
144,-5.04727e-06,2.0373e-05,5.04344e-05,4.39282e-05,-2.25637e-05,2.26417e-05
145,1.00789e-06,2.82707e-05,4.92603e-05,4.22857e-05,-2.52027e-05,2.4735e-05
146,-5.4927e-06,3.56014e-05,4.20223e-05,4.26718e-05,-2.39513e-05,2.49779e-05
147,-1.81881e-05,3.68563e-05,3.46535e-05,4.50253e-05,-1.99518e-05,2.4281e-05
148,-2.56567e-05,3.33907e-05,3.33932e-05,4.73394e-05,-1.60842e-05,2.39856e-05
149,-1.96939e-05,3.29577e-05,3.90915e-05,4.86006e-05,-1.42116e-05,2.52855e-05
150,-6.7553e-06,4.04196e-05,4.50937e-05,4.8871e-05,-1.39554e-05,2.63209e-05
151,-2.32031e-07,5.10193e-05,4.67675e-05,4.79519e-05,-1.43441e-05,2.49355e-05
152,-2.29858e-06,5.6227e-05,4.60704e-05,4.64345e-05,-1.60991e-05,2.15999e-05
153,-1.05152e-05,5.1604e-05,4.34766e-05,4.71498e-05,-1.81548e-05,1.71404e-05
154,-1.87326e-05,4.20708e-05,3.96546e-05,5.03133e-05,-1.89602e-05,1.32913e-05
155,-1.32667e-05,3.63596e-05,3.68734e-05,5.15803e-05,-1.79266e-05,1.38729e-05
156,2.47532e-06,3.33579e-05,3.42839e-05,4.94275e-05,-1.55847e-05,1.74443e-05
157,1.44061e-05,2.6786e-05,3.26253e-05,4.6719e-05,-1.53138e-05,1.86272e-05
158,2.10346e-05,1.68107e-05,3.28305e-05,4.51817e-05,-1.77072e-05,1.92686e-05
159,2.39887e-05,8.3687e-06,3.15176e-05,4.35014e-05,-2.13963e-05,2.10065e-05
160,2.23995e-05,4.92903e-06,2.85014e-05,4.06747e-05,-2.51005e-05,2.0527e-05
161,1.19778e-05,4.78072e-06,2.71723e-05,3.96521e-05,-2.72681e-05,1.64464e-05
162,-5.30858e-06,3.98765e-06,2.8053e-05,4.40647e-05,-2.71777e-05,1.15876e-05
163,-1.21554e-05,1.1754e-06,3.34171e-05,5.11265e-05,-2.43086e-05,8.08629e-06
164,1.66913e-07,-1.25055e-06,4.19649e-05,5.60775e-05,-2.06003e-05,6.74222e-06
165,1.63364e-05,-1.17194e-06,4.62879e-05,5.65058e-05,-1.82763e-05,9.0691e-06
166,2.10563e-05,9.98274e-07,4.46136e-05,5.29014e-05,-1.76861e-05,1.3588e-05
167,1.16402e-05,2.19209e-06,3.92245e-05,4.93927e-05,-1.93346e-05,1.62193e-05
168,-6.78584e-06,-2.48336e-06,3.31671e-05,4.98354e-05,-2.20064e-05,1.45076e-05
169,-1.94067e-05,-1.1587e-05,3.12059e-05,5.31594e-05,-2.17806e-05,1.08816e-05
170,-1.69714e-05,-1.78001e-05,3.49693e-05,5.51333e-05,-1.73388e-05,8.97459e-06
171,-9.14809e-06,-1.76468e-05,4.02581e-05,5.50333e-05,-1.16896e-05,9.15576e-06
172,-9.26527e-06,-1.24906e-05,4.42169e-05,5.50507e-05,-7.42102e-06,9.84567e-06
173,-1.87135e-05,-5.91098e-06,4.67731e-05,5.6137e-05,-4.03854e-06,1.02107e-05
174,-3.21949e-05,-2.87993e-06,4.61013e-05,5.7063e-05,5.29719e-07,8.52638e-06
175,-3.98848e-05,-4.27197e-06,4.33141e-05,5.66053e-05,7.85173e-06,4.22161e-06
176,-3.4107e-05,-5.16547e-06,4.22574e-05,5.47114e-05,1.62924e-05,1.06524e-06
177,-2.27021e-05,-1.80203e-06,4.28209e-05,5.32761e-05,2.141e-05,2.77277e-06
178,-1.81107e-05,5.87879e-06,4.24371e-05,5.35886e-05,2.07465e-05,8.33713e-06
179,-2.10555e-05,1.51998e-05,3.82827e-05,5.41185e-05,1.63161e-05,1.31957e-05
180,-3.05702e-05,2.11215e-05,3.09394e-05,5.47075e-05,1.23758e-05,1.33256e-05
181,-4.08597e-05,2.18367e-05,2.85089e-05,5.50595e-05,1.07508e-05,1.0771e-05
182,-3.67485e-05,2.02443e-05,3.50491e-05,5.47233e-05,1.11617e-05,1.10912e-05
183,-2.32702e-05,1.88523e-05,4.26366e-05,5.47137e-05,1.13512e-05,1.39073e-05
184,-1.62126e-05,2.00079e-05,4.57786e-05,5.58414e-05,9.4786e-06,1.55269e-05
185,-1.52381e-05,2.36041e-05,4.53977e-05,5.80824e-05,8.68348e-06,1.4958e-05
186,-1.76513e-05,2.59309e-05,4.17856e-05,5.87897e-05,8.93268e-06,1.20984e-05
187,-2.13622e-05,2.65582e-05,3.724e-05,5.69528e-05,7.37163e-06,8.96478e-06
188,-2.61627e-05,2.77837e-05,3.25531e-05,5.34363e-05,6.1571e-06,8.6779e-06
189,-3.22826e-05,2.86251e-05,2.83922e-05,5.02616e-05,7.09731e-06,9.21889e-06
190,-3.0547e-05,2.77066e-05,2.93053e-05,4.96915e-05,6.67108e-06,9.59629e-06
191,-1.5778e-05,2.62184e-05,3.56514e-05,5.08095e-05,2.45916e-06,1.34165e-05
192,1.6526e-06,2.57411e-05,4.21865e-05,5.04603e-05,-2.62626e-06,1.86324e-05
193,9.75018e-06,2.76739e-05,4.50265e-05,4.79443e-05,-5.51314e-06,1.98888e-05
194,4.78891e-06,3.06711e-05,4.30153e-05,4.74663e-05,-7.47209e-06,1.83799e-05
195,-7.88806e-06,3.00203e-05,3.80626e-05,5.03887e-05,-1.06213e-05,1.91117e-05
196,-1.36236e-05,2.468e-05,3.51126e-05,5.27429e-05,-1.32911e-05,2.29472e-05
197,-4.56102e-06,1.98691e-05,3.65979e-05,5.17626e-05,-1.37645e-05,2.58207e-05
198,1.00095e-05,1.96886e-05,3.98521e-05,4.95521e-05,-1.21399e-05,2.53701e-05
199,1.74687e-05,2.20091e-05,4.19688e-05,4.78901e-05,-9.04378e-06,2.30404e-05
200,1.51816e-05,2.21864e-05,4.20828e-05,4.55519e-05,-6.46143e-06,2.00905e-05
201,7.30067e-06,1.92955e-05,4.00339e-05,4.21783e-05,-6.18501e-06,1.63829e-05
202,4.87172e-06,1.57669e-05,3.76782e-05,3.95681e-05,-7.2756e-06,1.17872e-05
203,1.63241e-05,1.31547e-05,3.63909e-05,3.78856e-05,-7.98217e-06,7.50099e-06
204,3.09113e-05,1.2231e-05,3.45124e-05,3.6342e-05,-7.54302e-06,5.93185e-06
205,3.37189e-05,1.45884e-05,3.20424e-05,3.71275e-05,-6.61052e-06,7.29414e-06
206,2.50703e-05,2.08489e-05,3.04415e-05,4.13953e-05,-6.9985e-06,9.20859e-06
207,8.87731e-06,2.58035e-05,2.93426e-05,4.67245e-05,-8.42249e-06,9.33195e-06
208,-6.55288e-06,2.1621e-05,3.06696e-05,4.96684e-05,-9.39281e-06,7.91056e-06
209,-7.99951e-06,1.24966e-05,3.70968e-05,4.97234e-05,-8.67829e-06,8.85924e-06
210,-3.23889e-06,8.25087e-06,4.50236e-05,4.8476e-05,-6.24054e-06,1.30843e-05
211,-5.78808e-06,7.5045e-06,4.96586e-05,4.76648e-05,-4.61346e-06,1.73541e-05
212,-1.10629e-05,5.97443e-06,4.96362e-05,4.80972e-05,-5.4513e-06,1.93551e-05
213,-1.24744e-05,4.31167e-06,4.56853e-05,4.7435e-05,-8.27998e-06,1.77864e-05
214,-1.05882e-05,4.94317e-06,4.16022e-05,4.66707e-05,-1.05611e-05,1.48817e-05
215,-1.18274e-05,7.18752e-06,3.89027e-05,4.88327e-05,-1.05741e-05,1.2997e-05
216,-1.90994e-05,6.31699e-06,3.70553e-05,5.23315e-05,-8.34603e-06,1.19767e-05
217,-2.24431e-05,1.84006e-06,3.57033e-05,5.43364e-05,-6.67294e-06,1.22627e-05
218,-1.48127e-05,-3.21367e-06,3.41869e-05,5.49147e-05,-9.75177e-06,1.43638e-05
219,-6.44937e-06,-5.64645e-06,3.18126e-05,5.52688e-05,-1.43565e-05,1.537e-05
220,-5.66782e-06,-2.59588e-06,2.85563e-05,5.5744e-05,-1.44568e-05,1.28505e-05
221,-1.18974e-05,3.81768e-06,2.47866e-05,5.72651e-05,-1.09323e-05,1.02341e-05
222,-2.44378e-05,7.60832e-06,2.16037e-05,6.00365e-05,-9.65307e-06,1.01281e-05
223,-3.44046e-05,6.85742e-06,2.34277e-05,6.18968e-05,-1.19266e-05,1.14203e-05
224,-3.13466e-05,3.80014e-06,2.95634e-05,6.02271e-05,-1.40578e-05,1.22031e-05
225,-2.02918e-05,1.03774e-06,3.17888e-05,5.64085e-05,-1.43678e-05,1.15804e-05
226,-1.3587e-05,2.3028e-06,2.69953e-05,5.43758e-05,-1.44904e-05,1.07381e-05
227,-1.5275e-05,7.96804e-06,2.08832e-05,5.54735e-05,-1.44412e-05,1.1145e-05
228,-2.33257e-05,1.14082e-05,1.95465e-05,5.7273e-05,-1.24192e-05,1.23465e-05
229,-2.95391e-05,8.16949e-06,2.55838e-05,5.69865e-05,-1.00573e-05,1.29336e-05
230,-2.44216e-05,2.65316e-06,3.5902e-05,5.55134e-05,-1.04447e-05,1.22702e-05
231,-1.20576e-05,-4.98585e-07,4.2629e-05,5.5207e-05,-1.29592e-05,1.15856e-05
232,-5.09517e-06,-3.45019e-07,4.27325e-05,5.52167e-05,-1.41332e-05,1.14663e-05
233,-8.35311e-06,2.15094e-06,4.04397e-05,5.53116e-05,-1.29845e-05,1.0514e-05
234,-2.0547e-05,4.10289e-06,3.68349e-05,5.78079e-05,-9.88526e-06,8.02707e-06
235,-3.0969e-05,3.22298e-06,3.32681e-05,6.05699e-05,-5.60813e-06,6.21669e-06
236,-2.41862e-05,-1.10117e-07,3.30008e-05,5.82512e-05,-3.6581e-06,6.94286e-06
237,-1.00668e-05,-2.34291e-06,3.19871e-05,5.15632e-05,-6.48098e-06,7.75837e-06
238,-5.47318e-06,-1.10643e-06,3.05199e-05,4.72187e-05,-1.14023e-05,7.41163e-06
239,-4.76316e-06,6.7452e-07,3.30158e-05,4.80164e-05,-1.2587e-05,8.44051e-06
240,-1.57621e-06,9.50487e-08,3.71605e-05,5.05723e-05,-8.40498e-06,1.16956e-05
241,1.11324e-06,3.23947e-07,3.93581e-05,5.11315e-05,-3.25047e-06,1.44867e-05
242,-2.09696e-06,2.8348e-06,3.58588e-05,4.95348e-05,-8.342e-07,1.29869e-05
243,-1.04787e-05,3.94683e-06,2.8357e-05,4.84749e-05,-7.3944e-07,7.925e-06
244,-1.35037e-05,3.77843e-06,2.63919e-05,4.87907e-05,-1.17071e-06,3.24439e-06
245,-4.8836e-06,2.30327e-06,3.27144e-05,4.90349e-05,-2.16502e-06,1.63053e-06
246,7.25166e-06,-4.18898e-07,3.86733e-05,4.90873e-05,-2.75055e-06,4.22219e-06
247,1.2617e-05,1.30991e-06,3.94465e-05,4.89378e-05,-1.3865e-06,8.51851e-06
248,7.69332e-06,9.38264e-06,3.89246e-05,4.74659e-05,-1.87022e-07,1.02261e-05
249,-4.94517e-06,1.69669e-05,3.9888e-05,4.62685e-05,-1.06959e-06,8.11554e-06
250,-1.19753e-05,1.81729e-05,4.30309e-05,4.70226e-05,-1.82024e-06,6.08083e-06
251,-3.29364e-06,1.37084e-05,4.72625e-05,4.73048e-05,-9.47434e-07,7.54881e-06
252,1.29875e-05,9.06256e-06,4.85494e-05,4.51881e-05,-5.3371e-07,1.07468e-05
253,2.19554e-05,1.05256e-05,4.50209e-05,4.24503e-05,-1.46173e-06,1.29251e-05
254,1.71176e-05,1.76906e-05,4.05611e-05,4.29139e-05,-2.06318e-06,1.39331e-05
255,1.18522e-06,2.29352e-05,3.86661e-05,4.8429e-05,-2.26936e-06,1.32676e-05
256,-1.30869e-05,2.21535e-05,4.08098e-05,5.48683e-05,-2.28356e-06,1.11297e-05
257,-1.37971e-05,1.94694e-05,4.69465e-05,5.58556e-05,-1.33192e-06,1.05001e-05
258,-7.14921e-06,1.78417e-05,5.08596e-05,5.16925e-05,-4.25497e-07,1.2668e-05
259,-6.17174e-06,1.71502e-05,4.78423e-05,4.85111e-05,-5.69096e-08,1.51313e-05
260,-1.43279e-05,1.72078e-05,4.20245e-05,4.84557e-05,-4.41666e-07,1.53806e-05
261,-2.98821e-05,1.66314e-05,3.66799e-05,4.97889e-05,-1.65977e-06,1.30445e-05
262,-3.87695e-05,1.61076e-05,3.3102e-05,5.19896e-05,-2.0239e-06,1.07619e-05
263,-2.27531e-05,1.91412e-05,3.6442e-05,5.33736e-05,4.18158e-07,1.23475e-05
264,2.36355e-06,2.39092e-05,4.32823e-05,5.1647e-05,4.00835e-06,1.63423e-05
265,1.31865e-05,2.42613e-05,4.45114e-05,4.69513e-05,2.9749e-06,1.92167e-05
266,1.57651e-05,2.08533e-05,4.27825e-05,4.32992e-05,-3.28038e-06,2.05208e-05
267,1.625e-05,1.97195e-05,4.21138e-05,4.29234e-05,-1.01713e-05,1.99042e-05
268,1.35522e-05,2.43295e-05,4.06838e-05,4.48411e-05,-1.39294e-05,1.76852e-05
269,7.77438e-06,2.97913e-05,3.86628e-05,4.88295e-05,-1.38577e-05,1.4663e-05
270,-5.264e-07,2.73788e-05,3.71212e-05,5.23445e-05,-1.25208e-05,1.1258e-05
271,-2.59021e-06,1.81017e-05,3.82092e-05,5.28467e-05,-1.21395e-05,8.64026e-06
272,6.50912e-06,1.06538e-05,4.14916e-05,5.10423e-05,-1.34056e-05,6.23178e-06
273,1.66096e-05,1.09612e-05,4.26856e-05,5.03095e-05,-1.54895e-05,2.25748e-06
274,1.79965e-05,1.82383e-05,3.94584e-05,5.28159e-05,-1.75831e-05,-3.11553e-06
275,7.67075e-06,2.54174e-05,3.30708e-05,5.75988e-05,-1.83358e-05,-7.66733e-06
276,-1.06454e-05,2.51199e-05,2.79338e-05,6.13776e-05,-1.71505e-05,-8.9734e-06
277,-2.29146e-05,1.91059e-05,2.81581e-05,6.11952e-05,-1.65913e-05,-5.87804e-06
278,-1.99786e-05,1.51416e-05,3.30427e-05,5.78034e-05,-1.86005e-05,1.32679e-07
279,-1.02283e-05,1.58196e-05,3.67425e-05,5.52478e-05,-1.92771e-05,5.77039e-06
280,-6.04701e-06,1.87526e-05,3.5138e-05,5.70788e-05,-1.4139e-05,8.40001e-06
281,-1.01343e-05,2.10259e-05,2.9259e-05,6.18158e-05,-6.6855e-06,8.0411e-06
282,-2.05133e-05,2.06274e-05,2.27145e-05,6.52045e-05,-3.60294e-06,7.35548e-06
283,-2.84614e-05,1.87982e-05,2.02597e-05,6.46583e-05,-6.48442e-06,7.59205e-06
284,-2.44789e-05,1.66771e-05,2.3672e-05,6.13305e-05,-1.14994e-05,6.71068e-06
285,-1.57456e-05,1.19097e-05,2.75403e-05,5.83092e-05,-1.45281e-05,4.66584e-06
286,-1.34211e-05,6.9916e-06,2.76945e-05,5.66976e-05,-1.62781e-05,5.58488e-06
287,-1.66504e-05,6.97043e-06,2.61223e-05,5.62876e-05,-1.89165e-05,9.81487e-06
288,-2.56607e-05,6.99358e-06,2.3782e-05,5.67961e-05,-2.0746e-05,1.17619e-05
289,-3.40001e-05,2.62022e-06,2.37889e-05,5.57681e-05,-2.01712e-05,9.29902e-06
290,-2.61204e-05,-1.84848e-07,3.21097e-05,5.28677e-05,-1.64474e-05,6.76195e-06
291,-1.05609e-05,2.01571e-06,4.37913e-05,5.1071e-05,-9.22445e-06,7.23565e-06
292,-2.63159e-06,4.72025e-06,4.79956e-05,5.23733e-05,-2.43493e-06,9.17988e-06
293,3.43185e-06,4.50802e-06,4.52245e-05,5.66579e-05,4.21691e-07,1.03166e-05
294,1.01198e-05,5.54905e-06,4.06905e-05,6.06485e-05,1.98194e-06,1.0923e-05
295,1.29606e-05,9.70478e-06,3.78084e-05,6.11392e-05,5.4153e-06,1.33348e-05
296,7.41118e-06,1.29445e-05,3.709e-05,5.88178e-05,7.5637e-06,1.7354e-05
297,-7.35427e-06,1.27608e-05,3.58797e-05,5.62823e-05,6.0669e-06,2.05245e-05
298,-1.81963e-05,9.89264e-06,3.6604e-05,5.52646e-05,6.53816e-06,2.29678e-05
299,-1.59146e-05,7.01118e-06,4.10284e-05,5.53676e-05,1.08022e-05,2.60452e-05
300,-9.71358e-06,4.65774e-06,4.53923e-05,5.38563e-05,1.37497e-05,2.96496e-05
301,-1.05701e-05,3.17571e-06,4.74124e-05,5.0805e-05,1.29882e-05,3.21259e-05
302,-2.01508e-05,3.53945e-06,4.71773e-05,4.92119e-05,1.01739e-05,3.05519e-05
303,-3.21685e-05,4.85296e-06,4.55067e-05,5.04559e-05,7.40849e-06,2.49498e-05
304,-3.43487e-05,5.69701e-06,4.53249e-05,5.21404e-05,6.25869e-06,2.02104e-05
305,-2.23305e-05,5.87244e-06,4.82868e-05,5.0872e-05,7.19953e-06,1.97821e-05
306,-7.98479e-06,6.60774e-06,5.14929e-05,4.64476e-05,9.44355e-06,2.13678e-05
307,-3.29829e-06,9.90036e-06,5.19832e-05,4.14369e-05,1.15402e-05,2.16512e-05
308,-8.58845e-06,1.52771e-05,4.9509e-05,3.96682e-05,1.15289e-05,2.0784e-05
309,-1.92207e-05,1.79651e-05,4.50228e-05,4.18631e-05,1.02552e-05,2.05744e-05
310,-2.52334e-05,1.59965e-05,4.14037e-05,4.47303e-05,1.05288e-05,2.15754e-05
311,-1.76179e-05,1.39474e-05,4.22426e-05,4.5157e-05,1.12094e-05,2.25149e-05
312,-3.08348e-06,1.50022e-05,4.48272e-05,4.26559e-05,9.07733e-06,2.25267e-05
313,4.87733e-06,1.70343e-05,4.3852e-05,3.97868e-05,4.98145e-06,2.1669e-05
314,3.51615e-06,1.5037e-05,3.99945e-05,3.96071e-05,1.19803e-06,2.03455e-05
315,-5.36107e-06,6.7008e-06,3.63921e-05,4.13787e-05,-4.2343e-06,1.8699e-05
316,-1.36793e-05,-3.20293e-06,3.66994e-05,4.13239e-05,-1.27565e-05,1.64929e-05
317,-6.74452e-06,-6.81586e-06,4.17592e-05,3.78729e-05,-2.03201e-05,1.4814e-05
318,6.17368e-06,-2.99372e-06,4.34346e-05,3.33877e-05,-2.21843e-05,1.58707e-05
319,8.71056e-06,2.87563e-06,3.95618e-05,3.09893e-05,-1.86396e-05,1.78456e-05
320,4.77629e-06,7.45508e-06,3.83275e-05,3.17994e-05,-1.50322e-05,1.70644e-05
321,4.02025e-07,1.33414e-05,3.97268e-05,3.44907e-05,-1.16873e-05,1.49731e-05
322,-1.23643e-06,2.55019e-05,4.03414e-05,3.81837e-05,-7.83729e-06,1.3058e-05
323,-4.30794e-06,3.76492e-05,3.75708e-05,4.21172e-05,-5.99524e-06,1.02661e-05
324,-1.18805e-05,4.09535e-05,2.94617e-05,4.53947e-05,-5.69825e-06,7.78741e-06
325,-1.30749e-05,3.89218e-05,2.41904e-05,4.75993e-05,-5.71476e-06,8.45574e-06
326,-2.13439e-06,3.79422e-05,2.79368e-05,4.83023e-05,-6.79485e-06,1.23789e-05
327,1.10449e-05,4.08198e-05,3.37616e-05,4.79505e-05,-9.74252e-06,1.56683e-05
328,1.75449e-05,4.53771e-05,3.41702e-05,4.64931e-05,-1.32054e-05,1.50937e-05
329,1.58136e-05,4.61478e-05,2.92043e-05,4.42458e-05,-1.64285e-05,1.20112e-05
330,7.56476e-06,3.95625e-05,2.27929e-05,4.3496e-05,-1.99542e-05,8.54661e-06
331,2.58507e-06,2.81125e-05,2.0912e-05,4.41694e-05,-2.45406e-05,6.08016e-06
332,8.61788e-06,1.75812e-05,2.61711e-05,4.24245e-05,-2.77227e-05,6.51263e-06
333,1.64723e-05,1.06014e-05,3.38789e-05,3.70679e-05,-2.53915e-05,1.00222e-05
334,1.39901e-05,7.32847e-06,3.78836e-05,3.1987e-05,-1.91862e-05,1.34984e-05
335,1.99163e-06,6.23091e-06,3.67575e-05,3.1899e-05,-1.5527e-05,1.33656e-05
336,-1.40527e-05,2.42437e-06,3.2364e-05,3.72106e-05,-1.78656e-05,1.05619e-05
337,-2.49347e-05,-6.3267e-06,2.95937e-05,4.49288e-05,-2.45284e-05,8.53363e-06
338,-2.11188e-05,-1.53041e-05,3.32504e-05,5.12076e-05,-3.11894e-05,8.71318e-06
339,-1.00169e-05,-1.87849e-05,3.95968e-05,5.3536e-05,-3.44425e-05,1.02526e-05
340,-6.52016e-06,-1.42732e-05,4.14969e-05,5.26442e-05,-3.58172e-05,1.12909e-05
341,-1.19703e-05,-4.90437e-06,3.80894e-05,5.20691e-05,-3.75531e-05,1.04276e-05
342,-2.20927e-05,7.81156e-07,3.51233e-05,5.41618e-05,-3.75303e-05,8.55204e-06
343,-2.73702e-05,5.43116e-07,3.74972e-05,5.73535e-05,-3.35081e-05,7.5544e-06
344,-1.45331e-05,2.2189e-06,4.17941e-05,5.92171e-05,-2.88662e-05,7.8379e-06
345,4.84082e-06,9.1895e-06,4.21586e-05,5.72761e-05,-2.96635e-05,9.67483e-06
346,1.23021e-05,1.93597e-05,4.12401e-05,5.16042e-05,-3.21715e-05,1.25869e-05
347,1.27254e-05,3.0255e-05,4.26833e-05,4.63202e-05,-2.86185e-05,1.41686e-05
348,1.34086e-05,3.96099e-05,4.28429e-05,4.46918e-05,-2.32857e-05,1.324e-05
349,1.37859e-05,4.90196e-05,4.00593e-05,4.69051e-05,-2.27304e-05,1.14604e-05
350,6.53191e-06,5.70339e-05,3.54896e-05,5.04445e-05,-2.50071e-05,1.00857e-05
351,-1.05374e-05,5.70233e-05,3.11382e-05,5.2373e-05,-2.50053e-05,7.79707e-06
352,-2.08366e-05,4.98723e-05,3.1754e-05,5.22818e-05,-2.108e-05,5.45104e-06
353,-1.35201e-05,4.24175e-05,3.63428e-05,5.03983e-05,-1.65961e-05,6.75835e-06
354,1.41179e-06,3.81078e-05,3.83859e-05,4.65886e-05,-1.35281e-05,1.0132e-05
355,1.14947e-05,3.60045e-05,3.62295e-05,4.30854e-05,-1.19832e-05,1.08155e-05
356,1.17399e-05,3.28806e-05,3.32407e-05,4.29518e-05,-1.31952e-05,9.17331e-06
357,4.19008e-06,2.54595e-05,3.31184e-05,4.61455e-05,-1.56107e-05,8.28101e-06
358,-2.01029e-07,1.58497e-05,3.69402e-05,4.95897e-05,-1.56845e-05,9.41867e-06
359,6.94977e-06,1.07805e-05,4.09749e-05,4.99283e-05,-1.339e-05,1.15096e-05
360,1.89012e-05,1.10234e-05,4.07202e-05,4.71384e-05,-1.24009e-05,1.16183e-05
361,2.3623e-05,1.23157e-05,3.60412e-05,4.51951e-05,-1.47052e-05,8.50321e-06
362,1.67751e-05,1.18553e-05,2.92277e-05,4.80761e-05,-1.84162e-05,5.31584e-06
363,1.53547e-06,8.13376e-06,2.25613e-05,5.44958e-05,-2.0567e-05,4.45147e-06
364,-8.72543e-06,2.50047e-06,1.9818e-05,5.84458e-05,-2.20035e-05,5.0042e-06
365,-1.50436e-06,-1.75687e-06,2.19489e-05,5.67075e-05,-2.45088e-05,6.24775e-06
366,1.34017e-05,-4.25654e-06,2.39056e-05,5.25696e-05,-2.51536e-05,7.20825e-06
367,1.7123e-05,-3.78695e-06,2.22951e-05,5.03985e-05,-2.30528e-05,7.27109e-06
368,6.30646e-06,-2.21899e-06,1.90381e-05,4.96051e-05,-2.18182e-05,7.42838e-06
369,-1.11583e-05,-7.30743e-06,1.58706e-05,5.02055e-05,-2.17015e-05,6.45073e-06
370,-2.15941e-05,-2.03425e-05,1.5407e-05,5.37824e-05,-2.00281e-05,3.91379e-06
371,-1.39996e-05,-3.25572e-05,2.18538e-05,5.57943e-05,-1.38302e-05,2.83026e-06
372,-2.19516e-06,-3.71027e-05,2.95493e-05,5.20589e-05,-5.56325e-06,3.02322e-06
373,-3.60545e-06,-3.83306e-05,3.07147e-05,4.63849e-05,-1.68205e-06,1.36516e-06
374,-1.02252e-05,-4.34172e-05,2.82631e-05,4.54096e-05,-4.13621e-06,-1.61051e-06
375,-1.42453e-05,-4.85256e-05,2.70777e-05,4.99355e-05,-8.55193e-06,-1.38536e-06
376,-1.65767e-05,-4.70536e-05,2.90072e-05,5.57527e-05,-7.4084e-06,1.51409e-06
377,-1.88382e-05,-4.21205e-05,3.14322e-05,6.03424e-05,-1.44416e-06,2.18283e-06
378,-2.27102e-05,-3.97221e-05,3.10133e-05,6.34613e-05,2.06196e-06,5.77925e-07
379,-2.18667e-05,-3.93902e-05,3.08588e-05,6.46941e-05,1.39046e-07,-7.96595e-07
380,-1.24678e-05,-3.49551e-05,3.35408e-05,6.38544e-05,-2.26783e-06,-1.40241e-06
381,-1.64024e-06,-2.17208e-05,3.56863e-05,6.24693e-05,-2.23838e-06,-2.89974e-07
382,4.10868e-06,-1.45609e-06,3.47312e-05,6.14722e-05,-3.62489e-06,3.17043e-06
383,1.9024e-06,1.87169e-05,3.22401e-05,5.97531e-05,-6.06663e-06,6.80708e-06
384,-7.58886e-06,3.17585e-05,3.1951e-05,5.63962e-05,-6.39429e-06,8.86751e-06
385,-1.28734e-05,3.72426e-05,3.61594e-05,5.31491e-05,-6.2201e-06,1.07346e-05
386,-4.21676e-06,4.03752e-05,4.31231e-05,5.2455e-05,-7.80179e-06,1.32252e-05
387,8.72976e-06,4.42437e-05,4.83938e-05,5.52802e-05,-9.66012e-06,1.43626e-05
388,1.14234e-05,4.9617e-05,4.89049e-05,5.97042e-05,-8.6893e-06,1.31558e-05
389,3.38852e-06,5.51922e-05,4.55194e-05,6.07865e-05,-4.83743e-06,1.13348e-05
390,-9.30151e-06,5.62062e-05,4.15481e-05,5.62688e-05,-2.3189e-06,1.10958e-05
391,-1.77018e-05,5.05662e-05,4.10475e-05,5.02013e-05,-2.48016e-06,1.24103e-05
392,-1.50776e-05,4.38869e-05,4.37991e-05,4.66962e-05,-4.06324e-06,1.37804e-05
393,-1.1155e-05,4.35153e-05,4.42196e-05,4.41251e-05,-6.83385e-06,1.49427e-05
394,-1.78689e-05,5.14282e-05,4.05907e-05,4.08797e-05,-9.76921e-06,1.71325e-05
395,-3.04545e-05,6.31096e-05,3.72739e-05,3.88408e-05,-1.16286e-05,1.97732e-05
396,-4.21258e-05,6.93124e-05,3.70481e-05,4.07766e-05,-1.24182e-05,1.86625e-05
397,-4.57176e-05,6.30402e-05,4.14824e-05,4.52265e-05,-1.2586e-05,1.45191e-05
398,-3.37824e-05,4.87569e-05,5.1e-05,4.62978e-05,-1.25786e-05,1.45291e-05
399,-2.12729e-05,3.61822e-05,5.62281e-05,4.37078e-05,-1.44622e-05,1.69123e-05
400,-2.05861e-05,2.81544e-05,5.17974e-05,4.16201e-05,-1.79233e-05,1.6989e-05
401,-2.15468e-05,2.27423e-05,4.68458e-05,4.04684e-05,-2.02058e-05,1.63926e-05
402,-2.02421e-05,1.99551e-05,4.38157e-05,3.84391e-05,-2.13125e-05,1.58558e-05
403,-2.00307e-05,2.09505e-05,3.92696e-05,3.64238e-05,-2.24925e-05,1.73367e-05
404,-2.55216e-05,2.34077e-05,3.49384e-05,3.59477e-05,-2.38443e-05,2.10668e-05
405,-3.74975e-05,2.32919e-05,3.2893e-05,3.60368e-05,-2.44298e-05,2.36552e-05
406,-4.32393e-05,2.24753e-05,3.48675e-05,3.71387e-05,-2.34534e-05,2.3239e-05
407,-3.34524e-05,2.56555e-05,4.136e-05,4.01568e-05,-2.02423e-05,2.10601e-05
408,-1.78686e-05,3.14944e-05,4.76842e-05,4.43908e-05,-1.69629e-05,1.97053e-05
409,-9.21247e-06,3.6595e-05,4.88364e-05,4.8223e-05,-1.67329e-05,1.93089e-05
410,-9.36116e-06,3.80378e-05,4.5922e-05,4.95633e-05,-1.83539e-05,1.80361e-05
411,-1.38818e-05,3.14434e-05,4.36719e-05,4.76067e-05,-1.92197e-05,1.5812e-05
412,-1.36194e-05,1.7699e-05,4.60164e-05,4.48644e-05,-1.93004e-05,1.4938e-05
413,-4.09212e-06,4.81814e-06,5.23485e-05,4.54469e-05,-1.89759e-05,1.71256e-05
414,5.97371e-06,-8.13825e-07,5.67718e-05,4.89768e-05,-1.77224e-05,2.02793e-05
415,7.00917e-06,1.60202e-06,5.48431e-05,5.04813e-05,-1.56232e-05,2.05922e-05
416,-4.98745e-07,6.98212e-06,4.93131e-05,4.86715e-05,-1.32393e-05,1.86499e-05
417,-1.26964e-05,7.67474e-06,4.43458e-05,4.95901e-05,-1.08082e-05,1.75464e-05
418,-2.23962e-05,3.6906e-06,4.25194e-05,5.56317e-05,-7.20944e-06,1.83593e-05
419,-2.16219e-05,2.55641e-06,4.52209e-05,5.8982e-05,-1.15482e-06,2.07825e-05
420,-1.43444e-05,7.55131e-06,4.96142e-05,5.49144e-05,5.66988e-06,2.27947e-05
421,-1.15171e-05,1.60644e-05,5.10889e-05,4.86955e-05,9.75875e-06,2.1518e-05
422,-1.54857e-05,2.30351e-05,4.7701e-05,4.55564e-05,1.04028e-05,1.75641e-05
423,-2.51985e-05,2.33275e-05,4.15392e-05,4.58777e-05,1.02605e-05,1.41097e-05
424,-3.26734e-05,1.89071e-05,3.69865e-05,4.74691e-05,1.2985e-05,1.29248e-05
425,-2.28368e-05,1.55603e-05,3.63284e-05,4.80374e-05,1.63545e-05,1.48642e-05
426,-4.78946e-06,1.27351e-05,3.59633e-05,4.68237e-05,1.42723e-05,1.8385e-05
427,3.84254e-06,8.71976e-06,3.36514e-05,4.65229e-05,6.60324e-06,2.26868e-05
428,7.41849e-06,5.05254e-06,3.23476e-05,4.87569e-05,-6.11812e-07,2.76648e-05
429,1.16215e-05,2.96226e-06,3.17054e-05,5.15077e-05,-3.1635e-06,2.7598e-05
430,1.25126e-05,3.85508e-06,3.17394e-05,5.22957e-05,-1.84752e-07,2.2452e-05
431,4.68221e-06,6.6311e-06,3.05907e-05,5.09458e-05,6.92921e-06,1.81122e-05
432,-1.01344e-05,6.17165e-06,2.66673e-05,5.16681e-05,1.32842e-05,1.61177e-05
433,-1.80674e-05,1.47485e-06,2.54e-05,5.47579e-05,1.72771e-05,1.6714e-05
434,-1.18911e-05,-3.28518e-06,2.93887e-05,5.62751e-05,2.01714e-05,1.85833e-05
435,-2.60286e-06,-4.96617e-06,3.40316e-05,5.57063e-05,2.09328e-05,1.94328e-05
436,2.05975e-07,-2.41714e-06,3.37419e-05,5.49251e-05,1.83714e-05,1.90983e-05
437,-4.10909e-06,1.12842e-06,2.8626e-05,5.57109e-05,1.45063e-05,1.83734e-05
438,-1.25282e-05,1.56834e-06,2.28705e-05,5.91108e-05,1.14904e-05,1.74779e-05
439,-1.55215e-05,8.45445e-07,2.20954e-05,6.30058e-05,8.02102e-06,1.6368e-05
440,-6.90727e-06,2.20224e-06,2.76e-05,6.32571e-05,4.12216e-06,1.53276e-05
441,4.95054e-06,4.00249e-06,3.37031e-05,5.89262e-05,2.89407e-06,1.45196e-05
442,8.74103e-06,5.35558e-06,3.56458e-05,5.239e-05,4.14179e-06,1.28773e-05
443,3.04194e-06,8.07964e-06,3.44897e-05,4.76272e-05,3.95798e-06,1.05437e-05
444,-7.84351e-06,1.0421e-05,3.31273e-05,4.67818e-05,1.24227e-06,9.15015e-06
445,-1.54378e-05,9.49166e-06,3.40547e-05,4.69405e-05,-1.73986e-06,9.12485e-06
446,-1.14673e-05,7.18985e-06,3.74455e-05,4.62786e-05,-2.13764e-06,1.01409e-05
447,-1.42473e-06,6.10675e-06,3.96972e-05,4.67045e-05,7.37171e-07,1.12792e-05
448,1.69399e-06,5.80378e-06,3.81254e-05,4.70082e-05,4.23991e-06,1.13692e-05
449,-2.4974e-06,7.5293e-06,3.40505e-05,4.58748e-05,4.97412e-06,9.5558e-06
450,-8.52595e-06,9.85985e-06,3.10192e-05,4.59155e-05,2.42723e-06,5.49442e-06
451,-1.17413e-05,7.6771e-06,3.18218e-05,4.79466e-05,-7.81118e-07,2.05657e-06
452,-4.45406e-06,7.1644e-07,3.59515e-05,4.8453e-05,-3.07595e-06,3.99839e-06
453,7.52153e-06,-7.30728e-06,3.88827e-05,4.46454e-05,-3.03217e-06,9.20465e-06
454,1.14352e-05,-1.33229e-05,3.85805e-05,4.00152e-05,-6.45489e-07,1.16616e-05
455,7.72808e-06,-1.76541e-05,3.83334e-05,4.00871e-05,1.02598e-07,1.12198e-05
456,1.19213e-06,-2.08008e-05,3.85252e-05,4.36013e-05,-2.38007e-06,1.05017e-05
457,-5.87688e-06,-2.07076e-05,3.61942e-05,4.52275e-05,-4.3281e-06,9.07038e-06
458,-1.45961e-05,-1.81619e-05,3.21935e-05,4.5024e-05,-3.10985e-06,5.40022e-06
459,-2.50708e-05,-1.81308e-05,2.91092e-05,4.65427e-05,-1.16866e-06,2.3081e-06
460,-2.76439e-05,-1.90124e-05,2.96631e-05,4.99992e-05,-8.52809e-07,2.93194e-06
461,-1.7164e-05,-1.53945e-05,3.41058e-05,5.33849e-05,-1.54603e-06,6.39702e-06
462,-5.91356e-06,-7.2321e-06,3.81242e-05,5.44434e-05,-9.30663e-07,1.04534e-05
463,-3.63138e-06,4.4996e-06,3.7884e-05,5.33441e-05,2.87864e-07,1.34017e-05
464,-9.42184e-06,1.73613e-05,3.43209e-05,5.35217e-05,-6.99782e-07,1.43089e-05
465,-1.95828e-05,2.63022e-05,3.29328e-05,5.55254e-05,-1.51148e-06,1.29055e-05
466,-2.44364e-05,2.90839e-05,3.81328e-05,5.66082e-05,7.64654e-07,1.06851e-05
467,-1.54041e-05,2.78631e-05,4.66738e-05,5.60493e-05,3.71988e-06,1.00141e-05
468,4.89272e-07,2.62713e-05,5.01872e-05,5.54989e-05,3.97228e-06,1.22134e-05
469,9.331e-06,2.74557e-05,4.67482e-05,5.43484e-05,1.41798e-06,1.55439e-05
470,6.52055e-06,3.04711e-05,4.08428e-05,5.11267e-05,-2.14926e-06,1.67732e-05
471,-5.60321e-06,3.03396e-05,3.50461e-05,4.86167e-05,-5.08328e-06,1.57868e-05
472,-1.71033e-05,2.58232e-05,3.28283e-05,4.8853e-05,-7.07582e-06,1.55356e-05
473,-1.55555e-05,2.16774e-05,3.66441e-05,4.86774e-05,-8.43446e-06,1.67862e-05
474,-4.66887e-06,2.03224e-05,4.00396e-05,4.72051e-05,-8.30202e-06,1.86362e-05
475,1.03644e-06,2.14157e-05,3.89819e-05,4.74111e-05,-5.75667e-06,2.05395e-05
476,-2.81683e-06,2.3512e-05,3.87378e-05,4.95331e-05,-3.125e-06,1.99279e-05
477,-1.40053e-05,2.26965e-05,4.07332e-05,5.20631e-05,-3.64979e-06,1.55939e-05
478,-2.32278e-05,1.90616e-05,4.32419e-05,5.38535e-05,-6.63602e-06,1.21164e-05
479,-1.61277e-05,1.78569e-05,4.80895e-05,5.46794e-05,-9.14923e-06,1.3213e-05
480,-1.3527e-06,1.96419e-05,5.23957e-05,5.41962e-05,-1.10278e-05,1.67997e-05
481,1.73067e-06,2.03563e-05,5.33411e-05,5.18719e-05,-1.4846e-05,1.93074e-05
482,-4.56401e-06,1.93349e-05,5.35068e-05,5.0541e-05,-2.01288e-05,1.79521e-05
483,-7.93083e-06,1.86711e-05,5.23065e-05,5.08298e-05,-2.44502e-05,1.31578e-05
484,-4.79113e-06,1.85314e-05,4.85467e-05,5.02464e-05,-2.55863e-05,8.86597e-06
485,-5.56309e-06,1.64791e-05,4.33374e-05,4.97166e-05,-2.5174e-05,6.79821e-06
486,-1.63861e-05,1.0905e-05,3.74651e-05,5.01521e-05,-2.6769e-05,4.79287e-06
487,-2.28543e-05,4.20981e-06,3.44926e-05,5.05899e-05,-2.78723e-05,2.74387e-06
488,-1.43515e-05,1.14561e-06,3.69169e-05,5.08888e-05,-2.63974e-05,2.65869e-06
489,-1.50532e-06,2.39831e-06,4.10144e-05,5.04884e-05,-2.48788e-05,4.66604e-06
490,3.68139e-06,5.71142e-06,4.2621e-05,4.855e-05,-2.43389e-05,8.86244e-06
491,-3.98877e-07,8.57028e-06,4.02687e-05,4.72643e-05,-2.42301e-05,1.44567e-05
492,-9.70594e-06,8.00347e-06,3.59223e-05,4.90705e-05,-2.4515e-05,1.75278e-05
493,-1.35064e-05,4.95393e-06,3.35949e-05,5.23004e-05,-2.38132e-05,1.59355e-05
494,-3.05549e-06,3.11137e-06,3.5084e-05,5.3892e-05,-2.14438e-05,1.30669e-05
495,1.52248e-05,4.64817e-06,3.77758e-05,5.34505e-05,-1.94434e-05,1.25714e-05
496,2.62789e-05,1.05202e-05,3.87194e-05,5.23226e-05,-1.92487e-05,1.34299e-05
497,2.34785e-05,1.85465e-05,3.71958e-05,5.21213e-05,-1.93211e-05,1.28906e-05
498,1.17679e-05,2.30399e-05,3.34768e-05,5.47811e-05,-1.89734e-05,1.15977e-05
499,5.36833e-06,2.13085e-05,3.02618e-05,5.8575e-05,-1.8846e-05,1.23661e-05
500,1.25602e-05,1.67864e-05,3.062e-05,5.91306e-05,-1.88449e-05,1.59388e-05
501,2.08391e-05,1.2341e-05,3.26351e-05,5.73813e-05,-2.12009e-05,1.97683e-05
502,1.72598e-05,8.47571e-06,3.31516e-05,5.48655e-05,-2.71006e-05,1.97806e-05
503,7.67699e-06,5.83516e-06,3.2415e-05,5.05213e-05,-3.37172e-05,1.66345e-05
504,-1.51984e-07,3.36605e-06,3.08793e-05,4.7092e-05,-3.70128e-05,1.39015e-05
505,-1.7519e-06,1.68807e-06,3.18012e-05,4.52043e-05,-3.40683e-05,1.02026e-05
506,1.12642e-05,3.14372e-06,3.78945e-05,4.29536e-05,-2.86471e-05,6.19289e-06
507,2.60934e-05,5.58737e-06,4.35958e-05,4.26296e-05,-2.56346e-05,5.30838e-06
508,2.30705e-05,6.35559e-06,4.31728e-05,4.49947e-05,-2.47258e-05,5.4254e-06
509,1.16159e-05,5.71792e-06,3.89831e-05,4.58996e-05,-2.46604e-05,5.06271e-06
510,4.02942e-06,3.94064e-06,3.56019e-05,4.35866e-05,-2.41821e-05,5.2876e-06
511,-6.35348e-07,2.66742e-06,3.47394e-05,4.04705e-05,-2.30825e-05,6.96765e-06
512,-9.82222e-06,9.28702e-07,3.39942e-05,3.80453e-05,-2.24342e-05,1.02588e-05
513,-2.61102e-05,-3.43871e-06,3.22215e-05,3.65663e-05,-2.13386e-05,1.20769e-05
514,-3.63483e-05,-5.89362e-06,3.32522e-05,3.6969e-05,-1.89298e-05,1.09432e-05
515,-3.10529e-05,-2.87356e-06,3.63127e-05,3.86071e-05,-1.56919e-05,9.26264e-06
516,-2.02931e-05,3.47405e-06,3.5702e-05,4.04289e-05,-1.13351e-05,8.33631e-06
517,-1.58298e-05,1.19201e-05,3.06317e-05,4.25936e-05,-7.06589e-06,7.68707e-06
518,-1.89334e-05,2.25466e-05,2.60782e-05,4.41775e-05,-5.48038e-06,7.04292e-06
519,-2.34598e-05,3.17312e-05,2.61237e-05,4.5033e-05,-6.45009e-06,6.54722e-06
520,-1.62826e-05,3.4069e-05,3.22153e-05,4.59351e-05,-6.65231e-06,6.87574e-06
521,4.86088e-06,2.91074e-05,4.26622e-05,4.50585e-05,-4.46946e-06,8.55961e-06
522,2.31307e-05,2.25575e-05,5.14762e-05,3.97505e-05,-1.00472e-06,1.11674e-05
523,2.4673e-05,2.1342e-05,5.31845e-05,3.23817e-05,1.89169e-06,1.34786e-05
524,1.33672e-05,2.62453e-05,4.77722e-05,2.84584e-05,2.72375e-06,1.33817e-05
525,-1.72156e-06,3.04734e-05,4.05341e-05,3.06213e-05,1.68129e-06,1.04552e-05
526,-1.14448e-05,3.04957e-05,3.89638e-05,3.64146e-05,1.10103e-06,7.62107e-06
527,-8.91583e-06,3.20075e-05,4.43874e-05,4.0819e-05,3.36929e-06,5.32669e-06
528,-1.96781e-06,3.88588e-05,4.78415e-05,4.10665e-05,7.89388e-06,1.99258e-06
529,-2.47786e-06,4.71871e-05,4.49884e-05,3.98176e-05,1.2362e-05,7.06456e-07
530,-9.75946e-06,5.21305e-05,4.14589e-05,4.13753e-05,1.50997e-05,3.53777e-06
531,-2.04345e-05,5.08004e-05,3.94123e-05,4.65385e-05,1.562e-05,6.58387e-06
532,-2.73178e-05,4.48243e-05,3.9878e-05,5.32053e-05,1.54345e-05,5.94712e-06
533,-1.72184e-05,3.98226e-05,4.45778e-05,5.7017e-05,1.70702e-05,3.61231e-06
534,-2.37174e-07,3.83802e-05,4.71421e-05,5.62745e-05,1.99515e-05,4.42377e-06
535,2.81813e-06,3.82113e-05,4.46934e-05,5.42432e-05,1.89417e-05,8.89208e-06
536,-3.08811e-06,3.38319e-05,4.19878e-05,5.51317e-05,1.23542e-05,1.25852e-05
537,-6.37517e-06,2.59052e-05,4.02579e-05,5.93247e-05,4.75161e-06,1.17195e-05
538,-6.83725e-06,2.23506e-05,3.87846e-05,6.21055e-05,-4.79204e-07,8.86286e-06
539,-1.13609e-05,2.41329e-05,3.70999e-05,6.24122e-05,-3.29109e-06,7.42981e-06
540,-2.17523e-05,2.45271e-05,3.49626e-05,6.39902e-05,-3.48728e-06,8.74402e-06
541,-2.67581e-05,2.20437e-05,3.3618e-05,6.70339e-05,-2.87463e-06,1.25575e-05
542,-2.00906e-05,1.97035e-05,3.46055e-05,6.82478e-05,-3.80133e-06,1.64283e-05
543,-1.14078e-05,1.81769e-05,3.59882e-05,6.55603e-05,-4.77907e-06,1.84458e-05
544,-1.02976e-05,1.67176e-05,3.47297e-05,6.15992e-05,-5.0364e-06,1.89502e-05
545,-1.639e-05,1.36021e-05,2.97845e-05,6.11353e-05,-4.87149e-06,1.92507e-05
546,-2.54998e-05,7.44446e-06,2.23988e-05,6.42785e-05,-5.29795e-06,1.76025e-05
547,-2.90538e-05,4.30156e-07,1.81416e-05,6.68724e-05,-8.07753e-06,1.40276e-05
548,-2.05415e-05,-4.0993e-06,2.07361e-05,6.63735e-05,-1.24403e-05,1.27989e-05
549,-6.12865e-06,-5.54213e-06,2.67574e-05,6.38004e-05,-1.47108e-05,1.47971e-05
550,2.11183e-06,-4.04643e-06,3.03823e-05,6.07285e-05,-1.25685e-05,1.57876e-05
551,-9.29761e-07,-1.55263e-06,2.87192e-05,5.79519e-05,-7.81171e-06,1.3505e-05
552,-1.36072e-05,-2.50469e-06,2.40377e-05,5.59301e-05,-5.15692e-06,9.66313e-06
553,-2.47059e-05,-7.20768e-06,2.39975e-05,5.43099e-05,-7.57805e-06,7.55446e-06
554,-2.11685e-05,-9.9843e-06,3.26585e-05,5.37109e-05,-1.21402e-05,8.02009e-06
555,-7.65183e-06,-7.00045e-06,4.10891e-05,5.51726e-05,-1.33635e-05,7.60275e-06
556,1.33416e-06,2.16326e-06,4.02865e-05,5.57655e-05,-1.1913e-05,4.64139e-06
557,-1.98778e-06,1.38736e-05,3.41423e-05,5.22543e-05,-1.13503e-05,1.04211e-06
558,-1.56921e-05,2.03298e-05,2.80862e-05,4.77685e-05,-9.35111e-06,-1.15606e-06
559,-2.48038e-05,1.93968e-05,2.53416e-05,4.71162e-05,-6.26733e-06,5.5804e-07
560,-1.6322e-05,1.71687e-05,2.87676e-05,5.00911e-05,-7.27288e-06,8.03125e-06
561,-3.26045e-06,1.63598e-05,3.3663e-05,5.31997e-05,-1.15501e-05,1.65915e-05
562,-1.64662e-06,1.28133e-05,3.42491e-05,5.4887e-05,-1.3998e-05,1.98851e-05
563,-4.96458e-06,5.09066e-06,3.02615e-05,5.605e-05,-1.41079e-05,1.92937e-05
564,-5.72283e-06,-2.64661e-06,2.45806e-05,5.51711e-05,-1.57184e-05,1.94369e-05
565,-5.18167e-06,-5.44368e-06,2.22564e-05,5.1388e-05,-2.0113e-05,2.10692e-05
566,-8.09071e-06,-2.3221e-06,2.3405e-05,4.80502e-05,-2.56113e-05,2.11157e-05
567,-1.71823e-05,1.62214e-07,2.47677e-05,4.7595e-05,-2.88878e-05,1.8829e-05
568,-2.3562e-05,-2.38676e-06,2.66817e-05,4.90681e-05,-2.64246e-05,1.75302e-05
569,-1.90585e-05,-7.67482e-06,2.84339e-05,5.00345e-05,-2.21253e-05,1.8496e-05
570,-9.71939e-06,-1.34551e-05,2.77461e-05,4.91543e-05,-2.25653e-05,1.98415e-05
571,-5.19121e-06,-1.55518e-05,2.54504e-05,4.73818e-05,-2.6184e-05,2.06735e-05
572,-1.05765e-05,-1.20407e-05,2.33215e-05,4.76323e-05,-2.67577e-05,2.01035e-05
573,-2.47458e-05,-6.34692e-06,2.15918e-05,4.98262e-05,-2.3035e-05,1.66119e-05
574,-3.59647e-05,-1.23642e-06,2.15118e-05,5.07476e-05,-1.99646e-05,1.16232e-05
575,-3.357e-05,4.82268e-06,2.39677e-05,5.04048e-05,-2.16918e-05,8.33785e-06
576,-2.23071e-05,1.4397e-05,2.62014e-05,5.0772e-05,-2.69165e-05,7.14256e-06
577,-1.46339e-05,2.62991e-05,2.48186e-05,5.04858e-05,-3.11997e-05,5.0093e-06
578,-1.49608e-05,3.66375e-05,2.07376e-05,4.84364e-05,-3.24155e-05,1.22926e-06
579,-2.09337e-05,4.11462e-05,1.77001e-05,4.70956e-05,-3.24151e-05,-8.57681e-07
580,-2.55485e-05,3.77908e-05,1.98823e-05,4.77332e-05,-3.40085e-05,4.91014e-07
581,-2.11277e-05,3.13777e-05,2.90896e-05,4.97604e-05,-3.63386e-05,2.71149e-06
582,-1.09424e-05,3.00883e-05,3.81038e-05,5.27959e-05,-3.70551e-05,5.09975e-06
583,-5.28714e-06,3.55859e-05,3.7704e-05,5.5858e-05,-3.7742e-05,9.60931e-06
584,-7.33594e-06,4.18977e-05,3.13305e-05,5.8476e-05,-3.89242e-05,1.32614e-05
585,-1.60514e-05,4.29237e-05,2.85838e-05,5.99191e-05,-3.74416e-05,1.07573e-05
586,-2.2937e-05,3.86039e-05,3.19039e-05,5.78592e-05,-3.31986e-05,4.84754e-06
587,-1.34734e-05,3.26244e-05,3.77152e-05,5.52599e-05,-2.71863e-05,1.87564e-06
588,2.74659e-06,2.86734e-05,4.16411e-05,5.49007e-05,-2.1324e-05,1.67315e-06
589,8.84583e-06,2.7056e-05,4.08386e-05,5.36533e-05,-1.86505e-05,1.9555e-06
590,9.31499e-06,2.30977e-05,3.6001e-05,4.95444e-05,-1.65716e-05,2.8332e-06
591,1.14478e-05,1.63248e-05,3.29392e-05,4.42833e-05,-1.20206e-05,4.73305e-06
592,1.51996e-05,9.76414e-06,3.51945e-05,4.04254e-05,-4.55888e-06,7.03744e-06
593,1.3343e-05,2.98271e-06,3.73862e-05,3.8545e-05,2.56391e-06,7.7669e-06
594,1.63289e-06,-5.44849e-06,3.53362e-05,4.04477e-05,4.8063e-06,7.2183e-06
595,-5.93208e-06,-1.40116e-05,3.34222e-05,4.51997e-05,3.02322e-06,8.08371e-06
596,2.1134e-06,-1.83884e-05,3.52791e-05,4.79476e-05,1.0981e-06,1.09989e-05
597,1.30621e-05,-1.76168e-05,3.95041e-05,4.57062e-05,1.70979e-06,1.35757e-05
598,1.32026e-05,-1.19887e-05,4.43952e-05,4.16823e-05,4.3396e-06,1.39095e-05
599,2.50773e-06,-3.68673e-06,4.69318e-05,4.16876e-05,6.69671e-06,1.31653e-05
600,-1.30771e-05,-3.37793e-08,4.51783e-05,4.4598e-05,5.54924e-06,1.25149e-05
601,-2.03716e-05,-3.51911e-06,4.29392e-05,4.56826e-05,5.66631e-07,1.18249e-05
602,-1.0996e-05,-9.36559e-06,4.45279e-05,4.39698e-05,-3.20208e-06,1.11641e-05
603,4.62073e-06,-1.29095e-05,4.83299e-05,4.29389e-05,-1.00106e-06,1.18032e-05
604,1.07689e-05,-1.21711e-05,5.09466e-05,4.49524e-05,5.41945e-06,1.30386e-05
605,3.26468e-06,-8.66582e-06,5.19528e-05,4.7611e-05,1.01897e-05,1.18074e-05
606,-1.15014e-05,-6.12908e-06,5.07759e-05,4.83463e-05,9.25841e-06,8.50175e-06
607,-1.85945e-05,-4.50873e-06,4.96479e-05,4.84855e-05,4.54714e-06,7.32655e-06
608,-9.01921e-06,-2.5658e-07,5.22994e-05,4.92913e-05,1.41599e-06,1.03823e-05
609,5.58815e-06,6.69093e-06,5.52154e-05,5.07718e-05,1.81571e-06,1.52624e-05
610,1.06755e-05,1.46301e-05,5.42625e-05,5.23465e-05,3.95563e-06,1.75436e-05
611,4.3825e-06,2.25695e-05,5.16096e-05,5.25199e-05,6.31651e-06,1.57707e-05
612,-1.14355e-05,2.76335e-05,4.98368e-05,5.20811e-05,8.21585e-06,1.29206e-05
613,-2.46575e-05,2.83972e-05,4.90279e-05,5.26704e-05,8.8984e-06,1.1431e-05
614,-1.7072e-05,2.78623e-05,4.95598e-05,5.41036e-05,1.02249e-05,1.15204e-05
615,-2.83641e-06,2.77227e-05,5.1798e-05,5.37753e-05,1.34303e-05,1.24974e-05
616,-1.79468e-06,2.74005e-05,5.33183e-05,5.15871e-05,1.66224e-05,1.51083e-05
617,-8.26235e-07,2.70765e-05,5.33766e-05,5.255e-05,1.78991e-05,1.7876e-05
618,7.52736e-06,2.62545e-05,5.35005e-05,5.48304e-05,1.85634e-05,1.65407e-05
619,1.23517e-05,2.53284e-05,5.34428e-05,5.24029e-05,2.00996e-05,1.34105e-05
620,6.12937e-06,2.38021e-05,5.0952e-05,4.78268e-05,2.06703e-05,1.26634e-05
621,-7.22415e-06,1.86493e-05,4.60872e-05,4.69556e-05,1.90758e-05,1.4351e-05
622,-1.34786e-05,1.10964e-05,4.41778e-05,4.99776e-05,1.47449e-05,1.75052e-05
623,-5.04608e-06,5.50111e-06,4.55367e-05,5.26877e-05,8.66706e-06,2.21812e-05
624,6.38317e-06,4.14583e-06,4.53258e-05,5.37492e-05,3.62229e-06,2.73304e-05
625,7.9277e-06,7.32594e-06,4.35247e-05,5.47748e-05,2.82892e-07,3.00768e-05
626,-6.0245e-07,1.1033e-05,4.20361e-05,5.59149e-05,-1.23197e-06,2.8576e-05
627,-1.3217e-05,9.46963e-06,4.09043e-05,5.74695e-05,-1.00447e-06,2.25878e-05
628,-1.8269e-05,3.56173e-06,4.13257e-05,5.97946e-05,-1.66429e-06,1.46064e-05
629,-7.88885e-06,2.31532e-07,4.53988e-05,6.03849e-05,-4.49561e-06,8.44595e-06
630,7.4243e-06,2.12674e-06,5.03962e-05,5.7082e-05,-6.4877e-06,5.85976e-06
631,1.05387e-05,5.67421e-06,5.12173e-05,5.1307e-05,-4.6835e-06,6.51294e-06
632,-2.35973e-06,7.71008e-06,4.75462e-05,4.70652e-05,-1.86735e-06,1.01534e-05
633,-2.38921e-05,7.17312e-06,4.27044e-05,4.67879e-05,-2.77272e-06,1.51674e-05
634,-4.02379e-05,5.26954e-06,4.05641e-05,4.82211e-05,-6.24009e-06,1.89535e-05
635,-4.01247e-05,4.40184e-06,4.18288e-05,4.8298e-05,-9.42868e-06,2.11683e-05
636,-2.90925e-05,5.90874e-06,4.36002e-05,4.71489e-05,-1.20864e-05,2.28041e-05
637,-2.15827e-05,1.04738e-05,4.31605e-05,4.61152e-05,-1.34446e-05,2.28196e-05
638,-2.46493e-05,1.5604e-05,3.91815e-05,4.68131e-05,-1.36393e-05,2.13942e-05
639,-3.8036e-05,1.53889e-05,3.31101e-05,4.8879e-05,-1.40803e-05,2.15787e-05
640,-4.87332e-05,7.54173e-06,2.97326e-05,4.84222e-05,-1.42768e-05,2.39186e-05
641,-4.12295e-05,-1.84111e-06,3.46738e-05,4.53658e-05,-1.27832e-05,2.5944e-05
642,-2.48704e-05,-6.57432e-06,4.38445e-05,4.37886e-05,-8.00624e-06,2.53921e-05
643,-1.56098e-05,-8.32264e-06,4.70493e-05,4.55849e-05,-1.98949e-06,2.2832e-05
644,-1.22174e-05,-1.10312e-05,4.34856e-05,4.93717e-05,1.55535e-07,2.07412e-05
645,-7.47445e-06,-1.33231e-05,3.89948e-05,5.0275e-05,-2.91744e-06,1.84085e-05
646,-2.67992e-07,-1.20603e-05,3.8126e-05,4.55191e-05,-6.36218e-06,1.38709e-05
647,5.35562e-07,-1.02768e-05,3.60028e-05,3.92275e-05,-4.6152e-06,8.84808e-06
648,-9.12728e-06,-1.29491e-05,2.90199e-05,3.65055e-05,2.52346e-07,6.28363e-06
649,-1.50503e-05,-1.63887e-05,2.62912e-05,3.73589e-05,2.23585e-06,6.50784e-06
650,-6.64813e-06,-1.41427e-05,3.15493e-05,3.78018e-05,-2.03421e-06,7.13689e-06
651,6.2574e-06,-6.83806e-06,3.70651e-05,3.63291e-05,-1.03735e-05,6.91514e-06
652,1.01954e-05,3.6665e-06,3.88641e-05,3.47483e-05,-1.73619e-05,8.1787e-06
653,1.37972e-06,1.6735e-05,3.91329e-05,3.51277e-05,-2.06888e-05,1.20597e-05
654,-1.3456e-05,2.91788e-05,3.84088e-05,3.82077e-05,-2.16439e-05,1.46618e-05
655,-1.77448e-05,3.97723e-05,3.79207e-05,4.18878e-05,-2.12619e-05,1.31068e-05
656,-3.16652e-06,5.12498e-05,3.97728e-05,4.30239e-05,-1.9539e-05,9.30895e-06
657,1.56825e-05,6.37716e-05,4.21632e-05,4.19847e-05,-1.76462e-05,6.33079e-06
658,2.13095e-05,7.53579e-05,4.25842e-05,4.25468e-05,-1.635e-05,6.0228e-06
659,1.36172e-05,8.35704e-05,4.11107e-05,4.64431e-05,-1.49167e-05,8.24565e-06
660,2.61658e-06,8.33271e-05,3.71888e-05,5.17647e-05,-1.36563e-05,1.09851e-05
661,1.61149e-06,7.29733e-05,3.2602e-05,5.56439e-05,-1.43837e-05,1.28781e-05
662,1.82307e-05,5.82465e-05,3.16487e-05,5.56572e-05,-1.72255e-05,1.31762e-05
663,3.89469e-05,4.38842e-05,3.39256e-05,5.25935e-05,-2.03312e-05,1.17835e-05
664,4.44206e-05,3.25875e-05,3.62975e-05,4.94445e-05,-2.18112e-05,9.47198e-06
665,3.37414e-05,2.52666e-05,3.71381e-05,4.73688e-05,-2.18449e-05,5.74604e-06
666,1.38969e-05,1.58669e-05,3.75481e-05,4.86369e-05,-2.21421e-05,1.30102e-06
667,-3.98684e-06,5.21231e-08,3.9684e-05,5.29076e-05,-2.45588e-05,2.77955e-07
668,-4.50992e-06,-1.58868e-05,4.40897e-05,5.56666e-05,-2.8026e-05,4.28162e-06
669,5.92809e-06,-2.31146e-05,4.71604e-05,5.46642e-05,-2.89452e-05,8.67546e-06
670,1.10285e-05,-2.26676e-05,4.50099e-05,5.10381e-05,-2.74539e-05,8.94796e-06
671,1.04872e-05,-2.21054e-05,3.9069e-05,4.6724e-05,-2.39184e-05,6.34373e-06
672,7.74125e-06,-2.27222e-05,3.22295e-05,4.30889e-05,-1.85896e-05,4.69083e-06
673,3.83815e-06,-2.16521e-05,2.69426e-05,4.24398e-05,-1.36703e-05,5.61201e-06
674,-1.7981e-06,-1.89281e-05,2.36106e-05,4.56089e-05,-9.87991e-06,7.66266e-06
675,-9.18823e-06,-1.85353e-05,2.14124e-05,5.01278e-05,-7.11168e-06,8.84576e-06
676,-9.3243e-06,-1.88386e-05,1.9513e-05,5.29284e-05,-6.50831e-06,9.88907e-06
677,2.12363e-06,-1.44854e-05,1.88997e-05,5.34589e-05,-7.87088e-06,1.24476e-05
678,1.23716e-05,-7.78466e-06,2.10708e-05,5.21608e-05,-9.61975e-06,1.55576e-05
679,1.17678e-05,-8.0337e-07,2.38092e-05,4.92739e-05,-1.0989e-05,1.7186e-05
680,2.50193e-06,8.08769e-06,2.48677e-05,4.63714e-05,-1.14107e-05,1.72825e-05
681,-8.84936e-06,1.88851e-05,2.54265e-05,4.45151e-05,-1.23996e-05,1.63598e-05
682,-1.21602e-05,2.91651e-05,2.90484e-05,4.33018e-05,-1.57632e-05,1.45559e-05
683,-3.14693e-06,3.76382e-05,3.54522e-05,4.2622e-05,-2.04365e-05,1.34835e-05
684,8.67191e-06,4.49438e-05,3.84551e-05,4.26403e-05,-2.34733e-05,1.4317e-05
685,1.32052e-05,5.24916e-05,3.5032e-05,4.19287e-05,-2.30813e-05,1.6364e-05
686,1.03542e-05,6.01606e-05,3.03547e-05,4.09064e-05,-2.05875e-05,1.74638e-05
687,3.26489e-06,6.44099e-05,2.93605e-05,4.40753e-05,-1.97882e-05,1.50698e-05
688,-2.01751e-06,6.2913e-05,3.34489e-05,5.14008e-05,-2.27926e-05,1.09256e-05
689,1.35992e-06,5.77344e-05,4.07905e-05,5.48301e-05,-2.71984e-05,9.2286e-06
690,8.84664e-06,5.02968e-05,4.61987e-05,5.00906e-05,-2.7503e-05,1.12749e-05
691,9.839e-06,4.1759e-05,4.7544e-05,4.29366e-05,-2.12015e-05,1.59112e-05
692,1.76395e-06,3.43227e-05,4.50567e-05,4.13848e-05,-1.48405e-05,2.05272e-05
693,-1.42386e-05,2.61685e-05,3.78411e-05,4.63065e-05,-1.55054e-05,2.23648e-05
694,-2.92303e-05,1.53076e-05,3.02145e-05,5.06392e-05,-1.95407e-05,2.07422e-05
695,-2.98459e-05,5.40645e-06,2.8252e-05,5.07854e-05,-1.96895e-05,1.79461e-05
696,-2.40072e-05,1.32721e-06,3.03178e-05,4.97438e-05,-1.6138e-05,1.65015e-05
697,-2.47647e-05,2.70256e-06,3.34431e-05,5.05777e-05,-1.31789e-05,1.58659e-05
698,-2.53481e-05,3.48986e-06,3.57274e-05,5.46795e-05,-1.21652e-05,1.48201e-05
699,-2.16338e-05,-1.32241e-07,3.49454e-05,5.98075e-05,-1.18289e-05,1.33881e-05
700,-1.90324e-05,-4.1718e-06,3.29864e-05,6.08832e-05,-1.00565e-05,1.13426e-05
701,-2.29159e-05,-3.11168e-06,3.18165e-05,5.74307e-05,-7.59996e-06,7.62998e-06
702,-3.53317e-05,4.89964e-07,3.10847e-05,5.56807e-05,-7.43974e-06,3.41258e-06
703,-4.34362e-05,2.49597e-06,3.25031e-05,5.85356e-05,-8.83726e-06,2.36118e-06
704,-3.58463e-05,5.3177e-06,3.59216e-05,6.14611e-05,-1.01295e-05,5.15812e-06
705,-2.27549e-05,1.15775e-05,3.65049e-05,5.97755e-05,-1.05188e-05,7.5044e-06
706,-1.76349e-05,2.03273e-05,3.44029e-05,5.41613e-05,-8.98647e-06,6.88551e-06
707,-2.18821e-05,2.7069e-05,3.29991e-05,4.94928e-05,-5.19797e-06,5.75661e-06
708,-2.92509e-05,2.74011e-05,3.25291e-05,4.93193e-05,-9.83518e-07,5.70359e-06
709,-2.99556e-05,2.21109e-05,3.45535e-05,5.20149e-05,5.02184e-07,5.59431e-06
710,-2.04937e-05,1.67823e-05,3.94687e-05,5.45027e-05,-1.12596e-06,4.80115e-06
711,-9.96068e-06,1.48857e-05,4.23406e-05,5.59167e-05,-3.28185e-06,4.4925e-06
712,-6.4861e-06,1.62947e-05,3.94573e-05,5.57922e-05,-4.0795e-06,5.89756e-06
713,-8.10675e-06,1.97421e-05,3.38341e-05,5.52893e-05,-5.21602e-06,8.48276e-06
714,-1.12946e-05,2.11853e-05,3.0421e-05,5.73981e-05,-8.35154e-06,1.11569e-05
715,-1.07467e-05,1.66197e-05,3.25643e-05,6.14905e-05,-1.00242e-05,1.46609e-05
716,4.74565e-08,8.66129e-06,3.97487e-05,6.36337e-05,-8.56516e-06,2.01808e-05
717,1.37207e-05,3.24433e-06,4.54157e-05,6.28635e-05,-7.62492e-06,2.51348e-05
718,1.63054e-05,3.09013e-06,4.42278e-05,6.13396e-05,-8.08135e-06,2.39573e-05
719,6.4453e-06,5.1976e-06,3.87975e-05,6.16793e-05,-8.45375e-06,1.63257e-05
720,-9.06471e-06,4.20593e-06,3.37526e-05,6.46316e-05,-9.14774e-06,8.31912e-06
721,-1.80755e-05,-1.7138e-07,3.33061e-05,6.74249e-05,-1.09992e-05,5.35724e-06
722,-8.83742e-06,-2.42589e-06,3.84493e-05,6.74247e-05,-1.13919e-05,7.44569e-06
723,8.21114e-06,-3.02939e-07,4.04566e-05,6.60586e-05,-7.16197e-06,1.04047e-05
724,1.60539e-05,1.86938e-06,3.49882e-05,6.53474e-05,-7.805e-07,1.16608e-05
725,1.5363e-05,1.15896e-06,3.00341e-05,6.4109e-05,3.00276e-06,1.29434e-05
726,1.30863e-05,-1.44775e-06,2.87108e-05,6.02755e-05,1.92805e-06,1.55221e-05
727,1.37772e-05,6.98922e-08,2.86136e-05,5.45007e-05,-1.88921e-06,1.7721e-05
728,1.20864e-05,7.62672e-06,2.95427e-05,4.99975e-05,-3.84901e-06,1.78413e-05
729,7.82307e-07,1.20264e-05,2.9515e-05,4.94478e-05,-3.43184e-06,1.58106e-05
730,-1.07933e-05,8.36437e-06,2.90949e-05,5.28682e-05,-3.67731e-06,1.35628e-05
731,-1.17798e-05,2.22013e-06,3.23948e-05,5.65192e-05,-5.07869e-06,1.396e-05
732,-7.58693e-06,-3.07046e-07,3.74165e-05,5.4843e-05,-6.39061e-06,1.59216e-05
733,-5.42072e-06,1.63902e-06,3.81981e-05,4.72508e-05,-6.91293e-06,1.5141e-05
734,-6.38516e-06,4.35255e-06,3.3087e-05,4.11248e-05,-5.7272e-06,1.13811e-05
735,-8.7665e-06,4.36185e-06,2.62799e-05,4.12703e-05,-3.10773e-06,7.9279e-06
736,-6.02297e-06,3.38473e-06,2.57655e-05,4.32942e-05,-9.86957e-07,6.91849e-06
737,3.33562e-06,5.17183e-06,3.39075e-05,4.24605e-05,-1.4437e-08,8.13408e-06
738,1.03333e-05,9.57341e-06,4.27596e-05,3.95374e-05,1.34123e-06,1.05287e-05
739,6.79343e-06,1.51279e-05,4.41427e-05,3.76571e-05,3.33346e-06,1.21404e-05
740,-5.29788e-06,2.12083e-05,3.88694e-05,3.86266e-05,3.73128e-06,1.06228e-05
741,-1.94921e-05,2.41664e-05,3.25756e-05,4.13913e-05,1.23631e-06,6.41974e-06
742,-2.80978e-05,2.08055e-05,3.0231e-05,4.32797e-05,-1.5812e-06,3.58473e-06
743,-2.5762e-05,1.43047e-05,3.40943e-05,4.33306e-05,-5.44012e-07,4.73906e-06
744,-1.80958e-05,1.03041e-05,3.9231e-05,4.36566e-05,4.40153e-06,7.44005e-06
745,-1.3123e-05,1.13837e-05,3.95068e-05,4.58059e-05,8.2947e-06,8.14656e-06
746,-1.32269e-05,1.4269e-05,3.66387e-05,4.77679e-05,8.03271e-06,7.23442e-06
747,-2.1482e-05,1.35638e-05,3.28808e-05,4.89723e-05,5.29223e-06,5.42642e-06
748,-3.08772e-05,8.60262e-06,2.94504e-05,4.95236e-05,2.11637e-06,2.14065e-06
749,-2.58267e-05,3.89618e-06,3.15664e-05,4.80208e-05,-1.39258e-06,-1.14817e-06
750,-1.26587e-05,4.03214e-06,3.65089e-05,4.63824e-05,-5.4829e-06,-2.11317e-06
751,-7.35737e-06,7.59408e-06,3.6971e-05,4.62798e-05,-9.15711e-06,8.19761e-08
752,-7.26517e-06,8.18309e-06,3.50337e-05,4.67514e-05,-1.11958e-05,3.73083e-06
753,-6.55811e-06,3.57941e-06,3.2672e-05,4.63655e-05,-1.1711e-05,7.58028e-06
754,-5.84815e-06,-8.62181e-08,3.14834e-05,4.40495e-05,-1.06814e-05,1.1e-05
755,-9.29359e-06,1.69573e-06,3.45048e-05,4.18547e-05,-9.2992e-06,1.14414e-05
756,-1.82571e-05,5.51736e-06,3.76491e-05,4.42505e-05,-1.15465e-05,8.75137e-06
757,-2.11179e-05,7.1493e-06,3.76362e-05,5.1292e-05,-1.6198e-05,7.99151e-06
758,-1.02074e-05,5.21954e-06,3.54636e-05,5.61869e-05,-1.61602e-05,1.01008e-05
759,3.6746e-06,1.9572e-06,3.04407e-05,5.41625e-05,-1.10198e-05,1.07582e-05
760,7.31149e-06,2.51991e-06,2.46935e-05,4.90579e-05,-8.43049e-06,9.47458e-06
761,-8.71256e-07,8.26948e-06,2.2941e-05,4.70983e-05,-1.06206e-05,8.86787e-06
762,-1.42179e-05,1.29721e-05,2.54414e-05,4.98217e-05,-1.21637e-05,9.91971e-06
763,-2.11999e-05,1.18937e-05,2.99975e-05,5.45818e-05,-1.00952e-05,1.14976e-05
764,-1.54734e-05,6.91347e-06,3.4856e-05,5.71303e-05,-8.10967e-06,1.24513e-05
765,-4.89969e-06,1.508e-06,3.80805e-05,5.53508e-05,-1.04779e-05,1.29939e-05
766,-5.94835e-07,-1.42566e-06,3.79738e-05,5.13632e-05,-1.44522e-05,1.38574e-05
767,-6.25007e-06,-2.41153e-06,3.42103e-05,4.89592e-05,-1.50416e-05,1.52904e-05
768,-2.04697e-05,-4.82513e-06,2.94851e-05,5.04829e-05,-1.38782e-05,1.70251e-05
769,-3.24593e-05,-1.07875e-05,2.88623e-05,5.5127e-05,-1.51107e-05,1.85329e-05
770,-2.90097e-05,-1.66975e-05,3.22605e-05,5.73798e-05,-1.69844e-05,1.93868e-05
771,-1.66005e-05,-1.59891e-05,3.46136e-05,5.29594e-05,-1.6518e-05,1.9143e-05
772,-9.49533e-06,-8.31576e-06,3.60282e-05,4.68961e-05,-1.57593e-05,1.89214e-05
773,-7.21239e-06,8.39753e-07,3.83372e-05,4.74402e-05,-1.6546e-05,1.86239e-05
774,-5.89056e-06,7.60947e-06,3.8604e-05,5.35806e-05,-1.48346e-05,1.66763e-05
775,-1.60706e-06,1.18082e-05,3.7131e-05,5.67508e-05,-8.01889e-06,1.54302e-05
776,1.09876e-05,1.63474e-05,4.11048e-05,5.17453e-05,-1.322e-06,1.69248e-05
777,2.08646e-05,2.35303e-05,4.70025e-05,4.31388e-05,-1.12157e-07,1.74718e-05
778,1.90758e-05,3.29137e-05,4.40916e-05,3.92237e-05,-2.93204e-06,1.37885e-05
779,1.46966e-05,4.20639e-05,3.74718e-05,4.02906e-05,-6.17497e-06,8.41951e-06
780,9.85138e-06,4.73104e-05,3.55881e-05,4.23858e-05,-8.6459e-06,4.76548e-06
781,1.59938e-06,4.92765e-05,3.82797e-05,4.5507e-05,-9.39572e-06,4.08267e-06
782,-1.0683e-05,5.00037e-05,3.9799e-05,5.18452e-05,-9.80507e-06,5.75215e-06
783,-2.66726e-05,4.68675e-05,3.68323e-05,5.85932e-05,-1.13486e-05,7.89961e-06
784,-3.53577e-05,3.96868e-05,3.66328e-05,6.08847e-05,-1.24001e-05,9.86196e-06
785,-2.98924e-05,3.19021e-05,4.2131e-05,5.81433e-05,-1.21922e-05,1.201e-05
786,-2.22121e-05,2.51535e-05,4.76011e-05,5.18942e-05,-1.07894e-05,1.41026e-05
787,-2.26004e-05,2.1139e-05,4.99953e-05,4.67285e-05,-7.33309e-06,1.57545e-05
788,-3.03938e-05,1.96685e-05,4.97349e-05,4.68711e-05,-2.30594e-06,1.63238e-05
789,-4.08717e-05,1.70681e-05,4.73483e-05,4.95807e-05,1.16299e-06,1.435e-05
790,-4.37158e-05,1.29786e-05,4.71505e-05,4.94257e-05,1.58553e-06,1.07152e-05
791,-3.25164e-05,1.12302e-05,5.27795e-05,4.60825e-05,9.97669e-07,9.68135e-06
792,-1.53293e-05,1.28147e-05,5.93279e-05,4.27498e-05,1.48259e-06,1.32737e-05
793,-4.775e-06,1.59464e-05,6.01039e-05,4.06443e-05,2.66891e-06,1.817e-05
794,-5.12783e-06,1.86737e-05,5.43948e-05,4.05369e-05,3.15814e-06,2.10363e-05
795,-1.33567e-05,1.82937e-05,4.70137e-05,4.42245e-05,2.10695e-06,2.12722e-05
796,-1.79845e-05,1.47005e-05,4.47306e-05,4.87312e-05,-4.40812e-07,1.97311e-05
797,-7.16219e-06,1.2593e-05,4.94366e-05,4.88047e-05,-4.02885e-06,1.77839e-05
798,1.26068e-05,1.42327e-05,5.41501e-05,4.60632e-05,-7.49705e-06,1.57974e-05
799,2.43296e-05,1.6567e-05,5.28942e-05,4.51583e-05,-8.48893e-06,1.36542e-05
800,2.24587e-05,1.76698e-05,4.68553e-05,4.66648e-05,-6.70705e-06,1.22783e-05
801,1.01366e-05,1.67999e-05,3.94319e-05,4.91675e-05,-5.4921e-06,1.2262e-05
802,7.48277e-07,1.31024e-05,3.60659e-05,5.09943e-05,-7.26922e-06,1.2744e-05
803,1.09092e-05,1.12836e-05,4.13685e-05,5.13679e-05,-8.18768e-06,1.35144e-05
804,2.67685e-05,1.40604e-05,4.86528e-05,5.08e-05,-5.96609e-06,1.34035e-05
805,2.95025e-05,1.56825e-05,4.95816e-05,5.11356e-05,-4.42058e-06,1.23397e-05
806,2.49173e-05,1.29421e-05,4.78571e-05,5.49893e-05,-6.29122e-06,1.27292e-05
807,1.99301e-05,9.83113e-06,4.75106e-05,5.93945e-05,-1.01409e-05,1.31613e-05
808,1.78818e-05,1.05233e-05,4.68048e-05,5.96288e-05,-1.35888e-05,1.25476e-05
809,1.51902e-05,1.24182e-05,4.42491e-05,5.7376e-05,-1.60884e-05,1.19615e-05
810,4.32363e-06,9.95828e-06,4.03136e-05,5.70771e-05,-1.76315e-05,1.01981e-05
811,-6.44123e-06,4.17664e-06,3.71173e-05,5.87486e-05,-1.9734e-05,7.51653e-06
812,-4.63568e-06,1.82022e-06,3.62117e-05,5.90842e-05,-2.13491e-05,6.45775e-06
813,5.52736e-06,4.7129e-06,3.68366e-05,5.61184e-05,-2.03425e-05,7.43322e-06
814,1.2714e-05,9.25161e-06,3.7375e-05,5.04293e-05,-1.68943e-05,8.43044e-06
815,1.03371e-05,1.26424e-05,3.62154e-05,4.50904e-05,-1.35125e-05,9.69599e-06
816,-1.3935e-06,1.26481e-05,3.30328e-05,4.2779e-05,-1.28883e-05,1.22348e-05
817,-1.23617e-05,8.74007e-06,3.09072e-05,4.30014e-05,-1.37864e-05,1.50771e-05
818,-1.33398e-05,3.71725e-06,3.25597e-05,4.30888e-05,-1.36356e-05,1.74119e-05
819,-8.17577e-06,1.22789e-06,3.48067e-05,4.16942e-05,-1.16855e-05,1.89838e-05
820,-5.4385e-06,2.51878e-06,3.28134e-05,3.97545e-05,-1.01398e-05,1.96941e-05
821,-6.77475e-06,6.15136e-06,2.76013e-05,3.84227e-05,-1.08924e-05,2.01883e-05
822,-1.12777e-05,9.36603e-06,2.41387e-05,3.85355e-05,-1.25173e-05,2.2063e-05
823,-1.46219e-05,1.09681e-05,2.63686e-05,4.12925e-05,-1.13354e-05,2.55046e-05
824,-9.55657e-06,1.39756e-05,3.3099e-05,4.56713e-05,-6.65409e-06,2.81466e-05
825,9.93131e-07,1.98585e-05,3.85317e-05,4.87234e-05,-2.70889e-06,2.76078e-05
826,6.47775e-06,2.6098e-05,3.85498e-05,5.02211e-05,-2.40382e-06,2.35946e-05
827,4.6589e-06,2.91536e-05,3.47104e-05,5.07791e-05,-3.27692e-06,1.78237e-05
828,-1.75492e-06,2.58733e-05,2.93991e-05,4.99353e-05,-4.37974e-06,1.24916e-05
829,-4.93711e-06,1.8879e-05,2.5262e-05,4.77649e-05,-8.03447e-06,9.92191e-06
830,5.61724e-06,1.54163e-05,2.70735e-05,4.45785e-05,-1.29496e-05,1.10517e-05
831,1.56593e-05,1.85299e-05,3.07895e-05,4.33355e-05,-1.53929e-05,1.33954e-05
832,7.03095e-06,2.41757e-05,2.96304e-05,4.63902e-05,-1.36116e-05,1.45619e-05
833,-1.14107e-05,2.77547e-05,2.71188e-05,5.21178e-05,-9.16081e-06,1.38338e-05
834,-2.71515e-05,3.17657e-05,2.64372e-05,5.75963e-05,-7.84397e-06,1.28557e-05
835,-3.8188e-05,3.89687e-05,2.63363e-05,5.92877e-05,-1.27334e-05,1.31174e-05
836,-4.89658e-05,4.45846e-05,2.55798e-05,5.75563e-05,-1.95229e-05,1.36414e-05
837,-6.16234e-05,4.35669e-05,2.27073e-05,5.62454e-05,-2.30687e-05,1.33484e-05
838,-6.79852e-05,3.73071e-05,2.08624e-05,5.74074e-05,-2.39611e-05,1.30253e-05
839,-6.17963e-05,3.10837e-05,2.45878e-05,5.94431e-05,-2.44103e-05,1.36261e-05
840,-5.10646e-05,2.74771e-05,3.15065e-05,5.80109e-05,-2.50334e-05,1.40355e-05
841,-4.55669e-05,2.63738e-05,3.59339e-05,5.27615e-05,-2.60106e-05,1.40122e-05
842,-4.67449e-05,2.76168e-05,3.54698e-05,4.90068e-05,-2.52952e-05,1.35253e-05
843,-5.08797e-05,2.9115e-05,3.26121e-05,4.97236e-05,-2.26089e-05,1.27665e-05
844,-4.84247e-05,2.85626e-05,3.23978e-05,5.22475e-05,-2.0216e-05,1.27005e-05
845,-3.34366e-05,2.45321e-05,3.63007e-05,5.27349e-05,-1.99245e-05,1.35496e-05
846,-1.41028e-05,1.72234e-05,4.10266e-05,5.02182e-05,-2.1002e-05,1.48592e-05
847,-2.12908e-06,1.03282e-05,4.2659e-05,4.55383e-05,-2.12779e-05,1.62061e-05
848,-1.51616e-07,7.98915e-06,3.88262e-05,4.06239e-05,-2.04454e-05,1.59218e-05
849,-5.61694e-06,9.53999e-06,3.08347e-05,4.0002e-05,-2.06778e-05,1.27171e-05
850,-9.76161e-06,1.09777e-05,2.60741e-05,4.43954e-05,-2.17539e-05,9.09678e-06
851,-2.31743e-06,1.01411e-05,3.06614e-05,4.7419e-05,-2.09186e-05,7.3362e-06
852,1.19837e-05,7.25271e-06,4.04557e-05,4.60989e-05,-1.67038e-05,5.25048e-06
853,1.90466e-05,6.30126e-06,4.79506e-05,4.34274e-05,-1.01429e-05,1.87126e-06
854,1.32038e-05,1.0814e-05,5.00326e-05,4.24606e-05,-4.10721e-06,-1.33342e-06
855,-3.10193e-06,1.62608e-05,4.68338e-05,4.40509e-05,-2.4564e-06,-4.11544e-06
856,-1.73303e-05,1.64003e-05,4.27333e-05,4.48527e-05,-5.2307e-06,-4.90352e-06
857,-1.26137e-05,1.27291e-05,4.36257e-05,4.32822e-05,-5.32742e-06,-2.20576e-06
858,2.42675e-06,9.73406e-06,4.64322e-05,4.17367e-05,1.34269e-07,2.9811e-06
859,8.57771e-06,9.16149e-06,4.53472e-05,4.24708e-05,6.36038e-06,8.37987e-06
860,6.35919e-06,1.07107e-05,4.11494e-05,4.67448e-05,8.03872e-06,1.4042e-05
861,2.31935e-06,1.28445e-05,3.62244e-05,5.33647e-05,5.00762e-06,1.84997e-05
862,-1.2025e-07,1.50141e-05,3.38059e-05,5.97107e-05,2.04267e-06,1.8995e-05
863,-2.88342e-06,1.64364e-05,3.41745e-05,6.19178e-05,7.82502e-07,1.73411e-05
864,-1.04258e-05,1.31741e-05,3.42384e-05,5.90282e-05,4.53177e-07,1.42317e-05
865,-1.80046e-05,5.74279e-06,3.35048e-05,5.42695e-05,2.26768e-06,9.63478e-06
866,-1.7229e-05,3.59519e-07,3.43716e-05,5.17885e-05,6.03567e-06,6.65154e-06
867,-1.09427e-05,-8.53117e-07,3.66625e-05,5.25988e-05,8.95211e-06,7.33462e-06
868,-7.26054e-06,9.90877e-07,3.69335e-05,5.41051e-05,9.82143e-06,1.00423e-05
869,-1.02575e-05,3.75289e-06,3.44996e-05,5.57066e-05,9.50992e-06,1.17862e-05
870,-1.89073e-05,3.37418e-06,3.19122e-05,5.82033e-05,7.60951e-06,1.16222e-05
871,-2.26923e-05,-5.89603e-07,3.29314e-05,6.04563e-05,4.70618e-06,1.03688e-05
872,-1.39376e-05,-3.82673e-06,3.80863e-05,6.08919e-05,4.20762e-06,8.22952e-06
873,-9.82555e-07,-3.35697e-06,4.1969e-05,6.02469e-05,7.94841e-06,5.54605e-06
874,3.83259e-06,1.0566e-06,4.08482e-05,5.97448e-05,1.24785e-05,4.24729e-06
875,-2.24097e-06,6.57551e-06,3.76021e-05,6.0848e-05,1.35232e-05,5.45224e-06
876,-1.52168e-05,7.38507e-06,3.56651e-05,6.29873e-05,1.14464e-05,8.11194e-06
877,-2.34569e-05,3.1677e-06,3.76831e-05,6.26001e-05,8.69288e-06,1.09506e-05
878,-1.63234e-05,2.27323e-07,4.34588e-05,5.68661e-05,5.69604e-06,1.35126e-05
879,-4.37045e-07,8.3419e-07,4.6064e-05,4.85953e-05,3.98246e-06,1.55372e-05
880,9.30552e-06,4.28683e-06,4.21712e-05,4.4335e-05,5.35344e-06,1.52094e-05
881,8.06672e-06,9.73822e-06,3.56869e-05,4.78881e-05,5.92999e-06,1.17965e-05
882,-1.97258e-06,1.24125e-05,2.91044e-05,5.63514e-05,2.67525e-06,8.68147e-06
883,-1.20237e-05,9.7478e-06,2.50655e-05,6.03035e-05,-1.07577e-06,8.97937e-06
884,-6.42445e-06,4.76431e-06,2.56431e-05,5.68479e-05,-2.64297e-06,1.24017e-05
885,7.80792e-06,1.30475e-06,2.68983e-05,5.1205e-05,-4.39522e-06,1.45197e-05
886,1.26956e-05,2.93002e-06,2.54904e-05,4.78672e-05,-6.14935e-06,1.2903e-05
887,1.21466e-05,8.66275e-06,2.29323e-05,4.68446e-05,-4.93044e-06,1.09862e-05
888,1.11065e-05,1.3729e-05,2.10959e-05,4.48699e-05,-3.09726e-06,1.03073e-05
889,9.64556e-06,1.6913e-05,2.13449e-05,4.19942e-05,-4.23874e-06,9.99943e-06
890,5.25077e-06,1.88956e-05,2.08898e-05,4.01373e-05,-8.45123e-06,8.97919e-06
891,-5.70394e-06,1.74225e-05,1.63477e-05,4.00736e-05,-1.33956e-05,7.06892e-06
892,-1.32835e-05,1.2451e-05,1.42216e-05,3.98426e-05,-1.6546e-05,5.46997e-06
893,-9.08628e-06,8.85051e-06,1.87001e-05,3.83709e-05,-1.81784e-05,5.39415e-06
894,1.61497e-07,9.33866e-06,2.31822e-05,3.80177e-05,-2.02332e-05,6.13448e-06
895,5.21401e-06,1.29982e-05,2.50896e-05,3.92513e-05,-2.19966e-05,6.53392e-06
896,2.01734e-06,1.58047e-05,2.68087e-05,4.24035e-05,-2.26404e-05,7.70053e-06
897,-8.37074e-06,1.32889e-05,2.71796e-05,4.73333e-05,-2.29984e-05,1.01208e-05
898,-1.51361e-05,7.08679e-06,2.68315e-05,5.01648e-05,-2.23934e-05,1.25554e-05
899,-9.07222e-06,2.87947e-06,2.89929e-05,4.86445e-05,-2.00161e-05,1.35958e-05
900,2.16319e-06,3.30044e-06,3.27935e-05,4.58446e-05,-1.61317e-05,1.30707e-05
901,3.98613e-06,6.6925e-06,3.60316e-05,4.50231e-05,-1.05402e-05,1.15009e-05
902,-6.51965e-06,9.86675e-06,3.82674e-05,4.70494e-05,-5.66856e-06,9.87243e-06
903,-2.1237e-05,9.7349e-06,3.80216e-05,5.07063e-05,-7.44076e-06,9.20714e-06
904,-2.82026e-05,5.82397e-06,3.52382e-05,5.21304e-05,-1.47458e-05,1.07256e-05
905,-1.95931e-05,2.00479e-06,3.29397e-05,5.03814e-05,-1.82503e-05,1.36255e-05
906,-2.31263e-06,1.18143e-06,3.23462e-05,4.84719e-05,-1.37446e-05,1.56434e-05
907,8.34845e-06,3.3779e-06,3.33555e-05,4.71842e-05,-7.77037e-06,1.59138e-05
908,5.2382e-06,6.72614e-06,3.71004e-05,4.70691e-05,-8.26255e-06,1.4256e-05
909,-7.87393e-06,6.80072e-06,4.13877e-05,4.97123e-05,-1.54518e-05,1.15425e-05
910,-1.79791e-05,3.4995e-06,4.48427e-05,5.3265e-05,-2.26388e-05,1.10144e-05
911,-1.22955e-05,2.82254e-06,4.93005e-05,5.44331e-05,-2.28753e-05,1.468e-05
912,-9.29758e-07,6.41613e-06,5.03618e-05,5.29461e-05,-1.65459e-05,1.84614e-05
913,-3.69804e-07,9.2614e-06,4.76103e-05,5.15748e-05,-1.19492e-05,1.95716e-05
914,-4.70304e-06,7.76547e-06,4.66865e-05,5.15325e-05,-1.3515e-05,1.99119e-05
915,-3.72438e-06,5.08645e-06,4.52235e-05,4.96931e-05,-1.46562e-05,1.9635e-05
916,1.76812e-06,6.28916e-06,4.15801e-05,4.46244e-05,-8.83618e-06,1.92722e-05
917,4.64757e-06,9.57129e-06,3.79474e-05,3.98498e-05,9.66606e-07,1.83445e-05
918,-6.81093e-08,9.75222e-06,3.48307e-05,3.96214e-05,7.7568e-06,1.46315e-05
919,-4.49637e-06,7.23806e-06,3.37931e-05,4.27255e-05,8.18675e-06,1.16211e-05
920,5.01919e-07,6.21675e-06,3.56215e-05,4.54234e-05,6.04237e-06,1.29509e-05
921,9.36858e-06,8.08674e-06,3.73309e-05,4.69395e-05,7.10989e-06,1.60622e-05
922,1.1998e-05,1.17199e-05,3.69555e-05,4.67395e-05,1.05946e-05,1.60511e-05
923,5.74464e-06,1.5317e-05,3.55278e-05,4.49857e-05,1.20605e-05,1.15927e-05
924,-5.99942e-06,1.64361e-05,3.34809e-05,4.29466e-05,1.02811e-05,6.63312e-06
925,-1.3443e-05,1.50761e-05,3.26882e-05,4.15983e-05,7.34015e-06,5.24182e-06
926,-9.23694e-06,1.3352e-05,3.57968e-05,4.12495e-05,5.1784e-06,6.58186e-06
927,-4.22719e-08,1.24115e-05,4.19737e-05,4.19871e-05,3.7216e-06,6.67646e-06
928,3.38591e-06,1.34354e-05,4.69438e-05,4.41355e-05,1.4052e-06,4.74474e-06
929,-8.5871e-07,1.61888e-05,4.71485e-05,4.7673e-05,-2.31113e-06,3.26972e-06
930,-9.099e-06,1.64715e-05,4.32586e-05,5.01479e-05,-6.9139e-06,3.70063e-06
931,-1.35368e-05,1.07166e-05,4.07244e-05,4.93708e-05,-1.15406e-05,7.03291e-06
932,-7.47679e-06,2.84881e-06,4.22761e-05,4.84652e-05,-1.48808e-05,1.2854e-05
933,3.86314e-06,-1.14451e-07,4.31601e-05,5.08017e-05,-1.56166e-05,1.73251e-05
934,1.04422e-05,2.54466e-06,4.16322e-05,5.39438e-05,-1.48232e-05,1.90602e-05
935,8.2296e-06,7.49842e-06,4.32373e-05,5.38881e-05,-1.61045e-05,1.99163e-05
936,-5.25153e-06,1.09338e-05,4.65528e-05,5.13591e-05,-1.90652e-05,1.97308e-05
937,-2.15131e-05,8.00263e-06,4.62488e-05,4.92332e-05,-2.0159e-05,1.78896e-05
938,-2.10648e-05,1.15696e-06,4.73088e-05,4.79248e-05,-1.93852e-05,1.67482e-05
939,-8.60503e-06,-3.91526e-07,5.10864e-05,4.71937e-05,-1.72842e-05,1.62738e-05
940,-4.45669e-07,5.22688e-06,5.15906e-05,4.71429e-05,-1.38951e-05,1.43921e-05
941,3.74924e-06,1.13841e-05,4.83723e-05,4.78207e-05,-1.18954e-05,1.44384e-05
942,5.31751e-06,1.46087e-05,4.55262e-05,4.95606e-05,-1.26032e-05,1.6337e-05
943,4.83868e-06,1.71961e-05,4.41767e-05,5.11123e-05,-1.49289e-05,1.57169e-05
944,1.11749e-06,1.90661e-05,4.06932e-05,5.08194e-05,-1.76789e-05,1.29869e-05
945,-7.22206e-06,1.49115e-05,3.5318e-05,5.04296e-05,-2.07195e-05,1.12796e-05
946,-1.00561e-05,6.41645e-06,3.4167e-05,5.14031e-05,-2.44213e-05,1.32421e-05
947,-2.04316e-06,2.63521e-06,4.03345e-05,5.14317e-05,-2.72527e-05,1.70302e-05
948,6.49056e-06,5.71968e-06,4.76151e-05,4.83209e-05,-2.92201e-05,1.83565e-05
949,5.99377e-06,1.14098e-05,4.83546e-05,4.33258e-05,-3.35463e-05,1.61002e-05
950,-4.85616e-06,1.49215e-05,4.13925e-05,4.04708e-05,-4.10187e-05,1.2397e-05
951,-2.09431e-05,1.42497e-05,3.24726e-05,4.13387e-05,-4.69858e-05,9.6393e-06
952,-2.93635e-05,1.12865e-05,3.09714e-05,4.33275e-05,-4.57155e-05,8.74672e-06
953,-2.34673e-05,9.55951e-06,3.75747e-05,4.38417e-05,-3.92938e-05,1.02298e-05
954,-1.32052e-05,1.04452e-05,4.34489e-05,4.38747e-05,-3.50718e-05,1.29084e-05
955,-1.0983e-05,1.29235e-05,4.40663e-05,4.42574e-05,-3.38185e-05,1.46403e-05
956,-2.03075e-05,1.48932e-05,4.16775e-05,4.37206e-05,-3.13084e-05,1.53927e-05
957,-3.83114e-05,1.50722e-05,3.82125e-05,4.23667e-05,-2.76792e-05,1.65978e-05
958,-5.32651e-05,1.46397e-05,3.73396e-05,4.14687e-05,-2.68546e-05,1.82322e-05
959,-5.28909e-05,1.53128e-05,4.22351e-05,4.15128e-05,-2.86789e-05,1.87485e-05
960,-4.23153e-05,1.57259e-05,4.80788e-05,4.17056e-05,-2.85185e-05,1.84692e-05
961,-3.51944e-05,1.57256e-05,4.82971e-05,4.13324e-05,-2.5144e-05,1.83734e-05
962,-3.42504e-05,1.89909e-05,4.44324e-05,4.15548e-05,-2.21453e-05,1.7688e-05
963,-3.73299e-05,2.35928e-05,4.05587e-05,4.46039e-05,-1.96589e-05,1.60155e-05
964,-3.8392e-05,2.51873e-05,3.90892e-05,4.99579e-05,-1.51672e-05,1.32325e-05
965,-2.39236e-05,2.48818e-05,4.41942e-05,5.54827e-05,-1.1098e-05,1.0678e-05
966,-1.8445e-06,2.31453e-05,5.20101e-05,5.79761e-05,-9.88661e-06,9.78047e-06
967,9.42721e-06,1.95211e-05,5.46947e-05,5.56033e-05,-9.12111e-06,1.02295e-05
968,1.34535e-05,1.72532e-05,5.30071e-05,5.30542e-05,-6.58863e-06,1.09063e-05
969,1.66699e-05,1.99428e-05,4.97524e-05,5.32426e-05,-4.33659e-06,1.00286e-05
970,1.78e-05,2.50271e-05,4.73834e-05,5.35491e-05,-4.69052e-06,9.15233e-06
971,1.19355e-05,2.51668e-05,4.65254e-05,5.50723e-05,-7.61843e-06,9.08888e-06
972,-8.27132e-07,2.00778e-05,4.41643e-05,5.83667e-05,-1.1729e-05,8.72412e-06
973,-6.0946e-06,1.61515e-05,4.09062e-05,5.92244e-05,-1.49823e-05,8.53634e-06
974,3.41831e-06,1.46007e-05,4.11527e-05,5.75522e-05,-1.71652e-05,8.67236e-06
975,1.52393e-05,1.34866e-05,4.39241e-05,5.63258e-05,-1.8663e-05,8.81854e-06
976,1.73357e-05,1.41084e-05,4.47606e-05,5.64839e-05,-1.81283e-05,9.15678e-06
977,8.71578e-06,1.58336e-05,4.19486e-05,5.83696e-05,-1.44795e-05,9.41996e-06
978,-3.84278e-06,1.55412e-05,3.79061e-05,6.1112e-05,-8.96429e-06,8.7893e-06
979,-6.96885e-06,1.43967e-05,3.75746e-05,6.16928e-05,-4.05207e-06,7.34935e-06
980,5.10682e-06,1.61746e-05,4.13246e-05,5.85268e-05,-8.16949e-07,6.67974e-06
981,1.89578e-05,2.09556e-05,4.47292e-05,5.34078e-05,2.30335e-06,8.68832e-06
982,1.9324e-05,2.53418e-05,4.45305e-05,4.91367e-05,6.44415e-06,1.25504e-05
983,6.70767e-06,2.59013e-05,4.10359e-05,4.64211e-05,1.01963e-05,1.44697e-05
984,-1.12461e-05,2.23569e-05,3.64962e-05,4.38518e-05,1.11806e-05,1.16457e-05
985,-2.33094e-05,1.8346e-05,3.4349e-05,4.18389e-05,7.58986e-06,7.70133e-06
986,-2.01298e-05,1.70098e-05,3.62681e-05,4.20373e-05,1.07578e-06,8.74889e-06
987,-1.06341e-05,1.7435e-05,3.88483e-05,4.31817e-05,-3.87723e-06,1.43811e-05
988,-1.05899e-05,1.86843e-05,3.74898e-05,4.24952e-05,-7.67869e-06,1.93321e-05
989,-1.91507e-05,2.16977e-05,3.31071e-05,3.99266e-05,-1.21552e-05,2.18556e-05
990,-2.83812e-05,2.25152e-05,2.97444e-05,3.97862e-05,-1.34828e-05,2.30797e-05
991,-3.13257e-05,1.65055e-05,3.07208e-05,4.42289e-05,-1.05729e-05,2.47334e-05
992,-1.96516e-05,8.26617e-06,3.60528e-05,4.92146e-05,-8.11613e-06,2.68905e-05
993,-5.05544e-06,3.57738e-06,3.99031e-05,5.05165e-05,-8.13313e-06,2.71626e-05
994,-2.06852e-06,1.85199e-06,3.81379e-05,4.85061e-05,-7.77005e-06,2.559e-05
995,-2.35797e-06,1.47123e-06,3.36855e-05,4.74681e-05,-7.14829e-06,2.44415e-05
996,-1.30544e-06,2.64691e-06,3.06461e-05,4.91578e-05,-8.99697e-06,2.48131e-05
997,-2.34196e-06,3.51551e-06,3.15395e-05,5.16222e-05,-1.03653e-05,2.40487e-05
998,-6.91324e-06,1.68447e-06,3.46091e-05,5.29826e-05,-8.9889e-06,1.87184e-05
999,-1.33905e-05,-2.96436e-06,3.39211e-05,5.38468e-05,-6.25716e-06,1.02085e-05
1000,-1.40708e-05,-8.31088e-06,3.16051e-05,5.51035e-05,-3.11823e-06,3.47748e-06
1001,-7.32613e-06,-1.16371e-05,3.42656e-05,5.51178e-05,-8.62958e-07,2.06283e-06
1002,-3.74838e-06,-1.33654e-05,3.87632e-05,5.31985e-05,9.51638e-07,4.17525e-06
1003,-9.68636e-06,-1.26093e-05,3.92729e-05,5.21996e-05,3.02639e-06,6.35914e-06
1004,-2.22644e-05,-9.03869e-06,3.48465e-05,5.57181e-05,3.98874e-06,7.49859e-06
1005,-3.73658e-05,-7.20309e-06,2.82247e-05,6.16171e-05,3.08535e-06,7.77938e-06
1006,-4.58017e-05,-9.28755e-06,2.50158e-05,6.27569e-05,1.88975e-06,8.93688e-06
1007,-3.99232e-05,-1.20047e-05,2.65116e-05,5.65679e-05,1.44755e-06,1.17625e-05
1008,-2.63851e-05,-1.12954e-05,2.8313e-05,4.84729e-05,8.77022e-07,1.36491e-05
1009,-1.72308e-05,-4.18256e-06,2.72502e-05,4.41174e-05,2.71428e-07,1.15653e-05
1010,-1.65749e-05,8.34737e-06,2.30287e-05,4.41977e-05,2.05001e-06,7.38164e-06
1011,-2.33097e-05,1.94356e-05,1.529e-05,4.58735e-05,5.83993e-06,5.09465e-06
1012,-2.93666e-05,2.47408e-05,8.54263e-06,4.70306e-05,7.22229e-06,5.43821e-06
1013,-2.37819e-05,2.90801e-05,1.02538e-05,4.91517e-05,3.41573e-06,6.5382e-06
1014,-8.91687e-06,3.80732e-05,1.7684e-05,5.33739e-05,-1.62502e-06,7.56733e-06
1015,2.13763e-06,5.01687e-05,2.27322e-05,5.62269e-05,-2.0715e-06,8.75064e-06
1016,4.52883e-06,5.98258e-05,2.53121e-05,5.53335e-05,8.15758e-07,9.10265e-06
1017,-3.07352e-07,6.24047e-05,2.79473e-05,5.34831e-05,3.60908e-06,6.23363e-06
1018,-7.17366e-06,5.83408e-05,3.10682e-05,5.1786e-05,4.55633e-06,2.28977e-06
1019,-3.27493e-06,5.34679e-05,3.63447e-05,5.02414e-05,2.7649e-06,2.28801e-06
1020,7.46006e-06,5.19798e-05,4.09632e-05,5.02706e-05,-2.12807e-06,5.2268e-06
1021,1.0043e-05,5.04936e-05,4.19184e-05,5.27984e-05,-7.66165e-06,7.77347e-06
1022,7.15158e-06,4.46455e-05,4.25963e-05,5.72789e-05,-8.62343e-06,8.57634e-06
1023,7.30115e-06,3.77193e-05,4.19423e-05,5.91211e-05,-8.07032e-06,8.029e-06
1024,8.76266e-06,3.43639e-05,3.79605e-05,5.70886e-05,-9.75835e-06,8.42437e-06
1025,1.75636e-06,3.04562e-05,3.32436e-05,5.64414e-05,-9.78957e-06,9.74162e-06
1026,-1.70857e-05,2.08317e-05,2.97595e-05,6.0173e-05,-7.33702e-06,9.67753e-06
1027,-3.15939e-05,9.80194e-06,2.9595e-05,6.46607e-05,-4.74186e-06,8.11772e-06
1028,-2.76089e-05,1.72486e-06,3.35047e-05,6.55468e-05,-2.63462e-06,7.10271e-06
1029,-1.5455e-05,-3.45966e-06,3.76098e-05,6.26975e-05,-1.24195e-06,7.99588e-06
1030,-9.64109e-06,-5.61104e-06,3.76578e-05,5.82296e-05,-1.34054e-06,9.12098e-06
1031,-1.32584e-05,-5.53894e-06,3.39766e-05,5.45528e-05,-3.55537e-06,8.91463e-06
1032,-2.19272e-05,-6.22442e-06,2.83621e-05,5.22576e-05,-7.8215e-06,8.36457e-06
1033,-2.54054e-05,-8.9234e-06,2.47385e-05,5.09407e-05,-1.23205e-05,9.50782e-06
1034,-1.77691e-05,-1.07432e-05,2.68146e-05,4.99662e-05,-1.41924e-05,1.19897e-05
1035,-6.14224e-06,-9.81963e-06,3.17163e-05,4.91169e-05,-1.21336e-05,1.3658e-05
1036,-1.33417e-06,-7.11688e-06,3.26874e-05,4.93092e-05,-7.30088e-06,1.40992e-05
1037,-5.08589e-06,-5.54327e-06,2.83112e-05,5.20774e-05,-2.55708e-06,1.30571e-05
1038,-1.34385e-05,-8.48747e-06,2.31746e-05,5.69374e-05,-1.89896e-07,8.86191e-06
1039,-1.91748e-05,-1.46416e-05,2.2596e-05,6.12721e-05,1.85538e-07,3.34089e-06
1040,-1.43105e-05,-1.65377e-05,2.88499e-05,6.26598e-05,-3.32066e-07,1.3824e-06
1041,-2.49671e-06,-1.17902e-05,3.81928e-05,6.09135e-05,-4.2227e-07,4.07322e-06
1042,4.90223e-06,-6.52536e-06,4.43766e-05,5.71268e-05,1.80611e-08,7.05098e-06
1043,4.39794e-06,-3.91522e-06,4.459e-05,5.24963e-05,-9.59613e-07,6.42135e-06
1044,-4.4403e-06,-1.96858e-06,3.98781e-05,4.98179e-05,-3.29029e-06,3.93353e-06
1045,-1.28028e-05,4.00221e-07,3.76657e-05,5.08982e-05,-6.5425e-06,3.00256e-06
1046,-4.08486e-06,5.25196e-06,4.39581e-05,5.41028e-05,-8.87984e-06,4.62624e-06
1047,1.06755e-05,1.35042e-05,5.02207e-05,5.56306e-05,-6.71637e-06,8.40417e-06
1048,1.22921e-05,2.11183e-05,4.84953e-05,5.31319e-05,-3.03234e-06,1.16666e-05
1049,7.49907e-06,2.67258e-05,4.38506e-05,4.82423e-05,-3.41305e-06,1.08783e-05
1050,3.77518e-06,3.36456e-05,4.20455e-05,4.52709e-05,-7.28627e-06,7.46781e-06
1051,2.33533e-06,4.43679e-05,4.21324e-05,4.49973e-05,-8.5218e-06,4.87394e-06
1052,-4.16356e-07,5.30728e-05,3.98969e-05,4.47548e-05,-5.55531e-06,4.72699e-06
1053,-9.4759e-06,5.09892e-05,3.7092e-05,4.52497e-05,-5.51568e-06,8.1115e-06
1054,-1.4056e-05,4.17956e-05,3.98475e-05,4.6269e-05,-1.0878e-05,1.39461e-05
1055,-5.41823e-06,3.41429e-05,4.70691e-05,4.71316e-05,-1.53477e-05,1.85318e-05
1056,7.77791e-06,3.10385e-05,5.27753e-05,4.92889e-05,-1.4622e-05,1.97502e-05
1057,1.48316e-05,3.23742e-05,5.37268e-05,5.06911e-05,-1.15269e-05,1.93497e-05
1058,1.26123e-05,3.40851e-05,4.99661e-05,4.99257e-05,-9.31523e-06,1.85078e-05
1059,4.06794e-06,3.18722e-05,4.37671e-05,4.95334e-05,-8.39196e-06,1.59728e-05
1060,7.97518e-08,2.80339e-05,4.12343e-05,5.05979e-05,-8.8472e-06,1.17847e-05
1061,7.75356e-06,2.70365e-05,4.49173e-05,5.06657e-05,-1.0951e-05,8.72004e-06
1062,1.84246e-05,2.8553e-05,4.91896e-05,4.73702e-05,-1.403e-05,9.62242e-06
1063,1.98365e-05,3.00321e-05,4.88643e-05,4.1498e-05,-1.69389e-05,1.36449e-05
1064,1.03034e-05,2.94318e-05,4.58433e-05,3.78586e-05,-1.89163e-05,1.71256e-05
1065,-4.69073e-06,2.50969e-05,4.31843e-05,4.05774e-05,-1.81805e-05,1.80485e-05
1066,-1.47873e-05,1.71551e-05,4.18373e-05,4.70862e-05,-1.38241e-05,1.77621e-05
1067,-1.1426e-05,8.74656e-06,4.23687e-05,5.0165e-05,-9.76399e-06,1.74369e-05
1068,-4.32964e-07,3.08648e-06,4.20803e-05,4.73932e-05,-9.51737e-06,1.65165e-05
1069,6.00813e-06,1.81535e-06,4.02828e-05,4.27365e-05,-1.03434e-05,1.56696e-05
1070,3.62255e-06,4.24703e-06,3.82544e-05,3.97413e-05,-8.68691e-06,1.5934e-05
1071,-6.08572e-06,6.58963e-06,3.40824e-05,3.99247e-05,-5.16292e-06,1.62587e-05
1072,-1.33625e-05,5.82263e-06,3.12033e-05,4.14162e-05,-3.65993e-06,1.58102e-05
1073,-5.79114e-06,4.51517e-06,3.55434e-05,4.00883e-05,-6.32566e-06,1.35947e-05
1074,5.4543e-06,5.78248e-06,4.1232e-05,3.74104e-05,-1.03981e-05,9.76451e-06
1075,7.01786e-06,7.70076e-06,4.13857e-05,3.75357e-05,-1.20763e-05,7.78419e-06
1076,6.09612e-06,7.5988e-06,4.00351e-05,3.95761e-05,-1.11617e-05,9.62431e-06
1077,4.61318e-06,5.91709e-06,4.05672e-05,4.08218e-05,-9.57911e-06,1.53961e-05
1078,1.45023e-06,6.12404e-06,3.9138e-05,4.1072e-05,-9.014e-06,2.25913e-05
1079,-3.89775e-06,8.84054e-06,3.36223e-05,4.16928e-05,-1.05621e-05,2.60285e-05
1080,-1.33169e-05,1.05259e-05,2.99791e-05,4.32933e-05,-1.27792e-05,2.42629e-05
1081,-1.8696e-05,8.80427e-06,3.30481e-05,4.68974e-05,-1.39876e-05,2.05543e-05
1082,-1.36178e-05,4.4049e-06,3.92931e-05,5.15929e-05,-1.38117e-05,1.70972e-05
1083,-4.08544e-06,1.36182e-06,4.17822e-05,5.31272e-05,-1.17487e-05,1.51276e-05
1084,2.46128e-06,2.07347e-06,3.96278e-05,4.98905e-05,-7.93418e-06,1.5307e-05
1085,1.6807e-06,3.33208e-06,3.58514e-05,4.59183e-05,-3.76536e-06,1.54048e-05
1086,-8.20372e-06,1.18284e-06,3.1353e-05,4.70188e-05,-1.94983e-06,1.34963e-05
1087,-1.68625e-05,-3.38131e-06,3.08008e-05,5.29438e-05,-3.58732e-06,1.08112e-05
1088,-1.30519e-05,-5.75175e-06,3.61833e-05,5.70476e-05,-6.63491e-06,9.88389e-06
1089,-2.00523e-06,-4.67258e-06,4.07315e-05,5.59035e-05,-8.2779e-06,1.14473e-05
1090,4.64419e-06,-1.61207e-06,3.96028e-05,5.28699e-05,-7.48588e-06,1.38342e-05
1091,2.65271e-06,3.15107e-06,3.44681e-05,5.25029e-05,-6.37141e-06,1.41073e-05
1092,-6.38925e-06,8.50507e-06,2.7178e-05,5.52285e-05,-7.311e-06,1.17706e-05
1093,-1.10128e-05,1.19828e-05,2.19018e-05,5.6837e-05,-9.64709e-06,1.00176e-05
1094,-1.20123e-07,1.34003e-05,2.42845e-05,5.32502e-05,-1.14939e-05,1.20037e-05
1095,1.48978e-05,1.51506e-05,3.21529e-05,4.67054e-05,-1.19042e-05,1.52517e-05
1096,1.67397e-05,1.79603e-05,3.72661e-05,4.15213e-05,-1.09271e-05,1.57511e-05
1097,6.29272e-06,1.99095e-05,3.53616e-05,3.84161e-05,-1.06265e-05,1.50775e-05
1098,-1.06032e-05,1.81481e-05,2.91932e-05,3.84829e-05,-1.30234e-05,1.47668e-05
1099,-2.57398e-05,1.03944e-05,2.52142e-05,4.1161e-05,-1.54067e-05,1.42891e-05
1100,-2.32031e-05,1.53626e-06,2.65622e-05,4.32035e-05,-1.5356e-05,1.48022e-05
1101,-8.93081e-06,-8.99786e-07,2.78384e-05,4.4911e-05,-1.27348e-05,1.5353e-05
1102,-3.449e-06,3.31293e-06,2.5746e-05,4.73139e-05,-8.58625e-06,1.36385e-05
1103,-5.62691e-06,9.01829e-06,2.20818e-05,5.00064e-05,-6.01224e-06,1.10113e-05
1104,-6.79932e-06,1.08165e-05,1.91786e-05,5.25466e-05,-5.38735e-06,9.80914e-06
1105,-5.59477e-06,9.3275e-06,2.02557e-05,5.39783e-05,-7.00652e-06,9.99418e-06
1106,-7.70775e-06,7.70616e-06,2.23581e-05,5.51214e-05,-9.83497e-06,9.53594e-06
1107,-1.87887e-05,3.7691e-06,2.10337e-05,5.82913e-05,-1.08746e-05,7.87741e-06
1108,-2.80712e-05,-2.63913e-06,1.95641e-05,6.13312e-05,-1.16661e-05,5.9207e-06
1109,-2.5421e-05,-7.23797e-06,2.09714e-05,5.94342e-05,-1.40858e-05,5.59765e-06
1110,-1.87855e-05,-8.44725e-06,2.17366e-05,5.44653e-05,-1.60877e-05,9.18808e-06
1111,-1.79743e-05,-5.3891e-06,1.93533e-05,5.17583e-05,-1.60273e-05,1.55883e-05
1112,-2.27941e-05,2.67276e-07,1.52648e-05,5.31501e-05,-1.38202e-05,2.06953e-05
1113,-2.97727e-05,3.3966e-06,1.1617e-05,5.55568e-05,-1.19292e-05,2.22558e-05
1114,-3.19893e-05,3.424e-06,1.27423e-05,5.54558e-05,-1.40141e-05,2.2762e-05
1115,-2.47395e-05,5.19832e-06,1.87553e-05,5.45002e-05,-1.84324e-05,2.58293e-05
1116,-1.39583e-05,1.18028e-05,2.18361e-05,5.61041e-05,-2.04109e-05,3.13958e-05
1117,-7.10065e-06,2.23905e-05,1.59633e-05,6.01357e-05,-1.82369e-05,3.50102e-05
1118,-4.94081e-06,3.27763e-05,5.23561e-06,6.3845e-05,-1.45565e-05,3.26453e-05
1119,-6.47029e-06,3.77849e-05,-8.16166e-07,6.54478e-05,-1.37586e-05,2.53319e-05
1120,-7.3935e-06,3.59537e-05,4.34044e-06,6.55114e-05,-1.69214e-05,1.61149e-05
1121,-2.13985e-06,3.10405e-05,1.80692e-05,6.53556e-05,-1.96903e-05,6.30687e-06
1122,4.39846e-06,2.92423e-05,2.99425e-05,6.36042e-05,-1.92782e-05,-3.02587e-06
1123,3.22316e-06,3.35548e-05,3.53209e-05,5.90369e-05,-1.75772e-05,-9.97989e-06
1124,-6.19312e-06,3.93683e-05,3.81477e-05,5.54514e-05,-1.55656e-05,-1.36639e-05
1125,-1.82512e-05,3.95492e-05,4.18291e-05,5.50848e-05,-1.38424e-05,-1.53215e-05
1126,-2.17188e-05,3.52905e-05,4.81328e-05,5.40107e-05,-1.4033e-05,-1.48694e-05
1127,-9.2585e-06,3.20539e-05,5.75026e-05,4.86847e-05,-1.39226e-05,-8.50859e-06
1128,2.49205e-06,2.96821e-05,6.38341e-05,4.2272e-05,-1.15573e-05,2.82289e-06
1129,1.0547e-07,2.59818e-05,6.26126e-05,4.0357e-05,-1.11241e-05,9.98331e-06
1130,-5.75521e-06,2.19598e-05,6.15038e-05,4.32142e-05,-1.56594e-05,9.5189e-06
1131,-8.58204e-06,2.02393e-05,6.53766e-05,4.68677e-05,-2.11647e-05,7.10777e-06
1132,-1.05696e-05,2.22614e-05,6.86883e-05,4.68335e-05,-2.35359e-05,7.79617e-06
1133,-1.60343e-05,2.45557e-05,6.67336e-05,4.3558e-05,-2.39476e-05,1.16006e-05
1134,-2.53827e-05,2.14306e-05,6.23734e-05,4.07026e-05,-2.51679e-05,1.50682e-05
1135,-2.57431e-05,1.47649e-05,6.23899e-05,3.92796e-05,-2.68955e-05,1.55131e-05
1136,-1.13304e-05,9.38941e-06,6.75684e-05,3.87309e-05,-2.7078e-05,1.44255e-05
1137,4.45124e-06,6.2549e-06,7.27266e-05,3.8154e-05,-2.61077e-05,1.58996e-05
1138,9.72059e-06,5.94229e-06,7.22915e-05,3.76412e-05,-2.38764e-05,2.04757e-05
1139,2.73369e-06,7.47317e-06,6.3986e-05,3.97391e-05,-1.95428e-05,2.43148e-05
1140,-1.10347e-05,7.89885e-06,5.28646e-05,4.54218e-05,-1.27659e-05,2.44487e-05
1141,-1.83485e-05,5.81605e-06,4.89245e-05,5.02395e-05,-4.25593e-06,2.22061e-05
1142,-1.2993e-05,3.21423e-06,5.36195e-05,4.99014e-05,3.18202e-06,1.90003e-05
1143,-4.09536e-06,3.56454e-06,5.84711e-05,4.64062e-05,7.1777e-06,1.4261e-05
1144,-2.36907e-06,8.47592e-06,5.74842e-05,4.46918e-05,7.94825e-06,9.50263e-06
1145,-7.41183e-06,1.37414e-05,5.07181e-05,4.65318e-05,7.49355e-06,6.97139e-06
1146,-1.43686e-05,1.28324e-05,4.15489e-05,5.01521e-05,6.2308e-06,5.24096e-06
1147,-1.80191e-05,6.64162e-06,3.65519e-05,5.29127e-05,3.81036e-06,3.29903e-06
1148,-1.14909e-05,1.61064e-06,3.90443e-05,5.24754e-05,2.19773e-06,4.09389e-06
1149,2.08e-06,3.01039e-07,4.2437e-05,4.74929e-05,3.03723e-06,7.99301e-06
1150,1.0329e-05,2.30484e-06,4.05337e-05,4.09583e-05,4.16682e-06,1.07038e-05
1151,7.80485e-06,6.83126e-06,3.5874e-05,3.78656e-05,1.62938e-06,1.07144e-05
1152,-4.45432e-06,1.0863e-05,3.31402e-05,4.00162e-05,-4.66529e-06,9.98851e-06
1153,-1.84629e-05,1.25627e-05,3.5327e-05,4.50723e-05,-8.38583e-06,8.34385e-06
1154,-1.64977e-05,1.36357e-05,4.20984e-05,4.96811e-05,-4.9827e-06,6.88412e-06
1155,-1.9629e-06,1.49821e-05,4.73333e-05,5.28162e-05,4.89886e-07,8.51831e-06
1156,3.66383e-06,1.46823e-05,4.59402e-05,5.40097e-05,2.82969e-06,1.20847e-05
1157,6.19155e-07,1.17469e-05,4.21268e-05,5.42935e-05,5.10807e-06,1.43737e-05
1158,-1.81248e-06,9.32888e-06,4.07613e-05,5.40699e-05,6.9642e-06,1.32007e-05
1159,-7.53979e-07,1.10234e-05,3.99205e-05,5.309e-05,6.05591e-06,1.0006e-05
1160,-8.02819e-07,1.44288e-05,3.5988e-05,5.33885e-05,6.71525e-06,8.86305e-06
1161,-9.20172e-06,1.48398e-05,2.93929e-05,5.43466e-05,9.71906e-06,8.98042e-06
1162,-1.53801e-05,1.33928e-05,2.62216e-05,5.45379e-05,1.02559e-05,7.73606e-06
1163,-6.30396e-06,1.27336e-05,2.78363e-05,5.4938e-05,6.55378e-06,7.33332e-06
1164,7.57393e-06,1.1944e-05,3.07479e-05,5.54379e-05,5.70226e-07,1.09541e-05
1165,8.34218e-06,1.10297e-05,3.32373e-05,5.46268e-05,-4.98111e-06,1.72722e-05
1166,-4.1852e-06,9.80401e-06,3.30171e-05,5.23786e-05,-7.44685e-06,2.17123e-05
1167,-1.84088e-05,6.16441e-06,2.90216e-05,5.11339e-05,-5.97393e-06,2.22258e-05
1168,-2.20399e-05,1.29784e-06,2.60281e-05,5.2349e-05,-2.33732e-06,2.1055e-05
1169,-1.2842e-05,-6.28641e-07,2.77289e-05,5.31562e-05,8.98733e-07,2.02878e-05
1170,-1.79575e-06,9.18766e-07,3.09537e-05,5.00071e-05,2.17656e-06,1.93977e-05
1171,1.93706e-06,2.83155e-06,3.208e-05,4.42959e-05,8.60764e-07,1.73127e-05
1172,-2.39712e-06,2.67774e-06,3.06093e-05,4.16721e-05,-2.00308e-06,1.43963e-05
1173,-1.29277e-05,6.34621e-07,2.81741e-05,4.55224e-05,-3.83613e-06,1.26624e-05
1174,-2.00199e-05,-2.22383e-06,2.75991e-05,5.18686e-05,-3.70152e-06,1.35603e-05
1175,-1.22696e-05,-4.6182e-06,3.10976e-05,5.50489e-05,-3.07233e-06,1.46342e-05
1176,2.58511e-06,-5.12286e-06,3.60523e-05,5.51423e-05,-3.7101e-06,1.31752e-05
1177,8.85209e-06,-3.21709e-06,3.79955e-05,5.44932e-05,-7.04846e-06,1.11448e-05
1178,4.06821e-06,1.0604e-06,3.82084e-05,5.3991e-05,-1.1391e-05,1.1017e-05
1179,-9.04087e-06,4.51919e-06,3.82212e-05,5.47772e-05,-1.45947e-05,1.10914e-05
1180,-2.20996e-05,3.36861e-06,3.89998e-05,5.72611e-05,-1.70242e-05,1.04279e-05
1181,-1.98064e-05,2.75832e-06,4.32647e-05,5.90382e-05,-1.72537e-05,1.03876e-05
1182,-8.87214e-06,6.82508e-06,4.68107e-05,5.8859e-05,-1.5357e-05,9.20095e-06
1183,-3.73387e-06,8.8842e-06,4.476e-05,5.80055e-05,-1.28155e-05,6.42966e-06
1184,-2.345e-06,5.54927e-06,4.07332e-05,5.83587e-05,-1.14445e-05,4.95334e-06
1185,-2.85198e-06,1.53709e-06,3.85833e-05,5.90701e-05,-1.24207e-05,4.64078e-06
1186,-5.30766e-06,1.95357e-06,3.68341e-05,5.7087e-05,-1.31132e-05,4.36682e-06
1187,-1.23685e-05,5.63795e-06,3.34465e-05,5.28769e-05,-1.20425e-05,3.61556e-06
1188,-2.61564e-05,6.65926e-06,2.98743e-05,4.9506e-05,-1.10615e-05,9.70513e-07
1189,-3.40732e-05,5.52999e-06,2.9175e-05,4.80215e-05,-1.10299e-05,-8.63555e-07
1190,-2.59372e-05,5.79652e-06,3.15443e-05,4.72609e-05,-1.05114e-05,1.24528e-06
1191,-1.12809e-05,8.47386e-06,3.39184e-05,4.63557e-05,-9.73927e-06,6.14927e-06
1192,-3.32412e-06,1.54555e-05,3.44879e-05,4.56059e-05,-1.06738e-05,1.12566e-05
1193,-7.51184e-06,2.50535e-05,3.42488e-05,4.6604e-05,-1.23818e-05,1.43626e-05
1194,-1.98976e-05,3.11311e-05,3.49419e-05,4.90007e-05,-1.26864e-05,1.57254e-05
1195,-2.66871e-05,2.99477e-05,3.91943e-05,5.03682e-05,-1.24888e-05,1.73139e-05
1196,-1.9012e-05,2.35108e-05,4.64616e-05,4.97848e-05,-1.23406e-05,1.95749e-05
1197,-5.22439e-06,1.6974e-05,5.10167e-05,4.80954e-05,-1.17425e-05,2.04053e-05
1198,1.33579e-06,1.60628e-05,4.89078e-05,4.64188e-05,-1.13114e-05,1.87166e-05
1199,-2.78227e-06,2.11714e-05,4.18563e-05,4.64738e-05,-1.02386e-05,1.57619e-05
1200,-1.39383e-05,2.55356e-05,3.49799e-05,4.81499e-05,-7.64162e-06,1.27342e-05
1201,-2.27923e-05,2.57119e-05,3.30535e-05,4.74485e-05,-6.77124e-06,1.03295e-05
1202,-1.81682e-05,2.48532e-05,3.49659e-05,4.38376e-05,-9.91381e-06,9.92317e-06
1203,-3.3496e-06,2.41719e-05,3.55076e-05,4.28684e-05,-1.30203e-05,1.0787e-05
1204,7.36188e-06,2.4081e-05,3.3712e-05,4.67033e-05,-1.29495e-05,1.02554e-05
1205,8.53566e-06,2.58059e-05,3.13071e-05,5.14072e-05,-1.12785e-05,8.38158e-06
1206,-5.58869e-07,2.51656e-05,2.77698e-05,5.4056e-05,-9.05895e-06,5.75753e-06
1207,-1.2978e-05,1.73521e-05,2.45847e-05,5.53336e-05,-6.64521e-06,3.42433e-06
1208,-1.04201e-05,6.53882e-06,2.70668e-05,5.57689e-05,-4.8266e-06,5.10526e-06
1209,1.95024e-06,6.58203e-07,3.47149e-05,5.25598e-05,-4.70813e-06,8.96475e-06
1210,5.94196e-06,-2.78312e-07,4.08558e-05,4.51754e-05,-6.69113e-06,1.01019e-05
1211,7.08699e-06,-2.47739e-06,4.33633e-05,3.79046e-05,-7.26151e-06,9.51499e-06
1212,1.12192e-05,-5.11927e-06,4.3471e-05,3.43099e-05,-4.6017e-06,9.23469e-06
1213,1.10542e-05,-2.58896e-06,4.25187e-05,3.42262e-05,-1.07863e-06,8.78716e-06
1214,1.52592e-06,1.49226e-06,4.04012e-05,3.58003e-05,1.6805e-06,7.92792e-06
1215,-1.37138e-05,-8.46861e-07,3.65793e-05,3.84405e-05,1.9203e-06,7.91041e-06
1216,-1.99722e-05,-7.31115e-06,3.58662e-05,3.96067e-05,7.49675e-08,8.40091e-06
1217,-1.00463e-05,-8.02237e-06,4.03056e-05,3.67838e-05,-2.32474e-06,8.37411e-06
1218,2.48566e-06,-5.56688e-07,4.40105e-05,3.3286e-05,-5.88819e-06,6.87226e-06
1219,4.0882e-06,1.11562e-05,4.22407e-05,3.35661e-05,-8.51589e-06,3.4948e-06
1220,-4.85036e-06,2.27938e-05,3.71262e-05,3.73012e-05,-7.30918e-06,4.75269e-07
1221,-1.65223e-05,2.97207e-05,3.2993e-05,4.14676e-05,-3.80974e-06,3.70483e-07
1222,-2.10387e-05,3.07635e-05,3.24938e-05,4.43202e-05,-2.9501e-06,2.91588e-06
1223,-1.30705e-05,2.89282e-05,3.55686e-05,4.61173e-05,-6.34183e-06,5.94305e-06
1224,1.17247e-06,2.59824e-05,3.86054e-05,4.76851e-05,-1.03616e-05,8.3554e-06
1225,1.13965e-05,2.23175e-05,3.88684e-05,4.88212e-05,-1.12928e-05,9.92042e-06
1226,1.30451e-05,1.92998e-05,3.72457e-05,4.96521e-05,-8.86336e-06,1.09189e-05
1227,5.49382e-06,1.62951e-05,3.42691e-05,5.19704e-05,-5.87029e-06,1.1281e-05
1228,-2.83736e-06,1.15787e-05,2.99259e-05,5.62904e-05,-5.3287e-06,1.05366e-05
1229,1.34386e-06,6.94626e-06,2.75121e-05,5.96657e-05,-6.56257e-06,8.7612e-06
1230,1.4491e-05,5.36271e-06,2.99572e-05,6.00781e-05,-6.66814e-06,7.18899e-06
1231,2.16143e-05,7.61413e-06,3.41907e-05,5.77998e-05,-5.15346e-06,7.66814e-06
1232,1.74968e-05,1.30984e-05,3.37779e-05,5.46459e-05,-3.00034e-06,9.07724e-06
1233,2.50057e-06,1.8469e-05,2.74757e-05,5.39605e-05,-2.96018e-06,8.25249e-06
1234,-1.23404e-05,1.98678e-05,2.34734e-05,5.62431e-05,-4.18272e-06,6.27676e-06
1235,-7.7073e-06,1.99864e-05,2.79531e-05,5.74954e-05,-1.94541e-06,7.66472e-06
1236,6.75641e-06,2.35533e-05,3.28462e-05,5.48703e-05,1.2336e-06,1.06234e-05
1237,1.09868e-05,2.84449e-05,3.30757e-05,5.16457e-05,3.92277e-07,1.07128e-05
1238,9.4794e-06,3.15947e-05,3.56743e-05,5.13637e-05,-2.39424e-06,1.04662e-05
1239,9.27668e-06,3.49727e-05,4.06715e-05,5.38082e-05,-3.01934e-06,1.13819e-05
1240,1.03907e-05,3.89025e-05,4.23162e-05,5.65417e-05,-1.23349e-06,1.17477e-05
1241,6.24407e-06,3.99377e-05,4.0112e-05,5.69184e-05,-5.29054e-07,1.09635e-05
1242,-7.61282e-06,3.72598e-05,3.84567e-05,5.57056e-05,-2.45087e-06,9.11672e-06
1243,-1.84186e-05,3.29018e-05,4.28146e-05,5.46647e-05,-5.09194e-06,8.08182e-06
1244,-1.557e-05,2.91661e-05,4.98766e-05,5.39888e-05,-6.98046e-06,9.61509e-06
1245,-6.56245e-06,2.68895e-05,5.06036e-05,5.29755e-05,-8.46785e-06,1.20318e-05
1246,-2.45082e-06,2.74047e-05,4.51588e-05,5.20622e-05,-1.01375e-05,1.41085e-05
1247,-6.67821e-06,3.09472e-05,3.97381e-05,5.21203e-05,-1.04644e-05,1.70087e-05
1248,-1.46859e-05,3.33659e-05,3.56081e-05,5.34636e-05,-8.61361e-06,1.95817e-05
1249,-1.67498e-05,3.24881e-05,3.43036e-05,5.657e-05,-6.94908e-06,2.06173e-05
1250,-1.01249e-05,3.09625e-05,3.93054e-05,5.86783e-05,-8.14771e-06,2.16892e-05
1251,-2.77326e-06,3.0779e-05,4.69155e-05,5.61821e-05,-1.12095e-05,2.38528e-05
1252,-2.08189e-06,3.17326e-05,4.92522e-05,5.07375e-05,-1.33397e-05,2.46999e-05
1253,-8.8574e-06,3.28737e-05,4.47107e-05,4.71873e-05,-1.42574e-05,2.2722e-05
1254,-2.18808e-05,3.13844e-05,3.76884e-05,4.73075e-05,-1.55706e-05,1.94226e-05
1255,-3.20139e-05,2.43049e-05,3.39003e-05,4.98715e-05,-1.71061e-05,1.66166e-05
1256,-2.70061e-05,1.30908e-05,3.71005e-05,5.19828e-05,-1.71718e-05,1.51145e-05
1257,-1.2799e-05,4.27138e-06,4.37106e-05,5.09533e-05,-1.66752e-05,1.51463e-05
1258,-5.54152e-06,3.425e-06,4.65621e-05,4.82008e-05,-1.81313e-05,1.65881e-05
1259,-6.8439e-06,8.57527e-06,4.44614e-05,4.86237e-05,-2.15504e-05,1.83712e-05
1260,-1.25639e-05,1.08985e-05,4.07124e-05,5.31414e-05,-2.44325e-05,1.99439e-05
1261,-1.78539e-05,6.85411e-06,3.84685e-05,5.72764e-05,-2.50425e-05,2.09578e-05
1262,-1.10449e-05,2.39963e-06,4.06445e-05,5.84548e-05,-2.49685e-05,2.08738e-05
1263,1.25085e-06,4.76761e-07,4.57978e-05,5.78251e-05,-2.49145e-05,1.9671e-05
1264,3.94006e-06,-1.98573e-06,4.92226e-05,5.79308e-05,-2.36142e-05,1.82714e-05
1265,2.4312e-06,-5.9585e-06,4.81402e-05,5.81795e-05,-2.2161e-05,1.75594e-05
1266,3.69803e-06,-9.29242e-06,4.34343e-05,5.53665e-05,-2.26604e-05,1.74233e-05
1267,5.99217e-06,-9.02268e-06,4.01109e-05,5.03346e-05,-2.4984e-05,1.72517e-05
1268,3.60632e-06,-6.5826e-06,3.74149e-05,4.76265e-05,-2.69464e-05,1.57579e-05
1269,-5.36756e-06,-8.09852e-06,3.27088e-05,4.85363e-05,-2.74972e-05,1.28652e-05
1270,-9.81583e-06,-1.13009e-05,3.20214e-05,4.91029e-05,-2.80084e-05,1.01959e-05
1271,-3.79974e-06,-1.10187e-05,3.72208e-05,4.65752e-05,-2.89097e-05,9.81158e-06
1272,3.6586e-06,-8.20186e-06,4.14957e-05,4.43719e-05,-2.79691e-05,1.1664e-05
1273,6.40193e-06,-3.08476e-06,4.22726e-05,4.64661e-05,-2.43982e-05,1.36519e-05
1274,3.14531e-06,3.017e-06,4.17469e-05,5.06162e-05,-1.98582e-05,1.42321e-05
1275,-7.16839e-06,5.71167e-06,4.02391e-05,5.27812e-05,-1.61437e-05,1.35279e-05
1276,-1.55411e-05,3.70255e-06,3.85067e-05,5.18206e-05,-1.41822e-05,1.38433e-05
1277,-1.3085e-05,8.00497e-08,3.77494e-05,4.83045e-05,-1.3282e-05,1.57625e-05
1278,-5.05662e-06,-1.78711e-06,3.62895e-05,4.46965e-05,-1.30983e-05,1.63212e-05
1279,-1.54048e-06,5.64112e-07,3.42591e-05,4.34549e-05,-1.51002e-05,1.27233e-05
1280,-5.84125e-06,6.71485e-06,3.56932e-05,4.52349e-05,-1.91253e-05,6.80893e-06
1281,-1.51978e-05,1.22208e-05,3.90673e-05,4.95266e-05,-2.11945e-05,3.52805e-06
1282,-2.03904e-05,1.33417e-05,4.0947e-05,5.47566e-05,-1.71851e-05,4.84537e-06
1283,-1.45546e-05,1.27588e-05,4.37834e-05,5.76341e-05,-8.70857e-06,6.84102e-06
1284,-4.3601e-06,1.55533e-05,4.62641e-05,5.55324e-05,-1.27198e-06,6.05539e-06
1285,8.12026e-07,2.13554e-05,4.33759e-05,5.12996e-05,2.57791e-06,4.83799e-06
1286,-7.50416e-07,2.50507e-05,3.89498e-05,4.94209e-05,3.97593e-06,6.87488e-06
1287,-1.12379e-05,2.31013e-05,3.7677e-05,4.99835e-05,5.31434e-06,1.08589e-05
1288,-2.46744e-05,1.75906e-05,3.8519e-05,5.06836e-05,6.52395e-06,1.35138e-05
1289,-2.40812e-05,1.45814e-05,4.19967e-05,4.78955e-05,4.03352e-06,1.48476e-05
1290,-1.48918e-05,1.62432e-05,4.61704e-05,4.21801e-05,-8.76914e-08,1.44902e-05
1291,-1.33671e-05,1.91193e-05,4.81814e-05,3.91035e-05,1.40631e-06,1.18872e-05
1292,-1.73371e-05,2.06481e-05,4.74072e-05,4.00278e-05,8.18571e-06,9.64117e-06
1293,-2.07119e-05,2.13257e-05,4.39068e-05,4.211e-05,1.40836e-05,9.11094e-06
1294,-2.23768e-05,2.32518e-05,4.04827e-05,4.13999e-05,1.49913e-05,9.74597e-06
1295,-2.66104e-05,2.64169e-05,3.97812e-05,3.86861e-05,1.13219e-05,1.10566e-05
1296,-3.63397e-05,2.61698e-05,4.10851e-05,3.73232e-05,7.32477e-06,1.12542e-05
1297,-3.87207e-05,2.13128e-05,4.28837e-05,3.78771e-05,3.94292e-06,1.08132e-05
1298,-2.32793e-05,1.78754e-05,4.47661e-05,3.98544e-05,-6.81776e-07,1.11409e-05
1299,-1.71769e-06,1.78688e-05,4.5275e-05,4.20074e-05,-5.34513e-06,1.22333e-05
1300,1.06954e-05,1.9061e-05,4.45832e-05,4.3783e-05,-8.97273e-06,1.43157e-05
1301,8.36261e-06,1.93926e-05,4.27779e-05,4.52769e-05,-1.22871e-05,1.59954e-05
1302,-5.89631e-06,1.6119e-05,3.79266e-05,4.69988e-05,-1.48884e-05,1.57446e-05
1303,-1.97294e-05,1.09124e-05,3.36336e-05,4.77505e-05,-1.46963e-05,1.5705e-05
1304,-2.30598e-05,8.27194e-06,3.42882e-05,4.66954e-05,-1.13248e-05,1.71972e-05
1305,-1.8372e-05,8.16343e-06,3.73233e-05,4.57754e-05,-8.0569e-06,1.69824e-05
1306,-1.48995e-05,8.39628e-06,3.85617e-05,4.62885e-05,-9.0872e-06,1.34141e-05
1307,-1.84596e-05,7.83047e-06,3.66296e-05,4.75974e-05,-1.46757e-05,9.68141e-06
1308,-2.91881e-05,5.20511e-06,3.11522e-05,5.03551e-05,-2.00706e-05,7.95623e-06
1309,-3.7613e-05,9.5826e-07,2.5657e-05,5.49617e-05,-2.18985e-05,7.29806e-06
1310,-3.31658e-05,-5.63464e-07,2.54554e-05,5.84502e-05,-2.21937e-05,5.76314e-06
1311,-2.23667e-05,2.74132e-06,2.87405e-05,5.88578e-05,-2.24403e-05,2.2767e-06
1312,-1.92733e-05,7.49238e-06,2.96373e-05,5.7465e-05,-2.20785e-05,-1.10088e-06
1313,-2.53866e-05,1.09881e-05,2.61308e-05,5.72249e-05,-2.12922e-05,-1.52292e-06
1314,-3.49085e-05,1.19082e-05,2.1005e-05,5.9254e-05,-2.06089e-05,8.27841e-07
1315,-3.63131e-05,1.08099e-05,1.89311e-05,5.98496e-05,-2.18405e-05,3.57646e-06
1316,-1.64345e-05,1.12169e-05,2.36665e-05,5.8762e-05,-2.51803e-05,7.2418e-06
1317,7.45388e-06,1.21475e-05,3.0186e-05,5.81962e-05,-2.70534e-05,1.14268e-05
1318,1.36861e-05,1.16485e-05,3.0717e-05,5.59151e-05,-2.59672e-05,1.2528e-05
1319,1.22336e-05,1.22892e-05,2.88757e-05,5.15943e-05,-2.32688e-05,1.1319e-05
1320,1.2317e-05,1.37054e-05,2.82085e-05,4.82858e-05,-2.02505e-05,1.19327e-05
1321,1.22344e-05,1.41976e-05,2.76201e-05,4.89161e-05,-1.93586e-05,1.44803e-05
1322,7.46501e-06,1.25374e-05,2.80668e-05,5.31168e-05,-1.91469e-05,1.51188e-05
1323,-3.69699e-06,6.96665e-06,2.8971e-05,5.8989e-05,-1.54449e-05,1.4721e-05
1324,-1.13732e-05,1.64822e-06,3.06873e-05,6.33762e-05,-1.07845e-05,1.61209e-05
1325,-6.86753e-06,1.81896e-06,3.53537e-05,6.44777e-05,-9.71171e-06,1.79045e-05
1326,4.91243e-06,5.48935e-06,4.10238e-05,6.3559e-05,-1.14784e-05,1.83057e-05
1327,1.36885e-05,9.47879e-06,4.37303e-05,6.12885e-05,-1.29947e-05,1.75151e-05
1328,1.34568e-05,1.18236e-05,4.18483e-05,5.9079e-05,-1.17642e-05,1.61519e-05
1329,5.06038e-06,9.7999e-06,3.65704e-05,5.79449e-05,-8.46314e-06,1.49453e-05
1330,-5.57373e-07,5.04854e-06,3.24041e-05,5.6826e-05,-6.25681e-06,1.50852e-05
1331,5.1606e-06,2.45892e-06,3.24358e-05,5.46568e-05,-6.49837e-06,1.64006e-05
1332,1.64204e-05,2.62579e-06,3.36168e-05,5.20845e-05,-9.42387e-06,1.7799e-05
1333,2.27618e-05,4.01545e-06,3.23659e-05,5.02264e-05,-1.51e-05,1.8506e-05
1334,2.0051e-05,5.99737e-06,3.02771e-05,5.03125e-05,-2.02771e-05,1.8497e-05
1335,8.595e-06,5.1859e-06,2.8784e-05,5.32516e-05,-2.09303e-05,1.80585e-05
1336,-1.95141e-06,-9.4313e-08,2.84598e-05,5.60276e-05,-1.7524e-05,1.79383e-05
1337,5.55535e-07,-4.30581e-06,3.09637e-05,5.44344e-05,-1.49392e-05,1.83923e-05
1338,1.11367e-05,-2.89189e-06,3.34168e-05,5.09572e-05,-1.64459e-05,1.78794e-05
1339,1.46607e-05,4.23948e-06,3.17786e-05,5.064e-05,-1.90004e-05,1.52084e-05
1340,4.86078e-06,1.43943e-05,2.80107e-05,5.22342e-05,-1.76352e-05,1.31589e-05
1341,-1.53306e-05,2.17941e-05,2.42629e-05,5.16469e-05,-1.37267e-05,1.35979e-05
1342,-3.30032e-05,2.12762e-05,2.15579e-05,4.88455e-05,-1.41917e-05,1.47166e-05
1343,-3.13074e-05,1.4511e-05,2.29291e-05,4.64378e-05,-1.91524e-05,1.65368e-05
1344,-1.893e-05,9.53387e-06,2.53396e-05,4.50142e-05,-2.28022e-05,1.82381e-05
1345,-1.38195e-05,8.51314e-06,2.54831e-05,4.20837e-05,-2.36659e-05,1.91173e-05
1346,-1.24665e-05,6.85263e-06,2.67638e-05,3.78607e-05,-2.17884e-05,2.01538e-05
1347,-1.08164e-05,4.24358e-06,2.90751e-05,3.37149e-05,-1.69089e-05,1.92986e-05
1348,-1.05477e-05,3.09093e-06,2.99996e-05,3.1846e-05,-1.16532e-05,1.60682e-05
1349,-1.50291e-05,2.40644e-06,2.83897e-05,3.40987e-05,-8.09936e-06,1.25964e-05
1350,-2.55735e-05,-1.30619e-06,2.47138e-05,3.684e-05,-5.43502e-06,1.16081e-05
1351,-2.9131e-05,-5.72646e-06,2.24463e-05,3.84457e-05,-1.84347e-06,1.49254e-05
1352,-1.80242e-05,-4.93451e-06,2.36028e-05,4.02064e-05,2.6682e-06,1.99213e-05
1353,-4.39419e-06,-3.15105e-07,2.56829e-05,4.21888e-05,6.33849e-06,2.38108e-05
1354,4.42102e-07,3.2993e-06,2.57696e-05,4.33307e-05,7.46513e-06,2.49943e-05
1355,-2.36634e-06,2.90407e-06,2.31212e-05,4.43413e-05,4.03173e-06,2.31366e-05
1356,-7.67618e-06,-1.2414e-06,1.97607e-05,4.57059e-05,-1.93998e-06,2.056e-05
1357,-7.87945e-06,-3.84668e-06,2.03991e-05,4.605e-05,-5.19105e-06,1.94639e-05
1358,1.60522e-06,-1.04586e-06,2.49394e-05,4.57184e-05,-5.4905e-06,1.96593e-05
1359,1.39374e-05,3.73957e-06,2.86445e-05,4.65524e-05,-6.38259e-06,1.99158e-05
1360,1.95011e-05,6.25429e-06,2.94398e-05,4.80912e-05,-7.08867e-06,1.90899e-05
1361,1.66109e-05,5.87628e-06,2.9349e-05,4.77058e-05,-4.29019e-06,1.63953e-05
1362,6.17168e-06,3.88751e-06,3.05125e-05,4.53994e-05,4.48508e-07,1.30244e-05
1363,-5.02079e-06,1.5451e-06,3.45476e-05,4.29351e-05,3.51603e-06,1.17814e-05
1364,-5.6069e-06,1.17649e-06,4.19124e-05,4.13817e-05,4.66786e-06,1.36351e-05
1365,4.30753e-07,4.218e-06,5.02013e-05,4.14434e-05,6.26222e-06,1.68508e-05
1366,3.80696e-07,9.5007e-06,5.73082e-05,4.16832e-05,8.02577e-06,1.89417e-05
1367,-6.79815e-06,1.3843e-05,6.14263e-05,4.06238e-05,7.2406e-06,1.78987e-05
1368,-1.88251e-05,1.4797e-05,5.97486e-05,3.97141e-05,5.68214e-06,1.40307e-05
1369,-2.98553e-05,1.42826e-05,5.64566e-05,3.85452e-05,5.07865e-06,1.06742e-05
1370,-2.56846e-05,1.66275e-05,5.94037e-05,3.47858e-05,2.0322e-06,1.01507e-05
1371,-1.35624e-05,2.33671e-05,6.37153e-05,2.9416e-05,-3.02378e-06,1.04606e-05
1372,-1.10689e-05,3.10312e-05,6.12693e-05,2.74015e-05,-6.11464e-06,8.94972e-06
1373,-1.47075e-05,3.50774e-05,5.80193e-05,2.91558e-05,-6.85766e-06,6.95716e-06
1374,-1.75084e-05,3.49739e-05,5.91778e-05,3.08899e-05,-6.51072e-06,7.36081e-06
1375,-1.86242e-05,3.58814e-05,5.86026e-05,3.22078e-05,-4.85463e-06,9.25702e-06
1376,-2.3675e-05,3.96949e-05,5.37077e-05,3.4167e-05,-2.04358e-07,9.93736e-06
1377,-3.4844e-05,4.09765e-05,4.79826e-05,3.71416e-05,5.93084e-06,8.71495e-06
1378,-3.77395e-05,3.76743e-05,4.48542e-05,3.97184e-05,8.50876e-06,7.73585e-06
1379,-2.41455e-05,3.41287e-05,4.48947e-05,4.12311e-05,5.66085e-06,9.0844e-06
1380,-6.4931e-06,3.30318e-05,4.51058e-05,4.13322e-05,2.10767e-07,1.04457e-05
1381,2.73004e-06,3.3341e-05,4.28582e-05,3.84629e-05,-3.73231e-06,9.61375e-06
1382,1.39912e-06,3.22583e-05,3.70459e-05,3.52748e-05,-4.48834e-06,7.99086e-06
1383,-7.74125e-06,2.77434e-05,2.87288e-05,3.69594e-05,-3.5649e-06,7.12395e-06
1384,-1.35172e-05,2.25758e-05,2.36246e-05,4.40013e-05,-3.68697e-06,8.06341e-06
1385,-7.55043e-06,2.12783e-05,2.60036e-05,5.13587e-05,-5.64467e-06,1.07582e-05
1386,3.5269e-06,2.28186e-05,3.1379e-05,5.56123e-05,-7.43452e-06,1.26936e-05
1387,9.75556e-06,2.34242e-05,3.37341e-05,5.81591e-05,-7.58522e-06,1.19868e-05
1388,9.54918e-06,2.15542e-05,3.37865e-05,6.02978e-05,-6.6242e-06,1.00027e-05
1389,3.36119e-06,1.76594e-05,3.41445e-05,6.14194e-05,-6.05451e-06,7.61971e-06
1390,-4.04102e-06,1.22249e-05,3.54469e-05,6.16622e-05,-6.85919e-06,4.86034e-06
1391,-3.61951e-06,7.50069e-06,3.81553e-05,6.3045e-05,-8.32207e-06,4.09903e-06
1392,2.78642e-06,6.69903e-06,4.15489e-05,6.65783e-05,-8.97896e-06,6.25726e-06
1393,7.05126e-06,9.05183e-06,4.38501e-05,7.03828e-05,-8.28014e-06,8.32799e-06
1394,6.1143e-06,1.13117e-05,4.32246e-05,7.21229e-05,-5.6552e-06,8.24951e-06
1395,-2.57944e-06,1.14109e-05,3.81611e-05,7.17915e-05,-1.31466e-06,6.24923e-06
1396,-1.09461e-05,9.98932e-06,3.33389e-05,7.0271e-05,1.62687e-06,3.95274e-06
1397,-2.86652e-06,1.0069e-05,3.7444e-05,6.71956e-05,1.05355e-06,4.97089e-06
1398,1.08565e-05,1.29449e-05,4.31598e-05,6.24096e-05,-1.51163e-06,9.51257e-06
1399,1.0635e-05,1.63789e-05,4.06874e-05,5.92037e-05,-3.91167e-06,1.25753e-05
1400,3.23624e-06,1.68696e-05,3.7126e-05,6.06796e-05,-4.58642e-06,1.32979e-05
1401,-1.01546e-06,1.5246e-05,3.64597e-05,6.32313e-05,-3.4022e-06,1.45472e-05
1402,-2.49321e-06,1.63437e-05,3.57497e-05,6.28762e-05,-2.31581e-06,1.68946e-05
1403,-6.0362e-06,2.00089e-05,3.32497e-05,6.14029e-05,-3.38046e-06,1.96538e-05
1404,-1.52043e-05,2.07226e-05,3.12652e-05,6.12939e-05,-7.19052e-06,2.1238e-05
1405,-2.09412e-05,1.795e-05,3.43517e-05,6.11818e-05,-1.16422e-05,2.02967e-05
1406,-1.51314e-05,1.75299e-05,4.10416e-05,6.00216e-05,-1.19037e-05,1.74721e-05
1407,-4.70921e-06,2.03842e-05,4.50716e-05,5.80651e-05,-6.22326e-06,1.35509e-05
1408,1.3244e-06,2.31444e-05,4.51744e-05,5.48158e-05,-1.07843e-08,6.87921e-06
1409,-1.31145e-06,2.4974e-05,4.49056e-05,5.12342e-05,1.39803e-06,-2.14386e-06
1410,-1.26642e-05,2.55236e-05,4.46203e-05,4.96842e-05,6.24196e-07,-8.83596e-06
1411,-2.09421e-05,2.34337e-05,4.4063e-05,5.1263e-05,1.50463e-06,-1.06422e-05
1412,-1.56376e-05,1.92862e-05,4.47207e-05,5.35373e-05,2.93099e-06,-9.24826e-06
1413,-4.04323e-06,1.53876e-05,4.63249e-05,5.2975e-05,3.0249e-06,-6.711e-06
1414,5.18186e-07,1.48083e-05,4.65353e-05,4.83431e-05,2.56174e-06,-4.69407e-06
1415,-5.44495e-06,1.70348e-05,4.46e-05,4.35549e-05,3.73303e-06,-3.45567e-06
1416,-1.70915e-05,1.67594e-05,4.21775e-05,4.26465e-05,6.17124e-06,-2.2297e-06
1417,-2.38701e-05,1.21715e-05,4.31761e-05,4.46155e-05,8.13556e-06,-2.06418e-06
1418,-1.79395e-05,8.92496e-06,4.78975e-05,4.55799e-05,9.31226e-06,-3.29751e-06
1419,-6.51648e-06,1.17667e-05,4.77701e-05,4.24287e-05,1.00211e-05,-1.92109e-06
1420,-5.17925e-07,1.8417e-05,3.90819e-05,3.68249e-05,1.04757e-05,4.65571e-06
1421,-1.65378e-06,2.32496e-05,3.01956e-05,3.38935e-05,8.75676e-06,1.14666e-05
1422,-1.11954e-05,2.09703e-05,2.6288e-05,3.66342e-05,3.46567e-06,1.19889e-05
1423,-2.38016e-05,1.17197e-05,2.58e-05,4.29233e-05,-1.65393e-06,6.90076e-06
1424,-2.27433e-05,4.13952e-06,3.03719e-05,4.83067e-05,-2.2808e-06,3.10543e-06
1425,-1.12991e-05,6.12528e-06,3.79298e-05,4.95754e-05,1.72181e-06,2.40605e-06
1426,-5.66266e-06,1.25263e-05,4.04333e-05,4.6608e-05,6.70045e-06,2.05083e-06
1427,-4.21111e-06,1.39982e-05,3.86268e-05,4.32763e-05,1.04561e-05,2.24091e-06
1428,-4.03951e-06,1.33044e-05,3.83672e-05,4.14755e-05,1.1075e-05,3.00379e-06
1429,-7.72729e-06,1.64936e-05,4.02203e-05,3.93275e-05,6.5677e-06,4.7115e-06
1430,-1.63404e-05,2.12097e-05,4.03901e-05,3.71055e-05,-9.14244e-07,7.73543e-06
1431,-2.94481e-05,2.22626e-05,3.96478e-05,3.79727e-05,-8.23486e-06,1.04534e-05
1432,-3.61133e-05,1.98651e-05,4.29351e-05,4.07616e-05,-1.37065e-05,1.2115e-05
1433,-2.84132e-05,1.8062e-05,4.73316e-05,4.10893e-05,-1.67099e-05,1.2905e-05
1434,-1.69406e-05,1.80484e-05,4.7124e-05,4.02777e-05,-1.73868e-05,1.24005e-05
1435,-1.44186e-05,2.05693e-05,4.41591e-05,4.20314e-05,-1.62821e-05,1.0849e-05
1436,-1.99152e-05,2.41163e-05,4.40546e-05,4.77446e-05,-1.38921e-05,9.66749e-06
1437,-2.55724e-05,2.3927e-05,4.56794e-05,5.56802e-05,-1.16599e-05,8.21289e-06
1438,-2.50793e-05,2.00816e-05,4.48921e-05,6.21103e-05,-1.16671e-05,5.44088e-06
1439,-1.75506e-05,1.78059e-05,4.24377e-05,6.44488e-05,-1.47162e-05,2.05448e-06
1440,-8.29075e-06,1.90814e-05,3.99412e-05,6.40083e-05,-1.80075e-05,-1.0637e-06
1441,-3.42102e-06,2.18236e-05,3.66385e-05,6.23058e-05,-1.92349e-05,-3.54983e-06
1442,-4.15058e-06,2.38403e-05,3.21636e-05,6.01994e-05,-1.99258e-05,-5.11879e-06
1443,-9.66442e-06,2.2972e-05,2.72652e-05,6.02258e-05,-2.1747e-05,-3.32027e-06
1444,-1.4479e-05,1.83148e-05,2.41381e-05,6.30499e-05,-2.4188e-05,4.02145e-06
1445,-9.83322e-06,1.13765e-05,2.53116e-05,6.45065e-05,-2.60115e-05,1.29084e-05
1446,1.49765e-06,4.29511e-06,2.80333e-05,6.31598e-05,-2.70369e-05,1.76838e-05
1447,8.56014e-06,1.15409e-06,2.78312e-05,6.27975e-05,-2.75903e-05,1.87529e-05
1448,6.96052e-06,4.49885e-06,2.6579e-05,6.34493e-05,-2.9559e-05,1.96797e-05
1449,-1.51321e-06,8.09651e-06,2.71214e-05,6.36605e-05,-3.49795e-05,2.11514e-05
1450,-6.93686e-06,5.2496e-06,2.95081e-05,6.43765e-05,-4.10308e-05,2.24193e-05
1451,2.28619e-06,-7.13404e-07,3.23875e-05,6.58144e-05,-4.48629e-05,2.49536e-05
1452,1.36007e-05,-2.02422e-06,3.05988e-05,6.71788e-05,-4.54354e-05,2.83978e-05
1453,1.13912e-05,1.28357e-06,2.46943e-05,6.81807e-05,-4.0575e-05,2.84356e-05
1454,4.53252e-06,4.50598e-06,2.1889e-05,6.78913e-05,-3.37093e-05,2.39229e-05
1455,2.49951e-06,5.81524e-06,2.28501e-05,6.5142e-05,-2.93152e-05,1.82078e-05
1456,4.43652e-06,4.93459e-06,2.36066e-05,6.08109e-05,-2.63179e-05,1.48957e-05
1457,3.49352e-06,3.43459e-06,2.32125e-05,5.8538e-05,-2.3372e-05,1.44267e-05
1458,-5.58144e-06,1.73634e-06,2.2637e-05,6.10736e-05,-1.99775e-05,1.46479e-05
1459,-1.30894e-05,-7.92534e-07,2.46248e-05,6.61343e-05,-1.6256e-05,1.63513e-05
1460,-8.92541e-06,-3.90111e-06,2.94365e-05,6.90884e-05,-1.48161e-05,1.96835e-05
1461,-6.9362e-07,-7.17939e-06,3.22245e-05,6.5603e-05,-1.64245e-05,2.14284e-05
1462,1.70963e-06,-7.235e-06,3.20187e-05,5.6807e-05,-1.79532e-05,2.04439e-05
1463,-1.57103e-06,-3.3057e-06,3.1396e-05,4.94727e-05,-1.67872e-05,1.81143e-05
1464,-7.65007e-06,-1.65399e-06,3.19281e-05,4.64206e-05,-1.33381e-05,1.48381e-05
1465,-8.55722e-06,-5.38927e-06,3.5204e-05,4.66047e-05,-9.2019e-06,1.14743e-05
1466,2.28865e-06,-9.81641e-06,4.08445e-05,4.79973e-05,-6.2035e-06,1.0089e-05
1467,1.73125e-05,-8.83048e-06,4.4185e-05,4.82239e-05,-5.7727e-06,1.085e-05
1468,2.50935e-05,-1.12432e-06,4.04835e-05,4.58002e-05,-6.57593e-06,1.1794e-05
1469,2.33492e-05,8.71389e-06,3.10106e-05,4.33594e-05,-6.59482e-06,1.1598e-05
1470,1.38269e-05,1.55774e-05,2.22402e-05,4.61597e-05,-6.33303e-06,1.0211e-05
1471,4.04391e-06,1.73868e-05,2.17777e-05,5.37612e-05,-6.40202e-06,8.3985e-06
1472,4.58444e-06,1.66926e-05,2.98803e-05,5.80429e-05,-5.04943e-06,8.58797e-06
1473,1.23056e-05,1.84031e-05,3.65994e-05,5.52121e-05,-2.99356e-06,1.15688e-05
1474,1.46182e-05,2.54448e-05,3.57756e-05,4.9605e-05,-2.34102e-06,1.47908e-05
1475,6.80803e-06,3.63099e-05,3.27481e-05,4.54439e-05,-2.35731e-06,1.72252e-05
1476,-8.96769e-06,4.43115e-05,3.18496e-05,4.48439e-05,-2.34377e-06,1.97166e-05
1477,-2.33247e-05,4.42377e-05,3.11308e-05,4.67015e-05,-2.35484e-06,2.11356e-05
1478,-2.31345e-05,4.1076e-05,3.05344e-05,4.77153e-05,-1.79359e-06,2.06086e-05
1479,-1.72106e-05,4.2702e-05,3.10917e-05,4.49643e-05,-2.36059e-06,1.82233e-05
1480,-1.89551e-05,4.506e-05,3.42584e-05,3.88166e-05,-5.87685e-06,1.5408e-05
1481,-2.13206e-05,3.972e-05,3.95142e-05,3.31195e-05,-9.02556e-06,1.54503e-05
1482,-1.83747e-05,2.97429e-05,4.19884e-05,2.99192e-05,-9.37396e-06,1.69285e-05
1483,-1.39445e-05,2.46408e-05,4.07148e-05,2.89092e-05,-7.00468e-06,1.66811e-05
1484,-1.62764e-05,2.38417e-05,3.74659e-05,3.04121e-05,-2.09278e-06,1.58257e-05
1485,-2.85866e-05,1.83508e-05,3.41515e-05,3.28644e-05,3.29874e-06,1.48741e-05
1486,-3.72147e-05,7.72642e-06,3.50961e-05,3.32393e-05,7.19818e-06,1.40511e-05
1487,-3.07952e-05,-4.19624e-07,4.13328e-05,3.24309e-05,8.58705e-06,1.49705e-05
1488,-1.83598e-05,-1.19344e-06,4.68705e-05,3.15612e-05,7.89018e-06,1.69273e-05
1489,-1.00136e-05,4.5632e-06,4.67691e-05,2.95623e-05,7.27932e-06,1.81541e-05
1490,-7.10543e-06,1.06069e-05,4.18064e-05,2.91635e-05,6.38764e-06,1.81627e-05
1491,-9.08341e-06,1.04375e-05,3.47404e-05,3.2663e-05,3.44132e-06,1.7194e-05
1492,-1.06507e-05,4.20047e-06,3.04833e-05,3.7402e-05,-4.29654e-07,1.59071e-05
1493,-5.0232e-06,-1.79317e-06,3.36399e-05,4.00334e-05,-3.32765e-06,1.53451e-05
1494,6.86249e-06,-2.00835e-06,4.04827e-05,4.02826e-05,-5.41773e-06,1.70106e-05
1495,1.67642e-05,4.17732e-06,4.15868e-05,3.98514e-05,-7.27434e-06,2.04451e-05
1496,1.58324e-05,1.22991e-05,3.39068e-05,3.96626e-05,-8.20774e-06,2.26509e-05
1497,2.07049e-07,1.56705e-05,2.45421e-05,4.02994e-05,-7.79163e-06,2.1404e-05
1498,-1.80961e-05,1.16614e-05,2.30639e-05,4.29687e-05,-6.28047e-06,1.79806e-05
1499,-2.15579e-05,5.5499e-06,3.01518e-05,4.80304e-05,-5.97488e-06,1.64496e-05
1500,-1.44761e-05,3.15695e-06,3.64283e-05,5.29415e-05,-8.27086e-06,1.81266e-05
1501,-1.27279e-05,4.96496e-06,3.54294e-05,5.25586e-05,-1.04224e-05,2.00043e-05
1502,-1.93684e-05,7.97247e-06,3.1056e-05,4.73785e-05,-9.80451e-06,2.06086e-05
1503,-3.18053e-05,5.78359e-06,2.85403e-05,4.5394e-05,-7.50073e-06,2.04442e-05
1504,-4.05314e-05,-4.71634e-06,2.96783e-05,4.84325e-05,-6.52064e-06,1.939e-05
1505,-3.21155e-05,-1.6144e-05,3.377e-05,5.23339e-05,-6.4644e-06,1.76539e-05
1506,-1.80183e-05,-1.94622e-05,3.57615e-05,5.51893e-05,-5.7605e-06,1.55408e-05
1507,-1.46127e-05,-1.69709e-05,3.44298e-05,5.69548e-05,-6.93291e-06,1.32803e-05
1508,-1.5596e-05,-1.67881e-05,3.45016e-05,5.91004e-05,-8.90703e-06,1.08931e-05
1509,-1.48551e-05,-1.82858e-05,3.45516e-05,6.08601e-05,-7.89738e-06,7.85993e-06
1510,-1.32833e-05,-1.55463e-05,3.06902e-05,6.11206e-05,-5.2588e-06,5.20313e-06
1511,-1.42075e-05,-8.67181e-06,2.4589e-05,6.08674e-05,-4.36564e-06,5.70518e-06
1512,-2.31951e-05,-1.46434e-06,1.99644e-05,6.17545e-05,-6.59436e-06,8.2351e-06
1513,-3.27228e-05,6.78145e-06,2.02563e-05,6.42618e-05,-9.66492e-06,9.33684e-06
1514,-2.90818e-05,1.59486e-05,2.56175e-05,6.57592e-05,-1.01939e-05,8.81618e-06
1515,-1.61975e-05,2.25858e-05,3.17593e-05,6.41197e-05,-8.81336e-06,7.82902e-06
1516,-7.88095e-06,2.67415e-05,3.5172e-05,5.99793e-05,-1.07102e-05,7.03328e-06
1517,-1.18569e-05,2.99181e-05,3.36261e-05,5.74255e-05,-1.58764e-05,5.63401e-06
1518,-2.52761e-05,3.07145e-05,2.82963e-05,5.88471e-05,-1.96397e-05,2.94068e-06
1519,-3.19514e-05,2.81921e-05,2.64227e-05,6.23653e-05,-2.03216e-05,1.21897e-06
1520,-1.9829e-05,2.54712e-05,3.18121e-05,6.45861e-05,-1.97919e-05,2.81943e-06
1521,1.42458e-06,2.46106e-05,3.93605e-05,6.37789e-05,-1.97016e-05,6.9222e-06
1522,1.39284e-05,2.51461e-05,4.18514e-05,6.06979e-05,-1.83543e-05,1.07394e-05
1523,1.15373e-05,2.57328e-05,3.88296e-05,5.7299e-05,-1.48675e-05,1.21754e-05
1524,-2.1862e-06,2.46542e-05,3.46685e-05,5.40304e-05,-1.18921e-05,1.11847e-05
1525,-1.61799e-05,2.10913e-05,3.35755e-05,4.98347e-05,-1.14738e-05,9.92584e-06
1526,-1.69256e-05,1.73177e-05,3.64e-05,4.67843e-05,-1.35941e-05,1.06233e-05
1527,-6.2394e-06,1.53984e-05,3.86788e-05,4.78594e-05,-1.7598e-05,1.196e-05
1528,1.2565e-06,1.60008e-05,3.74138e-05,5.10112e-05,-2.08214e-05,1.15284e-05
1529,-1.05668e-06,1.95901e-05,3.59857e-05,5.20836e-05,-2.16663e-05,1.02792e-05
1530,-1.18293e-05,2.24552e-05,3.66636e-05,5.06425e-05,-2.02539e-05,8.54245e-06
1531,-2.21711e-05,2.05869e-05,3.89154e-05,4.75612e-05,-1.88102e-05,5.57073e-06
1532,-1.85073e-05,1.59076e-05,4.21543e-05,4.53479e-05,-2.04625e-05,3.57021e-06
1533,-6.62052e-06,1.27372e-05,4.31643e-05,4.72825e-05,-2.35382e-05,3.48175e-06
1534,-8.05347e-08,1.17023e-05,4.26914e-05,5.23539e-05,-2.4579e-05,5.21665e-06
1535,3.67897e-06,1.12809e-05,4.46014e-05,5.66291e-05,-2.28369e-05,8.09316e-06
1536,6.32998e-06,1.18245e-05,4.65943e-05,5.78994e-05,-1.92596e-05,8.84712e-06
1537,5.60305e-06,1.36611e-05,4.77319e-05,5.69471e-05,-1.5839e-05,7.60598e-06
1538,2.08565e-06,1.64632e-05,4.76853e-05,5.57068e-05,-1.35879e-05,6.80789e-06
1539,-3.67166e-06,1.90981e-05,4.45983e-05,5.42284e-05,-1.17768e-05,6.93019e-06
1540,-3.2686e-06,2.04415e-05,4.41762e-05,5.23384e-05,-1.2441e-05,7.84921e-06
1541,7.92368e-06,2.13141e-05,4.97595e-05,5.15594e-05,-1.66835e-05,9.76372e-06
1542,1.95732e-05,2.08982e-05,5.59642e-05,5.13812e-05,-2.12567e-05,1.11899e-05
1543,2.24909e-05,1.76752e-05,5.75568e-05,4.96877e-05,-2.23405e-05,1.08868e-05
1544,1.6243e-05,1.23752e-05,5.42117e-05,4.56211e-05,-1.8608e-05,9.54958e-06
1545,4.53275e-06,6.78202e-06,4.86459e-05,4.1412e-05,-1.37624e-05,8.65234e-06
1546,-1.67595e-06,2.57673e-06,4.59736e-05,4.00495e-05,-1.22025e-05,1.05244e-05
1547,5.26778e-06,1.01332e-06,4.91246e-05,4.06965e-05,-1.3858e-05,1.44037e-05
1548,1.71208e-05,1.22435e-06,5.37385e-05,4.02854e-05,-1.60445e-05,1.73361e-05
1549,2.07288e-05,2.18413e-06,5.41653e-05,3.74718e-05,-1.71252e-05,1.76697e-05
1550,1.29248e-05,3.17802e-06,4.99019e-05,3.53109e-05,-1.64468e-05,1.63816e-05
1551,-2.82384e-06,1.7345e-06,4.36631e-05,3.80022e-05,-1.52606e-05,1.57331e-05
