Time_Index,DELTOID_Affected,DELTOID_NonAffected,BICEPS_Affected,BICEPS_NonAffected,FOREARM_Affected,FOREARM_NonAffected
1,-7.33358e-06,1.57498e-05,4.56943e-05,5.90527e-05,1.82421e-05,3.3081e-05
2,-1.79027e-06,1.20567e-05,4.79445e-05,5.6993e-05,2.36677e-05,3.90527e-05
3,-3.72259e-06,1.12041e-05,4.56233e-05,5.25151e-05,3.02572e-05,4.06272e-05
4,-1.13383e-05,1.26375e-05,3.94399e-05,4.95024e-05,3.0794e-05,3.87515e-05
5,-2.01757e-05,1.20309e-05,3.36677e-05,5.08166e-05,2.36535e-05,3.2782e-05
6,-2.21695e-05,7.77506e-06,3.47778e-05,5.49562e-05,1.29723e-05,2.71259e-05
7,-1.3802e-05,3.63048e-06,3.96264e-05,5.6959e-05,8.97931e-06,2.52085e-05
8,-3.23584e-06,3.75952e-06,4.06631e-05,5.51196e-05,1.62047e-05,2.6353e-05
9,1.2988e-06,4.38528e-06,3.73567e-05,5.15495e-05,2.47958e-05,2.79254e-05
10,-2.19235e-06,2.8222e-06,3.29358e-05,4.8512e-05,2.77499e-05,2.55277e-05
11,-9.81563e-06,2.56736e-06,2.91562e-05,4.69205e-05,2.57003e-05,1.84833e-05
12,-1.0846e-05,4.56547e-06,3.02727e-05,4.6901e-05,1.88994e-05,1.40889e-05
13,-3.81026e-06,6.98579e-06,3.51402e-05,4.91467e-05,1.30658e-05,1.5332e-05
14,-3.76493e-07,7.81445e-06,3.64108e-05,5.11458e-05,1.50757e-05,1.72874e-05
15,-3.64596e-06,4.18663e-06,3.3475e-05,4.84399e-05,2.21166e-05,1.78433e-05
16,-1.04946e-05,1.17273e-07,2.94071e-05,4.44286e-05,2.60909e-05,1.55945e-05
17,-2.25629e-05,-1.47265e-06,2.57183e-05,4.78087e-05,2.42567e-05,9.76866e-06
18,-2.69349e-05,-2.34242e-06,2.82702e-05,5.54061e-05,1.81631e-05,6.27858e-06
19,-1.60466e-05,-2.13323e-07,3.95062e-05,5.85011e-05,1.82752e-05,7.32743e-06
20,-7.42353e-06,1.23142e-06,4.77739e-05,5.62996e-05,2.81127e-05,1.04709e-05
21,-6.62909e-06,1.19217e-07,4.80014e-05,5.46818e-05,4.18407e-05,1.55673e-05
22,-6.03892e-06,4.04094e-06,4.49027e-05,5.49056e-05,5.02418e-05,1.94729e-05
23,-5.15576e-06,8.75483e-06,4.16683e-05,5.32547e-05,4.64039e-05,1.97254e-05
24,-4.44539e-06,9.55029e-06,4.04574e-05,5.10769e-05,3.73869e-05,1.77647e-05
25,-1.09433e-05,1.16725e-05,3.66037e-05,4.94617e-05,2.82855e-05,1.37094e-05
26,-1.88317e-05,1.88117e-05,3.18751e-05,4.98629e-05,1.88157e-05,1.05677e-05
27,-1.3211e-05,2.49139e-05,3.34781e-05,5.1078e-05,7.69723e-06,1.10204e-05
28,1.40391e-07,2.7003e-05,3.81402e-05,5.31542e-05,2.44572e-06,1.44417e-05
29,6.511e-06,2.6027e-05,3.96717e-05,5.45464e-05,9.34447e-06,1.6612e-05
30,4.00718e-06,2.27631e-05,3.88229e-05,5.23565e-05,1.96826e-05,1.52625e-05
31,-5.16959e-06,2.17544e-05,3.49533e-05,4.9048e-05,2.36794e-05,1.09538e-05
32,-1.37226e-05,2.46341e-05,3.03756e-05,4.84197e-05,2.11396e-05,7.05608e-06
33,-1.21235e-05,2.72299e-05,3.08804e-05,5.05571e-05,1.85544e-05,7.6976e-06
34,-1.23695e-06,2.41978e-05,3.63276e-05,5.36086e-05,1.97057e-05,1.02743e-05
35,7.60767e-06,1.89137e-05,3.98247e-05,5.73031e-05,2.43385e-05,8.14536e-06
36,7.96005e-06,1.51896e-05,3.804e-05,5.87686e-05,2.68919e-05,2.6432e-06
37,-1.49626e-07,1.29252e-05,3.25838e-05,5.69971e-05,2.65212e-05,2.78488e-07
38,-1.19155e-05,9.44053e-06,2.63963e-05,5.55911e-05,2.27494e-05,3.95841e-07
39,-1.27154e-05,4.59477e-06,2.46145e-05,5.72798e-05,1.6128e-05,3.12592e-06
40,-1.75959e-07,4.1368e-06,2.64545e-05,5.97574e-05,1.59723e-05,8.30897e-06
41,1.11993e-05,9.0453e-06,2.80347e-05,6.00051e-05,2.89384e-05,1.06667e-05
42,1.43452e-05,1.22484e-05,2.75489e-05,5.61038e-05,4.43189e-05,9.39056e-06
43,9.69393e-06,1.08738e-05,2.38846e-05,5.05128e-05,4.94757e-05,6.96623e-06
44,-1.75052e-06,7.84791e-06,2.1225e-05,4.97735e-05,4.46578e-05,1.66491e-06
45,-3.96455e-06,8.52676e-06,2.46723e-05,5.2717e-05,3.32291e-05,-1.88225e-07
46,6.8628e-06,8.77751e-06,2.98893e-05,5.4434e-05,2.39136e-05,3.69821e-06
47,1.14911e-05,6.49461e-06,2.89463e-05,5.43768e-05,2.86788e-05,5.00578e-06
48,1.06223e-05,7.59567e-06,2.64326e-05,5.46509e-05,3.97781e-05,5.03109e-06
49,1.28769e-05,8.71571e-06,2.99273e-05,5.56245e-05,4.03389e-05,7.33311e-06
50,1.26712e-05,7.21871e-06,3.48723e-05,5.30507e-05,2.96413e-05,1.14892e-05
51,8.32673e-06,6.38432e-06,3.68915e-05,4.83193e-05,1.57737e-05,1.52295e-05
52,-1.48285e-07,8.56124e-06,3.69829e-05,4.56913e-05,1.12782e-05,1.50258e-05
53,-7.0718e-06,1.16715e-05,3.95621e-05,4.72572e-05,1.39516e-05,1.02804e-05
54,-4.90509e-06,1.41456e-05,4.17236e-05,5.06877e-05,1.53159e-05,7.59919e-06
55,3.45326e-06,1.58602e-05,4.2261e-05,5.20649e-05,1.58932e-05,9.5597e-06
56,8.2488e-06,1.45017e-05,4.17714e-05,4.94342e-05,2.04355e-05,1.24896e-05
57,7.34277e-06,1.16434e-05,3.93512e-05,4.64823e-05,2.18528e-05,1.42392e-05
58,1.05788e-06,1.1563e-05,3.50087e-05,4.66347e-05,1.2064e-05,1.18713e-05
59,-7.37398e-06,1.53826e-05,3.20596e-05,4.90742e-05,-2.43503e-06,7.22646e-06
60,-1.02987e-05,1.96381e-05,3.32101e-05,5.12405e-05,-1.07258e-05,3.07754e-06
61,-5.02686e-06,2.00576e-05,3.58724e-05,5.15007e-05,-7.79001e-06,3.6377e-07
62,1.15714e-06,1.82673e-05,3.76275e-05,5.03132e-05,1.00037e-06,-7.9714e-07
63,1.0092e-06,1.88185e-05,3.77192e-05,4.69621e-05,5.93333e-06,1.41027e-06
64,-6.76502e-06,2.10023e-05,3.57924e-05,4.40489e-05,3.96491e-06,6.3468e-06
65,-1.71651e-05,2.07908e-05,3.17816e-05,4.48e-05,-2.01925e-06,1.07988e-05
66,-1.88784e-05,1.70215e-05,3.24678e-05,4.77545e-05,-9.32806e-06,1.47976e-05
67,-8.27426e-06,1.2007e-05,4.04053e-05,4.87085e-05,-9.52692e-06,1.7357e-05
68,3.1134e-06,1.0651e-05,4.85016e-05,4.81359e-05,1.9549e-06,1.46921e-05
69,5.73926e-06,1.16427e-05,5.05463e-05,4.50438e-05,1.39944e-05,1.0989e-05
70,-1.01914e-06,1.26208e-05,4.73337e-05,4.03798e-05,1.67876e-05,1.29923e-05
71,-1.62819e-05,1.42975e-05,4.11982e-05,3.98281e-05,1.69909e-05,1.87212e-05
72,-2.0667e-05,1.42778e-05,3.84578e-05,4.31274e-05,1.45806e-05,2.68138e-05
73,-6.962e-06,1.2865e-05,4.16324e-05,4.57103e-05,1.25295e-05,3.5327e-05
74,3.93024e-06,1.33594e-05,4.56417e-05,4.42642e-05,1.85179e-05,3.35865e-05
75,3.87514e-06,1.50611e-05,4.88862e-05,4.28817e-05,2.42765e-05,2.47191e-05
76,-6.82924e-07,1.43352e-05,5.13587e-05,4.55524e-05,2.51592e-05,1.94105e-05
77,-5.20235e-06,1.05012e-05,5.25579e-05,4.80908e-05,2.4619e-05,1.79713e-05
78,-7.06816e-06,8.32361e-06,5.16767e-05,4.80312e-05,2.3181e-05,1.77347e-05
79,-1.15076e-05,1.19559e-05,4.76033e-05,4.72889e-05,2.22406e-05,1.26094e-05
80,-1.84591e-05,1.73066e-05,4.49329e-05,5.03632e-05,2.11748e-05,7.81324e-06
81,-1.7609e-05,1.93285e-05,4.57595e-05,5.27161e-05,1.77499e-05,9.67539e-06
82,-8.96175e-06,1.71625e-05,4.61076e-05,5.25128e-05,1.87308e-05,1.58937e-05
83,-2.72345e-06,1.40675e-05,4.44484e-05,5.10655e-05,3.04274e-05,2.05419e-05
84,-1.51869e-06,1.422e-05,4.10571e-05,4.89239e-05,4.45373e-05,2.12543e-05
85,-5.31203e-06,1.59686e-05,3.56386e-05,4.76303e-05,5.22249e-05,1.65363e-05
86,-1.09515e-05,1.71808e-05,3.2047e-05,4.82944e-05,4.90356e-05,9.79839e-06
87,-1.28761e-05,1.62154e-05,3.36411e-05,5.08002e-05,4.10858e-05,7.5952e-06
88,-7.80303e-06,1.44007e-05,3.77778e-05,5.29583e-05,4.06797e-05,1.1132e-05
89,-1.4838e-07,1.38225e-05,3.92097e-05,5.30215e-05,5.13657e-05,1.64321e-05
90,2.40812e-06,1.49452e-05,3.68116e-05,4.97844e-05,6.15523e-05,1.88028e-05
91,-5.22926e-06,1.56771e-05,3.30786e-05,4.68251e-05,6.41389e-05,1.63622e-05
92,-1.88225e-05,1.55428e-05,3.21769e-05,4.6641e-05,6.20638e-05,1.04231e-05
93,-2.26221e-05,1.56268e-05,3.80372e-05,4.76924e-05,5.30826e-05,7.90284e-06
94,-1.13609e-05,1.50053e-05,4.64548e-05,4.67019e-05,4.03442e-05,1.14639e-05
95,1.20234e-06,1.33574e-05,4.8561e-05,4.53676e-05,3.86493e-05,1.56959e-05
96,1.94759e-06,1.07009e-05,4.43043e-05,4.48068e-05,4.83486e-05,1.51803e-05
97,-7.47694e-06,1.0523e-05,3.82828e-05,4.41934e-05,5.73079e-05,1.18582e-05
98,-2.09018e-05,1.35579e-05,3.21457e-05,4.54608e-05,5.96014e-05,8.48964e-06
99,-2.29284e-05,1.61491e-05,3.2343e-05,4.82292e-05,5.33909e-05,8.70652e-06
100,-8.94871e-06,1.6465e-05,3.80749e-05,4.7668e-05,4.76468e-05,1.20966e-05
101,-5.07285e-07,1.44665e-05,4.13148e-05,4.58731e-05,5.23114e-05,1.10288e-05
102,-2.69443e-08,1.07417e-05,4.17314e-05,4.75849e-05,6.20004e-05,9.30517e-06
103,9.45367e-07,6.63392e-06,4.18076e-05,5.18141e-05,6.32767e-05,1.18209e-05
104,7.21554e-07,4.71671e-06,4.32839e-05,5.39055e-05,6.06852e-05,1.29806e-05
105,1.13274e-08,4.80413e-06,4.42044e-05,5.23759e-05,5.84656e-05,9.55836e-06
106,-7.4046e-06,6.07459e-06,3.89879e-05,4.97921e-05,5.91352e-05,2.73426e-06
107,-1.54035e-05,8.23263e-06,3.34962e-05,4.88151e-05,5.98591e-05,1.78098e-06
108,-1.22881e-05,7.23749e-06,3.40444e-05,4.81472e-05,5.54481e-05,1.07245e-05
109,-1.49741e-06,4.28467e-06,3.76356e-05,4.78153e-05,5.19371e-05,2.19232e-05
110,4.72985e-06,1.72044e-06,4.05877e-05,4.79519e-05,5.40322e-05,2.72275e-05
111,4.455e-06,3.20204e-06,4.15167e-05,4.86413e-05,5.67909e-05,2.90746e-05
112,-1.05598e-06,9.37237e-06,3.8382e-05,5.05881e-05,5.32308e-05,2.83718e-05
113,-8.39357e-06,1.42323e-05,3.40102e-05,5.35967e-05,4.22809e-05,2.5639e-05
114,-1.00397e-05,1.3402e-05,3.53537e-05,5.58536e-05,3.00282e-05,2.38789e-05
115,-3.81073e-06,9.74339e-06,4.19906e-05,5.65829e-05,2.47721e-05,2.37142e-05
116,3.64146e-06,7.64241e-06,4.60738e-05,5.62905e-05,2.78575e-05,2.31639e-05
117,5.22782e-06,8.26453e-06,4.3643e-05,5.32136e-05,3.18987e-05,2.04381e-05
118,-1.59188e-06,9.32102e-06,3.77334e-05,5.01412e-05,3.02199e-05,1.52542e-05
119,-1.31735e-05,7.57623e-06,3.36256e-05,5.12309e-05,2.32489e-05,1.0273e-05
120,-1.58171e-05,5.10892e-06,3.64029e-05,5.47591e-05,1.16789e-05,1.21859e-05
121,-7.0911e-06,4.40827e-06,4.41395e-05,5.50109e-05,2.75535e-06,1.9824e-05
122,6.24251e-08,6.49433e-06,4.83248e-05,5.25377e-05,5.1432e-06,2.54809e-05
123,3.02723e-07,9.73497e-06,4.49356e-05,5.12549e-05,1.45225e-05,2.56092e-05
124,-2.35492e-06,1.14386e-05,3.86898e-05,5.37109e-05,1.922e-05,2.23822e-05
125,-1.28146e-05,1.25953e-05,3.30955e-05,5.88429e-05,1.65703e-05,1.66147e-05
126,-1.86631e-05,1.37582e-05,3.00065e-05,6.30375e-05,7.74488e-06,1.4293e-05
127,-9.7046e-06,1.36608e-05,3.26423e-05,6.25274e-05,5.55869e-07,1.83686e-05
128,-4.51731e-06,1.3376e-05,3.47628e-05,5.75224e-05,6.74953e-06,2.06046e-05
129,-5.51977e-06,1.4766e-05,3.39003e-05,5.58135e-05,1.69395e-05,1.64387e-05
130,-4.28e-06,1.7747e-05,3.37759e-05,5.91229e-05,2.01763e-05,1.18404e-05
131,-2.97916e-06,1.7392e-05,3.43676e-05,5.98772e-05,1.95874e-05,1.0555e-05
132,-3.52796e-06,1.47585e-05,3.57623e-05,5.64852e-05,1.816e-05,1.08978e-05
133,-1.09874e-05,1.2821e-05,3.23365e-05,5.31138e-05,2.02647e-05,5.09373e-06
134,-2.12831e-05,1.04631e-05,2.75697e-05,5.35307e-05,2.18868e-05,-4.45227e-06
135,-2.14205e-05,9.47438e-06,2.5715e-05,5.56011e-05,1.99254e-05,-6.80774e-06
136,-1.0773e-05,1.08451e-05,2.74756e-05,5.59664e-05,1.67396e-05,-2.65891e-07
137,-1.42319e-06,1.2549e-05,3.13248e-05,5.29609e-05,1.65048e-05,6.79431e-06
138,-2.61638e-07,1.21833e-05,3.40869e-05,4.90149e-05,1.74284e-05,8.76199e-06
139,-7.76636e-06,1.00951e-05,3.35857e-05,4.75073e-05,1.98987e-05,3.6445e-06
140,-1.638e-05,8.28855e-06,3.21797e-05,4.97831e-05,2.05414e-05,-3.62681e-06
141,-1.44938e-05,6.25935e-06,3.51674e-05,5.30973e-05,1.49672e-05,-2.3302e-06
142,-3.61232e-06,3.51648e-06,4.06966e-05,5.53703e-05,1.23908e-05,7.27436e-06
143,3.03025e-06,1.56458e-06,4.27477e-05,5.55593e-05,2.04155e-05,1.55136e-05
144,-1.08492e-06,8.67976e-07,3.95236e-05,5.29862e-05,2.96612e-05,1.51514e-05
145,-1.13834e-05,3.006e-08,3.2947e-05,5.10518e-05,3.01053e-05,7.86822e-06
146,-2.06904e-05,-3.81515e-07,2.56687e-05,5.28733e-05,2.69403e-05,6.76216e-07
147,-2.08921e-05,2.37176e-06,2.48261e-05,5.78331e-05,2.48589e-05,8.8933e-07
148,-1.24484e-05,6.32687e-06,2.99655e-05,6.11577e-05,2.59207e-05,5.02986e-06
149,-5.15365e-06,9.71541e-06,3.34444e-05,6.02587e-05,3.12354e-05,7.50986e-06
150,-3.61829e-06,1.30772e-05,3.15222e-05,5.63226e-05,3.89518e-05,8.70003e-06
151,-8.70763e-06,1.60383e-05,2.68319e-05,5.29571e-05,4.60518e-05,7.39287e-06
152,-1.91402e-05,2.05409e-05,2.29545e-05,5.13544e-05,4.92599e-05,5.87305e-06
153,-2.00768e-05,2.32907e-05,2.54014e-05,4.93711e-05,4.19599e-05,9.76023e-06
154,-5.49433e-06,2.19863e-05,3.48444e-05,4.75179e-05,2.91098e-05,1.50866e-05
155,2.08595e-06,2.04755e-05,3.89022e-05,4.72905e-05,2.74159e-05,1.64633e-05
156,-2.63115e-06,1.92413e-05,3.53185e-05,4.67985e-05,3.66938e-05,1.43745e-05
157,-3.74705e-06,1.61696e-05,3.13732e-05,4.91474e-05,3.899e-05,1.26888e-05
158,-8.26157e-07,1.40763e-05,2.99924e-05,5.19677e-05,3.17921e-05,1.22807e-05
159,1.18864e-06,1.50844e-05,3.13729e-05,5.03253e-05,2.2479e-05,1.1212e-05
160,-5.06933e-06,1.69446e-05,2.98448e-05,4.72345e-05,1.81754e-05,7.1314e-06
161,-1.60065e-05,1.60223e-05,2.77616e-05,4.62041e-05,1.43751e-05,4.04901e-06
162,-1.65907e-05,1.19751e-05,3.00889e-05,4.58777e-05,8.22652e-06,8.63434e-06
163,-6.37369e-06,8.70894e-06,3.58106e-05,4.55667e-05,9.44307e-06,1.63718e-05
164,4.00822e-06,5.82215e-06,4.0118e-05,4.50201e-05,2.0657e-05,1.94465e-05
165,6.765e-06,6.37875e-06,4.04218e-05,4.3694e-05,3.03278e-05,1.85541e-05
166,-1.56305e-06,1.15329e-05,3.53516e-05,4.32124e-05,3.18606e-05,1.593e-05
167,-1.40281e-05,1.71188e-05,2.97331e-05,4.67031e-05,2.88162e-05,1.44679e-05
168,-1.65853e-05,1.86223e-05,3.09105e-05,5.13986e-05,2.29521e-05,1.65502e-05
169,-8.21058e-06,1.75399e-05,3.94196e-05,5.28224e-05,1.91963e-05,1.80856e-05
170,-1.53087e-06,1.81435e-05,4.70578e-05,5.13499e-05,2.33557e-05,1.58816e-05
171,-3.36616e-06,2.0266e-05,4.69692e-05,4.9174e-05,3.25156e-05,1.16881e-05
172,-1.12854e-05,2.12662e-05,4.12744e-05,4.85278e-05,3.67623e-05,7.44337e-06
173,-2.01095e-05,2.33448e-05,3.51201e-05,5.01648e-05,3.30103e-05,3.55434e-06
174,-2.15018e-05,2.90409e-05,3.53494e-05,5.33815e-05,2.54164e-05,2.86361e-06
175,-1.38382e-05,3.19714e-05,3.96938e-05,5.59432e-05,2.29172e-05,5.1443e-06
176,-6.5027e-06,2.78788e-05,4.24817e-05,5.71965e-05,2.97397e-05,6.86171e-06
177,-6.00004e-06,2.0024e-05,4.44441e-05,5.4574e-05,3.67199e-05,7.71563e-06
178,-1.26579e-05,1.40621e-05,4.53362e-05,5.0489e-05,3.66419e-05,7.50882e-06
179,-2.47351e-05,1.23775e-05,4.00087e-05,5.16608e-05,3.38825e-05,4.83975e-06
180,-2.80521e-05,1.37427e-05,3.21664e-05,5.64954e-05,2.84067e-05,6.11748e-06
181,-1.55632e-05,1.54719e-05,3.10721e-05,5.92565e-05,2.67307e-05,1.57469e-05
182,-4.42064e-06,1.49565e-05,3.59555e-05,5.83869e-05,3.35649e-05,2.18606e-05
183,-6.74319e-07,1.43086e-05,3.95496e-05,5.93247e-05,4.03484e-05,1.88842e-05
184,-1.26795e-07,1.43639e-05,4.08193e-05,6.15743e-05,4.15141e-05,1.51838e-05
185,-8.62377e-07,1.26412e-05,4.12798e-05,5.90836e-05,3.70331e-05,1.23918e-05
186,-4.1853e-07,9.96057e-06,4.07756e-05,5.50375e-05,3.05809e-05,1.26396e-05
187,-5.7543e-06,1.05853e-05,3.65246e-05,5.33639e-05,2.94288e-05,1.52445e-05
188,-1.46114e-05,1.55119e-05,3.21385e-05,5.61102e-05,3.16666e-05,1.73468e-05
189,-1.45913e-05,1.8353e-05,3.10597e-05,5.92653e-05,3.09141e-05,1.96147e-05
190,-5.98651e-06,1.8362e-05,3.37618e-05,6.0576e-05,2.99435e-05,2.2106e-05
191,5.80055e-07,1.60499e-05,3.79135e-05,5.81255e-05,3.32142e-05,2.51326e-05
192,2.62582e-06,1.36462e-05,4.056e-05,5.26321e-05,3.52319e-05,2.80913e-05
193,-1.86625e-06,1.25589e-05,3.94555e-05,4.94005e-05,3.27366e-05,2.58897e-05
194,-9.85505e-06,1.12104e-05,3.6418e-05,5.16917e-05,2.77179e-05,1.90321e-05
195,-1.01759e-05,9.20559e-06,3.82212e-05,5.64351e-05,2.07913e-05,1.60972e-05
196,-1.16059e-06,9.23763e-06,4.32237e-05,5.8621e-05,1.68416e-05,1.85301e-05
197,5.63796e-06,1.22595e-05,4.40055e-05,5.75726e-05,1.97339e-05,2.06998e-05
198,3.42216e-06,1.36921e-05,4.11084e-05,5.41183e-05,2.24606e-05,1.8384e-05
199,-5.60984e-06,1.1888e-05,4.00084e-05,5.26232e-05,2.0775e-05,1.27756e-05
200,-1.50017e-05,1.12975e-05,4.0273e-05,5.5597e-05,1.78926e-05,7.3434e-06
201,-1.40434e-05,1.2255e-05,4.14038e-05,5.94485e-05,1.35832e-05,9.0343e-06
202,-2.78645e-06,9.85836e-06,4.30493e-05,5.89636e-05,1.18519e-05,1.74344e-05
203,5.808e-06,7.0354e-06,4.46245e-05,5.55326e-05,1.81288e-05,2.21595e-05
204,4.08208e-06,9.1345e-06,4.5838e-05,5.11318e-05,2.75953e-05,1.97423e-05
205,-4.92398e-06,1.58753e-05,4.48873e-05,4.86574e-05,3.24165e-05,1.48905e-05
206,-1.78401e-05,2.30556e-05,3.94242e-05,5.04699e-05,3.05315e-05,1.0626e-05
207,-1.96979e-05,2.6118e-05,3.44417e-05,5.32935e-05,2.13905e-05,1.17196e-05
208,-6.54537e-06,2.58871e-05,3.58844e-05,5.45973e-05,1.43705e-05,1.8836e-05
209,2.43431e-06,2.4149e-05,3.97121e-05,5.52479e-05,2.21866e-05,2.11267e-05
210,5.78518e-06,2.2503e-05,4.11246e-05,5.72868e-05,3.95168e-05,1.90709e-05
211,8.19935e-06,2.10117e-05,4.17979e-05,5.97868e-05,4.6272e-05,1.90755e-05
212,6.46435e-06,1.46962e-05,4.25275e-05,6.05314e-05,4.21123e-05,1.92715e-05
213,5.23278e-06,1.19894e-05,4.2915e-05,5.99616e-05,3.60518e-05,1.96689e-05
214,1.31904e-07,1.69944e-05,4.00287e-05,5.96291e-05,2.82394e-05,1.80513e-05
215,-9.33212e-06,2.11172e-05,3.77924e-05,6.03386e-05,1.73728e-05,1.47646e-05
216,-1.0615e-05,1.9036e-05,4.0505e-05,5.89087e-05,6.33514e-06,1.47006e-05
217,-2.84242e-06,1.48285e-05,4.3687e-05,5.73641e-05,3.98174e-06,2.02524e-05
218,2.67932e-06,1.31894e-05,4.34247e-05,5.56974e-05,1.19754e-05,2.64093e-05
219,1.77736e-06,1.37365e-05,4.21495e-05,5.23152e-05,2.03652e-05,2.85052e-05
220,-4.93998e-06,1.32146e-05,4.15345e-05,4.9029e-05,1.89838e-05,2.33695e-05
221,-1.23926e-05,1.23551e-05,4.00842e-05,4.94001e-05,7.8259e-06,1.39935e-05
222,-1.14436e-05,1.42136e-05,3.9941e-05,5.21151e-05,-1.96551e-06,8.42567e-06
223,-1.73352e-06,1.75653e-05,4.18769e-05,5.31429e-05,1.42631e-06,9.73336e-06
224,6.29438e-06,1.86381e-05,4.20634e-05,5.20301e-05,1.7553e-05,1.34599e-05
225,5.06195e-06,1.61921e-05,3.83451e-05,4.992e-05,3.23285e-05,1.56468e-05
226,-4.92101e-06,1.44024e-05,3.27388e-05,4.96587e-05,3.63287e-05,1.50518e-05
227,-1.86138e-05,1.47982e-05,2.72795e-05,5.12034e-05,3.33623e-05,1.18026e-05
228,-2.36542e-05,1.51748e-05,2.58758e-05,5.22797e-05,2.67748e-05,1.23045e-05
229,-1.55233e-05,1.31121e-05,2.88152e-05,5.18507e-05,2.25439e-05,1.72187e-05
230,-6.42811e-06,1.07401e-05,3.12846e-05,5.12529e-05,2.92246e-05,1.96784e-05
231,-4.63193e-06,1.18309e-05,3.13205e-05,4.95397e-05,4.10354e-05,1.85953e-05
232,-7.07578e-06,1.67212e-05,3.0349e-05,4.74307e-05,4.47254e-05,1.64994e-05
233,-1.3741e-05,1.96322e-05,2.88919e-05,4.71033e-05,3.39674e-05,1.13215e-05
234,-1.35421e-05,1.75465e-05,2.95236e-05,4.82018e-05,1.52045e-05,6.6286e-06
235,-2.00217e-06,1.50033e-05,3.05072e-05,4.89003e-05,5.71084e-06,6.93752e-06
236,1.76891e-06,1.19693e-05,3.04315e-05,4.93707e-05,1.50254e-05,1.13392e-05
237,4.57407e-08,7.57707e-06,3.2946e-05,5.03696e-05,3.09735e-05,1.51112e-05
238,1.87855e-06,5.52291e-06,3.41758e-05,5.06643e-05,3.8072e-05,1.76254e-05
239,4.74351e-06,5.33741e-06,3.19933e-05,4.9246e-05,3.56281e-05,1.85654e-05
240,7.35762e-06,8.20057e-06,2.98045e-05,4.80451e-05,2.98764e-05,1.70215e-05
241,1.3209e-06,1.08696e-05,2.83955e-05,4.73179e-05,2.63275e-05,1.61171e-05
242,-8.27562e-06,1.13357e-05,3.01851e-05,4.71942e-05,2.26448e-05,1.64409e-05
243,-6.9237e-06,1.09364e-05,3.80957e-05,4.60948e-05,1.7532e-05,1.63557e-05
244,5.90587e-06,1.05281e-05,4.61562e-05,4.54832e-05,1.48858e-05,1.6591e-05
245,1.69339e-05,9.45399e-06,4.64855e-05,4.51561e-05,2.04345e-05,1.80687e-05
246,1.89821e-05,8.6139e-06,4.08554e-05,4.1852e-05,2.86315e-05,1.88428e-05
247,9.67865e-06,8.12657e-06,3.34868e-05,3.74599e-05,3.37024e-05,1.43467e-05
248,-4.09528e-06,7.30223e-06,2.8566e-05,3.73874e-05,2.97386e-05,7.38303e-06
249,-7.478e-06,6.16277e-06,2.92964e-05,4.12213e-05,1.692e-05,5.74604e-06
250,9.2176e-07,6.07365e-06,3.44062e-05,4.33415e-05,9.46075e-06,1.06282e-05
251,8.65509e-06,8.28722e-06,3.86355e-05,4.1589e-05,1.74834e-05,1.51859e-05
252,7.29773e-06,9.90158e-06,3.89602e-05,3.83616e-05,3.0433e-05,1.54145e-05
253,-2.2025e-06,1.04483e-05,3.49463e-05,3.62173e-05,3.69872e-05,1.46635e-05
254,-1.35258e-05,1.1163e-05,3.08214e-05,3.68702e-05,3.85303e-05,1.72235e-05
255,-1.36337e-05,1.05954e-05,3.31829e-05,4.17178e-05,3.62332e-05,2.32463e-05
256,-1.31304e-06,6.21517e-06,4.03688e-05,4.71561e-05,3.69896e-05,2.78546e-05
257,7.01137e-06,9.74102e-07,4.44808e-05,5.01793e-05,4.66481e-05,2.8742e-05
258,3.32027e-06,-1.91772e-06,4.23267e-05,5.06164e-05,5.82251e-05,2.58246e-05
259,-7.93878e-06,-7.56693e-07,3.64972e-05,5.0806e-05,5.96262e-05,2.25251e-05
260,-2.28205e-05,7.87885e-07,2.99385e-05,5.17269e-05,4.98144e-05,1.89945e-05
261,-2.56762e-05,3.10832e-06,2.82021e-05,5.13773e-05,3.31973e-05,1.52161e-05
262,-1.23013e-05,7.69089e-06,3.18764e-05,4.98484e-05,2.22638e-05,1.52561e-05
263,-1.59071e-06,9.80227e-06,3.40669e-05,4.82553e-05,2.62062e-05,1.81828e-05
264,1.73568e-06,1.00265e-05,3.47773e-05,4.8731e-05,3.72292e-05,1.86669e-05
265,5.4082e-06,1.24357e-05,3.71232e-05,5.04183e-05,4.37799e-05,1.72949e-05
266,9.10079e-06,1.40011e-05,3.8291e-05,5.08993e-05,4.52368e-05,1.72544e-05
267,7.22343e-06,1.15454e-05,3.7494e-05,4.89003e-05,4.22387e-05,1.7376e-05
268,-4.28044e-06,1.06032e-05,3.40476e-05,4.65502e-05,3.62368e-05,1.43611e-05
269,-1.6355e-05,1.27901e-05,3.16409e-05,4.88987e-05,2.91142e-05,9.18204e-06
270,-1.63118e-05,1.05152e-05,3.38188e-05,5.07248e-05,2.27023e-05,7.03235e-06
271,-5.04406e-06,5.54254e-06,3.78958e-05,5.03889e-05,2.31159e-05,8.75453e-06
272,4.88167e-06,3.83438e-06,4.24769e-05,4.81909e-05,3.12796e-05,1.28427e-05
273,4.37927e-06,7.22888e-06,4.64324e-05,4.72371e-05,3.73957e-05,1.64063e-05
274,-8.52366e-06,1.22295e-05,4.63337e-05,4.79447e-05,3.77011e-05,1.65769e-05
275,-2.19471e-05,1.43479e-05,4.32515e-05,5.03142e-05,3.2818e-05,1.42002e-05
276,-2.15471e-05,1.32564e-05,4.35432e-05,5.27673e-05,2.65434e-05,1.41673e-05
277,-9.13498e-06,1.33077e-05,4.79487e-05,5.33658e-05,2.67435e-05,1.78144e-05
278,8.40526e-07,1.61593e-05,4.95678e-05,5.35686e-05,3.72251e-05,2.02695e-05
279,8.56596e-08,1.88411e-05,4.52e-05,5.25444e-05,4.79305e-05,2.06627e-05
280,-7.68686e-06,1.98398e-05,3.79096e-05,5.08312e-05,4.88642e-05,1.86675e-05
281,-1.54401e-05,1.87509e-05,3.18917e-05,5.11171e-05,4.22598e-05,1.43576e-05
282,-1.45093e-05,1.86419e-05,3.00131e-05,5.42415e-05,3.21736e-05,1.28895e-05
283,-4.05983e-06,2.06009e-05,3.12557e-05,5.51991e-05,2.6776e-05,1.62381e-05
284,3.27011e-06,2.26636e-05,3.14782e-05,5.24647e-05,3.41602e-05,1.73877e-05
285,-1.72334e-07,2.3127e-05,2.94834e-05,4.6577e-05,4.50438e-05,1.45055e-05
286,-9.78608e-06,2.29171e-05,2.6623e-05,4.27902e-05,4.88735e-05,1.00207e-05
287,-2.27325e-05,2.19825e-05,2.53073e-05,4.54427e-05,4.91896e-05,4.84693e-06
288,-2.50111e-05,2.10746e-05,2.73395e-05,5.23114e-05,4.46993e-05,3.75252e-06
289,-1.23056e-05,2.00647e-05,2.82327e-05,5.5519e-05,3.34256e-05,7.67092e-06
290,-4.98586e-06,1.77786e-05,2.50152e-05,5.45607e-05,2.13463e-05,1.02392e-05
291,-5.08983e-06,1.5641e-05,2.20582e-05,5.28962e-05,1.94677e-05,1.31096e-05
292,-3.03836e-06,1.44123e-05,2.5419e-05,5.27074e-05,2.67028e-05,2.01327e-05
293,-2.92598e-08,1.39365e-05,3.14513e-05,5.26896e-05,3.42293e-05,2.49165e-05
294,-3.36536e-09,1.37606e-05,3.50269e-05,5.10766e-05,3.49926e-05,2.42594e-05
295,-8.50251e-06,1.22921e-05,3.27037e-05,5.00606e-05,3.23969e-05,1.70783e-05
296,-1.87365e-05,1.03968e-05,2.95164e-05,5.09585e-05,2.87369e-05,7.43269e-06
297,-1.80468e-05,1.02811e-05,3.33516e-05,5.18165e-05,2.63995e-05,4.48306e-06
298,-6.70804e-06,1.18018e-05,3.89758e-05,5.27128e-05,2.75865e-05,8.76127e-06
299,1.13494e-06,9.60639e-06,4.01633e-05,5.24729e-05,3.27921e-05,1.3599e-05
300,2.52405e-07,5.92988e-06,3.72106e-05,4.94107e-05,3.94697e-05,1.5621e-05
301,-7.35544e-06,6.5726e-06,3.21965e-05,4.81567e-05,4.33481e-05,1.25289e-05
302,-1.40451e-05,9.26041e-06,2.71316e-05,5.18765e-05,3.95853e-05,5.13343e-06
303,-1.21601e-05,9.77683e-06,2.88682e-05,5.69236e-05,2.86928e-05,9.93631e-07
304,-3.41418e-06,9.42369e-06,3.78492e-05,5.91503e-05,2.16173e-05,4.80088e-06
305,1.58536e-06,7.94179e-06,4.5281e-05,5.82285e-05,2.63677e-05,1.22844e-05
306,-1.93373e-06,5.50003e-06,4.58049e-05,5.47927e-05,3.51388e-05,1.93027e-05
307,-9.88851e-06,6.61834e-06,4.19896e-05,5.28251e-05,3.73197e-05,2.38555e-05
308,-1.72684e-05,9.83381e-06,3.81481e-05,5.44706e-05,3.77949e-05,2.27989e-05
309,-1.49292e-05,1.00281e-05,3.88049e-05,5.66905e-05,4.03345e-05,1.84671e-05
310,-3.66557e-06,9.39453e-06,4.33998e-05,5.68614e-05,4.43249e-05,1.56357e-05
311,3.9094e-06,1.23047e-05,4.74858e-05,5.55227e-05,4.9194e-05,1.52124e-05
312,1.35969e-06,1.38846e-05,4.96284e-05,5.38704e-05,5.06872e-05,1.56802e-05
313,-7.17805e-06,1.24548e-05,4.64111e-05,5.40471e-05,4.50414e-05,1.58915e-05
314,-1.86925e-05,1.18462e-05,4.09514e-05,5.71808e-05,3.62083e-05,1.47815e-05
315,-2.15152e-05,1.14903e-05,4.25379e-05,6.00804e-05,2.58348e-05,1.62479e-05
316,-1.08808e-05,1.1047e-05,4.69852e-05,5.96654e-05,1.36718e-05,2.20032e-05
317,-3.42852e-06,1.15003e-05,4.5174e-05,5.7032e-05,8.20957e-06,1.89271e-05
318,-3.95252e-06,1.18618e-05,4.48945e-05,5.3552e-05,1.4567e-05,1.08265e-05
319,-3.95359e-06,1.34434e-05,4.85616e-05,5.33715e-05,1.77742e-05,1.16469e-05
320,-3.85616e-06,1.61202e-05,4.99088e-05,5.40363e-05,1.17484e-05,1.83477e-05
321,-5.23195e-06,1.70337e-05,4.78461e-05,5.07711e-05,5.08896e-06,2.11241e-05
322,-1.3252e-05,1.554e-05,4.20941e-05,4.63051e-05,4.82017e-06,1.43055e-05
323,-2.19715e-05,1.31375e-05,3.74556e-05,4.63624e-05,6.40092e-06,6.43323e-06
324,-1.97778e-05,1.14703e-05,3.79833e-05,4.95276e-05,4.90776e-06,5.12808e-06
325,-8.80852e-06,9.96432e-06,4.11316e-05,5.2326e-05,4.81618e-06,9.6248e-06
326,-2.17188e-06,6.06376e-06,4.14303e-05,5.42118e-05,9.78863e-06,1.41049e-05
327,-3.05127e-06,4.00852e-06,3.86622e-05,5.38587e-05,1.54825e-05,1.78754e-05
328,-9.47924e-06,6.16421e-06,3.36719e-05,5.39428e-05,1.62867e-05,1.85794e-05
329,-1.63761e-05,1.08153e-05,2.84891e-05,5.59285e-05,9.74912e-06,1.55485e-05
330,-1.52462e-05,1.51744e-05,2.76735e-05,5.8727e-05,3.69692e-07,1.40318e-05
331,-7.15671e-06,1.97552e-05,3.24803e-05,5.92045e-05,-2.85263e-06,1.65676e-05
332,-1.76301e-06,2.27563e-05,3.7185e-05,5.73237e-05,3.51417e-06,2.02162e-05
333,-4.11888e-06,2.08785e-05,3.86006e-05,5.46219e-05,1.12791e-05,2.12541e-05
334,-1.21867e-05,1.81745e-05,3.73499e-05,5.31651e-05,1.32724e-05,1.7908e-05
335,-2.10726e-05,1.80059e-05,3.48914e-05,5.49963e-05,9.58474e-06,1.06579e-05
336,-1.99963e-05,1.6647e-05,3.59904e-05,5.84353e-05,5.76263e-07,7.64098e-06
337,-7.78453e-06,1.33683e-05,3.91382e-05,5.8969e-05,-9.18868e-06,1.21154e-05
338,3.90624e-06,1.21219e-05,4.02923e-05,5.67968e-05,-1.0402e-05,1.79732e-05
339,5.27706e-06,1.15434e-05,3.95462e-05,5.47321e-05,-8.0016e-07,2.11711e-05
340,-2.81563e-06,1.25287e-05,3.87333e-05,5.32055e-05,8.75599e-06,2.24293e-05
341,-1.62851e-05,1.65306e-05,3.72027e-05,5.45953e-05,1.29489e-05,2.14085e-05
342,-1.9681e-05,1.97945e-05,3.7048e-05,5.71911e-05,9.76939e-06,2.22391e-05
343,-7.68046e-06,1.67086e-05,4.1414e-05,5.58476e-05,5.44301e-06,2.42268e-05
344,-7.75645e-07,1.26055e-05,4.44025e-05,5.07728e-05,8.08905e-06,2.0411e-05
345,-1.96137e-06,1.38446e-05,4.29274e-05,4.95217e-05,1.40836e-05,1.51535e-05
346,-5.42908e-07,1.57259e-05,4.02639e-05,5.28131e-05,1.86955e-05,1.21689e-05
347,1.60844e-06,1.39956e-05,3.88011e-05,5.27824e-05,2.16237e-05,1.03344e-05
348,2.00034e-06,1.35358e-05,4.06197e-05,4.91825e-05,2.07591e-05,1.29643e-05
349,-1.99637e-06,1.62487e-05,4.182e-05,4.74427e-05,1.80313e-05,1.64131e-05
350,-6.70738e-06,1.67895e-05,3.95492e-05,5.00816e-05,1.10744e-05,1.92122e-05
351,-4.95763e-06,1.29906e-05,3.61611e-05,5.35631e-05,1.26795e-06,2.25653e-05
352,1.96968e-06,7.47339e-06,3.44003e-05,5.46005e-05,-9.65946e-07,2.48467e-05
353,4.62384e-06,4.52412e-06,3.29945e-05,5.34498e-05,6.30875e-06,2.40868e-05
354,1.23519e-06,6.95947e-06,3.15892e-05,5.07292e-05,1.37176e-05,2.22551e-05
355,-8.3903e-06,1.13978e-05,3.13955e-05,4.84553e-05,1.7793e-05,1.77279e-05
356,-1.77821e-05,1.18342e-05,3.24804e-05,4.91913e-05,2.11834e-05,1.06457e-05
357,-1.65125e-05,1.0612e-05,3.43642e-05,5.06287e-05,2.20696e-05,9.8867e-06
358,-6.07364e-06,1.32693e-05,3.66014e-05,5.03168e-05,2.17798e-05,1.8828e-05
359,1.2936e-06,1.64537e-05,3.70255e-05,4.95029e-05,2.73761e-05,2.68852e-05
360,3.02564e-07,1.34237e-05,3.33494e-05,4.79046e-05,3.6015e-05,2.4181e-05
361,-6.88939e-06,7.40692e-06,2.86064e-05,4.64326e-05,3.84518e-05,1.40777e-05
362,-1.61562e-05,7.15383e-06,2.79722e-05,4.7162e-05,3.53503e-05,5.05209e-06
363,-1.74096e-05,1.40476e-05,3.22913e-05,4.8832e-05,2.81345e-05,4.20609e-06
364,-1.07409e-05,2.15455e-05,3.8261e-05,5.03325e-05,2.05337e-05,9.65056e-06
365,-5.06321e-06,2.22917e-05,4.21454e-05,5.04303e-05,2.20034e-05,1.38354e-05
366,-4.26853e-06,1.57578e-05,4.33356e-05,4.64709e-05,2.94378e-05,1.3035e-05
367,-8.10232e-06,8.69937e-06,4.31495e-05,4.23786e-05,3.39068e-05,8.16872e-06
368,-1.72346e-05,5.39092e-06,4.04605e-05,4.44707e-05,3.46514e-05,1.18676e-06
369,-1.82599e-05,3.82917e-06,3.97384e-05,5.03317e-05,3.1352e-05,2.22282e-07
370,-5.75837e-06,2.43298e-06,4.30651e-05,5.30694e-05,2.80579e-05,6.5772e-06
371,9.19893e-07,2.85465e-06,4.06819e-05,5.20567e-05,2.93459e-05,7.69391e-06
372,-8.19809e-07,6.16156e-06,3.46932e-05,5.11359e-05,4.12684e-05,2.97548e-06
373,-8.68002e-07,9.03316e-06,3.35055e-05,5.29441e-05,5.64993e-05,6.47047e-07
374,-2.25683e-06,6.96833e-06,3.61613e-05,5.28668e-05,6.13649e-05,-2.86776e-07
375,-6.01035e-06,5.74755e-06,3.9263e-05,4.95021e-05,5.8796e-05,7.56836e-07
376,-1.48692e-05,1.08733e-05,3.69609e-05,4.85238e-05,5.49155e-05,-2.04063e-06
377,-2.32848e-05,1.67675e-05,3.42832e-05,5.21247e-05,4.78497e-05,-9.5761e-06
378,-2.03867e-05,1.99655e-05,3.68277e-05,5.5194e-05,3.67253e-05,-1.29287e-05
379,-7.16821e-06,2.10208e-05,4.06342e-05,5.45709e-05,3.24847e-05,-9.34167e-06
380,2.74544e-06,1.91742e-05,4.13829e-05,5.21187e-05,4.04196e-05,-4.371e-06
381,2.79003e-06,1.50195e-05,4.12459e-05,4.90583e-05,4.77009e-05,-2.45717e-09
382,-5.73372e-06,1.21968e-05,3.95459e-05,4.80431e-05,4.70938e-05,3.80464e-06
383,-1.33494e-05,1.08736e-05,3.71235e-05,5.00601e-05,4.03347e-05,6.31933e-06
384,-9.09405e-06,9.57764e-06,3.91002e-05,5.26832e-05,3.39876e-05,1.08253e-05
385,4.82884e-06,8.96622e-06,4.46598e-05,5.19849e-05,3.64391e-05,1.6982e-05
386,1.52573e-05,8.53887e-06,4.66803e-05,4.78927e-05,4.92285e-05,1.92483e-05
387,1.45303e-05,7.83063e-06,4.44384e-05,4.29078e-05,5.92118e-05,1.4799e-05
388,3.691e-06,9.71341e-06,4.13826e-05,4.04655e-05,5.89338e-05,7.92992e-06
389,-9.50696e-06,1.43444e-05,3.66969e-05,4.32008e-05,5.35946e-05,3.41318e-06
390,-9.28668e-06,1.58769e-05,3.52348e-05,4.90256e-05,4.70456e-05,4.43371e-06
391,4.92039e-06,1.29944e-05,3.98087e-05,5.36353e-05,4.49833e-05,7.53726e-06
392,1.59061e-05,1.00307e-05,4.46726e-05,5.54487e-05,5.01727e-05,1.1321e-05
393,1.49605e-05,8.79807e-06,4.51163e-05,5.32468e-05,5.17497e-05,1.65107e-05
394,6.69524e-06,7.88957e-06,4.22655e-05,4.89694e-05,4.2646e-05,1.84309e-05
395,-6.04515e-06,7.91333e-06,3.85258e-05,4.80673e-05,3.53656e-05,1.46986e-05
396,-7.82784e-06,1.06938e-05,3.94402e-05,5.03856e-05,3.07299e-05,1.51001e-05
397,3.68892e-06,1.23301e-05,4.39141e-05,5.24241e-05,2.755e-05,2.35534e-05
398,7.56151e-06,1.16034e-05,4.23916e-05,5.23083e-05,2.84141e-05,2.7221e-05
399,4.89183e-06,1.42933e-05,3.76106e-05,5.26555e-05,3.14797e-05,2.31816e-05
400,7.51331e-06,1.82016e-05,3.79982e-05,5.53427e-05,3.3791e-05,1.82404e-05
401,9.99702e-06,1.97358e-05,4.13187e-05,5.54285e-05,3.07991e-05,1.40972e-05
402,6.90507e-06,1.83244e-05,4.21243e-05,5.21231e-05,2.41235e-05,1.26864e-05
403,-5.32534e-06,1.85243e-05,3.78574e-05,5.04895e-05,1.84592e-05,1.15572e-05
404,-1.72569e-05,2.16988e-05,3.39975e-05,5.43206e-05,1.39924e-05,9.05908e-06
405,-1.32002e-05,2.29418e-05,3.36883e-05,5.78763e-05,8.77444e-06,1.00604e-05
406,1.51911e-06,2.07681e-05,3.59296e-05,5.758e-05,8.2035e-06,1.53091e-05
407,1.00939e-05,1.68433e-05,3.7257e-05,5.4637e-05,1.36804e-05,2.01073e-05
408,8.24083e-06,1.50129e-05,3.63443e-05,4.99736e-05,1.82183e-05,2.19883e-05
409,-2.94548e-06,1.41715e-05,3.24888e-05,4.85441e-05,1.86053e-05,1.93399e-05
410,-1.60548e-05,1.29318e-05,3.00853e-05,5.22021e-05,1.48132e-05,1.42943e-05
411,-1.90008e-05,1.13998e-05,3.33542e-05,5.62512e-05,8.97524e-06,1.29353e-05
412,-1.07056e-05,9.9751e-06,3.79155e-05,5.5772e-05,5.83986e-06,1.50023e-05
413,-2.15413e-06,8.40947e-06,3.8138e-05,5.26866e-05,9.04804e-06,1.41232e-05
414,-3.64125e-07,8.50913e-06,3.42713e-05,4.93008e-05,1.47984e-05,8.0492e-06
415,-6.60754e-06,1.17931e-05,3.00439e-05,4.79988e-05,1.78806e-05,1.02555e-06
416,-1.78487e-05,1.52876e-05,2.71942e-05,4.97072e-05,1.44685e-05,-3.35689e-06
417,-2.00599e-05,1.34163e-05,2.83652e-05,5.22206e-05,6.73857e-06,-1.53602e-06
418,-9.32016e-06,8.16171e-06,3.15057e-05,5.3017e-05,4.82475e-06,5.29415e-06
419,1.47365e-06,6.2382e-06,3.12826e-05,5.37579e-05,1.38392e-05,9.02008e-06
420,1.41949e-06,7.89247e-06,2.6949e-05,5.43454e-05,2.4096e-05,7.05541e-06
421,-8.92055e-06,1.07154e-05,2.28264e-05,5.26558e-05,2.65741e-05,4.05133e-06
422,-2.21851e-05,1.22886e-05,2.04875e-05,5.18355e-05,2.15718e-05,7.37461e-07
423,-2.4028e-05,1.33114e-05,2.30472e-05,5.22449e-05,1.26407e-05,3.31314e-08
424,-1.03907e-05,1.48273e-05,2.73571e-05,4.99586e-05,8.67037e-06,7.69152e-06
425,-2.04018e-06,1.57478e-05,2.85331e-05,4.88479e-05,1.5141e-05,1.63592e-05
426,-3.42562e-06,1.6369e-05,3.07839e-05,5.35766e-05,2.31703e-05,2.24445e-05
427,-3.71274e-06,1.9487e-05,3.27135e-05,5.91876e-05,2.49277e-05,2.89655e-05
428,-3.28062e-06,2.20928e-05,3.26751e-05,6.06677e-05,2.15366e-05,2.94041e-05
429,-2.10441e-06,2.15731e-05,3.30763e-05,5.75318e-05,1.40779e-05,2.22316e-05
430,-7.73215e-06,1.97957e-05,3.11566e-05,5.27861e-05,7.7649e-06,1.24992e-05
431,-1.56301e-05,1.88184e-05,2.88674e-05,5.16152e-05,7.30449e-07,7.89954e-06
432,-1.43829e-05,1.9261e-05,2.98371e-05,5.24937e-05,-7.81487e-06,1.15204e-05
433,-3.22518e-06,1.98258e-05,3.56149e-05,5.27135e-05,-9.9171e-06,1.70141e-05
434,5.03093e-06,1.93008e-05,4.15539e-05,5.29183e-05,-2.11283e-06,1.9524e-05
435,3.09516e-06,1.64984e-05,4.33771e-05,5.16523e-05,8.10112e-06,1.83651e-05
436,-7.49922e-06,1.42914e-05,3.94406e-05,5.06858e-05,1.46447e-05,1.21949e-05
437,-1.60926e-05,1.33537e-05,3.46268e-05,5.26277e-05,1.50632e-05,6.34519e-06
438,-1.18844e-05,1.31474e-05,3.56904e-05,5.5829e-05,1.00032e-05,7.86941e-06
439,4.0201e-08,1.45299e-05,4.18589e-05,5.7269e-05,9.40295e-06,1.43912e-05
440,8.65039e-06,1.74397e-05,4.58508e-05,5.65869e-05,1.83361e-05,1.70162e-05
441,8.69446e-06,1.83452e-05,4.3024e-05,5.33225e-05,2.79337e-05,1.32249e-05
442,1.00155e-06,1.50083e-05,3.60381e-05,4.94972e-05,3.15412e-05,1.04565e-05
443,-9.88701e-06,9.47378e-06,3.13936e-05,4.9378e-05,3.23617e-05,1.20182e-05
444,-1.1755e-05,4.04806e-06,3.52617e-05,5.23588e-05,3.10676e-05,1.51707e-05
445,-3.45357e-06,4.91212e-06,4.24048e-05,5.43412e-05,2.72535e-05,1.60346e-05
446,5.60463e-06,1.20523e-05,4.46762e-05,5.37014e-05,2.93853e-05,1.38963e-05
447,6.97176e-06,1.39188e-05,4.08477e-05,5.03566e-05,3.56843e-05,1.35981e-05
448,-1.86724e-06,8.86509e-06,3.68564e-05,4.63619e-05,3.47904e-05,1.71856e-05
449,-1.96107e-05,5.75157e-06,3.4533e-05,4.63169e-05,2.9741e-05,2.00491e-05
450,-2.96155e-05,7.62177e-06,3.21427e-05,5.08827e-05,2.30926e-05,2.36027e-05
451,-2.15361e-05,9.69739e-06,3.16733e-05,5.52957e-05,1.92026e-05,2.7446e-05
452,-1.20683e-05,1.18012e-05,3.22845e-05,5.56353e-05,2.27542e-05,2.5744e-05
453,-7.99348e-06,1.24146e-05,3.30264e-05,5.30584e-05,2.79184e-05,2.18551e-05
454,-5.31368e-06,5.69484e-06,3.42371e-05,5.27077e-05,3.02197e-05,2.30255e-05
455,-5.78497e-06,-1.34778e-06,3.41254e-05,5.45217e-05,2.75048e-05,2.8403e-05
456,-7.62715e-06,-2.94443e-06,3.52731e-05,5.31328e-05,2.02905e-05,3.19347e-05
457,-1.49055e-05,-1.98313e-06,3.38856e-05,5.12731e-05,1.56775e-05,2.7873e-05
458,-2.32448e-05,-2.27809e-06,3.04619e-05,5.23959e-05,1.38847e-05,1.82667e-05
459,-1.91518e-05,-2.80878e-06,2.94978e-05,5.37618e-05,1.17398e-05,1.31588e-05
460,-4.16032e-06,-2.75286e-06,3.02492e-05,5.37142e-05,1.69057e-05,1.48173e-05
461,7.52617e-06,-7.94456e-07,3.07412e-05,5.30874e-05,3.16522e-05,1.78713e-05
462,7.62227e-06,3.27297e-06,3.17004e-05,5.27711e-05,4.41611e-05,1.84117e-05
463,-3.46519e-06,7.23173e-06,3.2322e-05,5.19873e-05,4.7526e-05,1.61888e-05
464,-1.67416e-05,1.03156e-05,3.32359e-05,5.10486e-05,4.18982e-05,1.43399e-05
465,-1.88738e-05,1.30058e-05,3.76517e-05,5.08338e-05,3.30289e-05,1.54986e-05
466,-9.18178e-06,1.45496e-05,4.19973e-05,5.08308e-05,3.03342e-05,1.79967e-05
467,-6.09612e-07,1.31818e-05,4.11497e-05,4.93834e-05,3.70343e-05,1.83152e-05
468,7.04581e-07,9.48973e-06,3.68987e-05,4.75547e-05,4.46522e-05,1.62199e-05
469,-3.46653e-06,6.62092e-06,3.3231e-05,4.76431e-05,4.7538e-05,1.27339e-05
470,-1.14658e-05,7.98333e-06,3.0753e-05,4.96917e-05,4.78515e-05,9.97994e-06
471,-1.48517e-05,1.20348e-05,3.38427e-05,5.18943e-05,4.63348e-05,1.13702e-05
472,-8.30858e-06,1.65955e-05,4.18169e-05,5.25268e-05,4.41686e-05,1.51017e-05
473,-1.2689e-06,1.8226e-05,4.6973e-05,5.07803e-05,4.47633e-05,1.56792e-05
474,-2.72112e-06,1.41122e-05,4.7102e-05,4.66237e-05,4.39945e-05,1.55262e-05
475,-1.15858e-05,9.09883e-06,4.41415e-05,4.31477e-05,3.72148e-05,1.72784e-05
476,-2.08053e-05,8.13372e-06,3.99092e-05,4.56457e-05,3.21284e-05,1.63154e-05
477,-1.6718e-05,9.83878e-06,4.06177e-05,5.23915e-05,2.85385e-05,1.53155e-05
478,-9.32914e-07,1.34232e-05,4.47378e-05,5.5792e-05,2.63786e-05,1.85434e-05
479,6.74219e-06,1.65223e-05,4.36541e-05,5.48091e-05,3.0511e-05,2.05249e-05
480,4.33167e-06,1.78696e-05,4.09628e-05,5.22344e-05,3.65639e-05,1.92436e-05
481,1.71504e-06,1.56468e-05,4.21407e-05,5.14953e-05,3.97997e-05,1.86939e-05
482,-2.47899e-06,1.15552e-05,4.25056e-05,5.15672e-05,4.25416e-05,1.95557e-05
483,-7.80116e-06,9.96831e-06,4.15037e-05,4.93322e-05,4.49033e-05,1.91745e-05
484,-1.66679e-05,1.24265e-05,3.81362e-05,4.55652e-05,4.81607e-05,1.5654e-05
485,-2.44624e-05,1.57607e-05,3.54682e-05,4.48067e-05,5.16699e-05,1.48926e-05
486,-2.05815e-05,1.68636e-05,3.69311e-05,4.60079e-05,5.11409e-05,2.25654e-05
487,-7.56575e-06,1.67614e-05,3.97918e-05,4.71103e-05,4.89266e-05,3.0542e-05
488,2.18215e-06,1.4269e-05,4.03933e-05,4.67059e-05,4.92484e-05,2.92969e-05
489,2.98159e-06,1.17816e-05,3.8831e-05,4.31367e-05,4.66448e-05,2.19326e-05
490,-5.24627e-06,1.30761e-05,3.68604e-05,4.17021e-05,3.93186e-05,1.30376e-05
491,-1.46861e-05,1.77433e-05,3.35877e-05,4.49208e-05,2.9533e-05,5.83135e-06
492,-1.50411e-05,2.12501e-05,3.37476e-05,4.97357e-05,1.80455e-05,6.10476e-06
493,-6.28735e-06,2.15986e-05,3.87353e-05,5.25044e-05,1.22972e-05,1.21799e-05
494,2.64303e-06,2.04668e-05,4.31791e-05,5.348e-05,1.82155e-05,1.64936e-05
495,6.14216e-06,1.84956e-05,4.49913e-05,5.3294e-05,2.7451e-05,1.67197e-05
496,1.90463e-06,1.63384e-05,4.69999e-05,5.30512e-05,2.90419e-05,1.52357e-05
497,-9.39045e-06,1.61161e-05,4.8335e-05,5.35231e-05,2.33177e-05,1.21972e-05
498,-1.40278e-05,1.60146e-05,4.8668e-05,5.35836e-05,1.51165e-05,8.84249e-06
499,-3.65336e-06,1.311e-05,5.04734e-05,5.27198e-05,1.19034e-05,8.90917e-06
500,8.90016e-06,9.17584e-06,5.17964e-05,5.21594e-05,1.87104e-05,1.2272e-05
501,1.05363e-05,6.0269e-06,5.02336e-05,5.05159e-05,3.12091e-05,1.54297e-05
502,4.99708e-07,6.14968e-06,4.52323e-05,4.83369e-05,3.69852e-05,1.44705e-05
503,-1.80857e-05,1.01141e-05,3.51826e-05,5.00044e-05,2.85179e-05,8.14194e-06
504,-2.31785e-05,1.21502e-05,2.86961e-05,5.23218e-05,8.86182e-06,5.89498e-06
505,-6.44927e-06,8.99011e-06,3.07415e-05,5.1746e-05,-4.1002e-06,1.34575e-05
506,7.72703e-06,6.40776e-06,3.20751e-05,5.01835e-05,1.33258e-06,1.92417e-05
507,1.12165e-05,7.40426e-06,3.25726e-05,4.97607e-05,1.13683e-05,1.92331e-05
508,1.13514e-05,1.19603e-05,3.57787e-05,5.06794e-05,1.56045e-05,1.79882e-05
509,7.79296e-06,1.31714e-05,3.77241e-05,5.10509e-05,1.86425e-05,1.70736e-05
510,4.54183e-06,7.97897e-06,3.54742e-05,5.04419e-05,2.29895e-05,1.51136e-05
511,-1.55061e-06,6.02471e-06,3.15318e-05,5.09223e-05,2.87117e-05,6.25214e-06
512,-8.5754e-06,9.74953e-06,3.10427e-05,5.39627e-05,3.14108e-05,-2.25666e-06
513,-7.18861e-06,1.42551e-05,3.51725e-05,5.63405e-05,2.70585e-05,6.2048e-07
514,7.66416e-08,1.326e-05,3.9251e-05,5.52668e-05,2.4059e-05,9.33862e-06
515,4.04427e-06,8.76992e-06,4.11712e-05,5.19068e-05,2.92359e-05,1.08081e-05
516,1.9353e-06,6.38672e-06,4.28722e-05,4.85014e-05,3.63186e-05,3.9546e-06
517,-5.90308e-06,9.35085e-06,4.20602e-05,4.79804e-05,3.93689e-05,-5.23368e-07
518,-1.58311e-05,1.44125e-05,3.92229e-05,5.20435e-05,3.57557e-05,1.65812e-06
519,-1.70563e-05,1.72882e-05,3.84193e-05,5.68153e-05,2.77389e-05,8.57818e-06
520,-8.65485e-06,1.76822e-05,4.09461e-05,5.77536e-05,2.49708e-05,1.37435e-05
521,-1.09911e-06,1.77551e-05,4.40156e-05,5.47583e-05,3.24096e-05,1.36141e-05
522,-6.52975e-07,1.69827e-05,4.41809e-05,5.12416e-05,4.03318e-05,1.28081e-05
523,-6.88646e-06,1.46996e-05,3.87882e-05,5.06953e-05,4.40144e-05,1.40924e-05
524,-1.47179e-05,1.41883e-05,3.03111e-05,5.35451e-05,4.45974e-05,1.19574e-05
525,-1.32305e-05,1.70684e-05,2.73949e-05,5.7022e-05,3.92905e-05,6.0934e-06
526,-2.11266e-06,2.05007e-05,3.29182e-05,5.8959e-05,3.49422e-05,3.43081e-06
527,4.55376e-06,2.11613e-05,3.84285e-05,5.85877e-05,4.24492e-05,6.59171e-06
528,7.1235e-07,1.92283e-05,3.80084e-05,5.36576e-05,5.49841e-05,1.12605e-05
529,-9.17468e-06,1.75915e-05,3.35427e-05,4.72167e-05,6.4358e-05,9.53633e-06
530,-2.15667e-05,1.84836e-05,2.71023e-05,4.56051e-05,6.94309e-05,2.57761e-06
531,-2.20695e-05,1.87754e-05,2.61877e-05,4.77913e-05,6.37175e-05,3.75222e-08
532,-8.42875e-06,2.06148e-05,3.20485e-05,4.99965e-05,5.56006e-05,6.32613e-06
533,-1.56708e-06,2.17949e-05,3.46551e-05,5.00284e-05,5.78471e-05,1.30903e-05
534,-1.4829e-06,1.83035e-05,3.40786e-05,5.03737e-05,6.46469e-05,1.37109e-05
535,1.64787e-06,1.32959e-05,3.62548e-05,5.42376e-05,6.50117e-05,1.09697e-05
536,3.33958e-06,1.02834e-05,3.94982e-05,5.63522e-05,5.85964e-05,7.49694e-06
537,1.48691e-06,1.01002e-05,4.16978e-05,5.39576e-05,4.76386e-05,5.45748e-06
538,-7.29903e-06,1.40917e-05,3.88958e-05,5.09686e-05,3.83929e-05,5.66969e-06
539,-1.67402e-05,1.76912e-05,3.46405e-05,5.26043e-05,3.16455e-05,6.82135e-06
540,-1.31197e-05,1.85594e-05,3.61017e-05,5.64821e-05,2.43901e-05,9.58678e-06
541,-1.38936e-07,1.91192e-05,4.065e-05,5.81823e-05,2.05631e-05,1.38e-05
542,7.89418e-06,1.77108e-05,4.08382e-05,5.66004e-05,2.41552e-05,1.74039e-05
543,7.06304e-06,1.46064e-05,3.69215e-05,5.32128e-05,3.08394e-05,1.87362e-05
544,-2.68208e-06,1.31084e-05,3.26489e-05,5.03326e-05,3.58553e-05,1.57141e-05
545,-1.39577e-05,1.53313e-05,3.16338e-05,4.94575e-05,3.44744e-05,9.85308e-06
546,-1.52947e-05,1.83856e-05,3.44049e-05,4.90774e-05,2.57907e-05,7.85799e-06
547,-7.52048e-06,1.96424e-05,3.65375e-05,4.93156e-05,1.85008e-05,1.11137e-05
548,-1.85195e-06,1.87375e-05,3.48955e-05,5.08031e-05,1.99399e-05,1.48627e-05
549,-4.65508e-06,1.46668e-05,3.05939e-05,5.19996e-05,2.70069e-05,1.72724e-05
550,-1.45136e-05,1.07231e-05,2.6659e-05,5.16056e-05,2.94896e-05,1.93188e-05
551,-2.52881e-05,1.19862e-05,2.39509e-05,5.04626e-05,2.3386e-05,2.00313e-05
552,-2.3634e-05,1.56609e-05,2.57201e-05,5.12141e-05,1.19708e-05,2.12479e-05
553,-8.87605e-06,1.86434e-05,3.166e-05,5.26998e-05,1.95845e-06,2.41789e-05
554,3.77741e-06,1.92137e-05,3.68897e-05,5.23727e-05,4.92041e-06,2.49195e-05
555,4.98248e-06,1.38228e-05,3.95591e-05,4.93641e-05,1.93352e-05,2.22209e-05
556,-3.50478e-06,7.11826e-06,4.05794e-05,4.75506e-05,2.77666e-05,1.56465e-05
557,-1.8539e-05,6.38143e-06,3.98296e-05,4.9341e-05,2.28063e-05,5.25639e-06
558,-2.38158e-05,7.334e-06,4.21178e-05,5.28861e-05,8.39719e-06,-2.65785e-07
559,-1.1853e-05,8.52571e-06,4.78575e-05,5.43892e-05,6.48326e-07,2.31022e-06
560,-2.33703e-06,1.087e-05,4.93756e-05,5.33534e-05,4.97209e-06,6.32048e-06
561,3.52131e-06,1.34727e-05,4.60675e-05,5.33464e-05,9.52171e-06,1.34742e-05
562,8.86261e-06,1.36344e-05,4.121e-05,5.47423e-05,8.7198e-06,2.25774e-05
563,7.63213e-06,1.24422e-05,3.81248e-05,5.48409e-05,3.43194e-06,2.77134e-05
564,5.44519e-06,1.31927e-05,3.86857e-05,5.29406e-05,-3.05767e-06,2.84194e-05
565,-1.67297e-06,1.52692e-05,3.70999e-05,4.97398e-05,-2.56741e-06,2.5267e-05
566,-9.90141e-06,1.77783e-05,3.45655e-05,4.91937e-05,7.56229e-07,1.99406e-05
567,-7.34248e-06,1.60283e-05,3.58713e-05,5.15685e-05,-1.7339e-06,1.58483e-05
568,3.5081e-06,1.13669e-05,3.89796e-05,5.46417e-05,-4.18445e-06,1.2839e-05
569,8.88164e-06,7.36473e-06,4.00057e-05,5.52253e-05,1.88796e-06,1.06328e-05
570,5.23345e-06,6.11892e-06,3.77684e-05,5.31588e-05,1.06506e-05,1.10738e-05
571,-6.50052e-06,5.59435e-06,3.26681e-05,5.00522e-05,1.46121e-05,9.97118e-06
572,-1.95881e-05,4.90343e-06,2.94281e-05,4.94825e-05,1.00076e-05,7.25379e-06
573,-2.15014e-05,5.47319e-06,3.26085e-05,5.18408e-05,4.82827e-07,9.30254e-06
574,-1.27787e-05,7.26191e-06,3.85612e-05,5.3399e-05,-2.17359e-06,1.60284e-05
575,-6.04475e-06,9.46245e-06,4.07408e-05,5.31734e-05,4.93532e-06,2.04802e-05
576,-7.49002e-06,1.01832e-05,3.9222e-05,5.04631e-05,1.23199e-05,2.02691e-05
577,-1.33946e-05,1.07637e-05,3.61048e-05,4.68413e-05,1.37861e-05,1.74151e-05
578,-1.96076e-05,1.27651e-05,3.2393e-05,4.52625e-05,1.25306e-05,1.39451e-05
579,-1.69326e-05,1.45371e-05,3.36252e-05,4.6901e-05,9.07229e-06,1.52059e-05
580,-4.60871e-06,1.36162e-05,3.94309e-05,4.84768e-05,7.22556e-06,2.16645e-05
581,4.10158e-06,1.22001e-05,4.14461e-05,4.76291e-05,1.38499e-05,2.57872e-05
582,1.3566e-06,1.2861e-05,3.62031e-05,4.39995e-05,2.49238e-05,2.26041e-05
583,-7.94963e-06,1.37989e-05,3.02516e-05,4.04184e-05,3.10578e-05,1.26275e-05
584,-2.09526e-05,1.29726e-05,2.5734e-05,4.12223e-05,3.25473e-05,-6.36654e-07
585,-2.3992e-05,9.84831e-06,2.50479e-05,4.54313e-05,2.70734e-05,-6.24348e-06
586,-9.42836e-06,4.81983e-06,3.24007e-05,4.97222e-05,2.02662e-05,2.56459e-06
587,-2.10243e-08,2.68194e-06,3.88265e-05,5.09547e-05,2.10818e-05,1.401e-05
588,-1.7456e-06,3.73454e-06,3.95196e-05,5.08101e-05,2.58145e-05,1.91403e-05
589,-1.81115e-06,5.32494e-06,3.86702e-05,5.30225e-05,3.2542e-05,1.75387e-05
590,-6.61658e-07,6.01079e-06,3.961e-05,5.33966e-05,3.75844e-05,1.30873e-05
591,-1.97829e-06,5.72758e-06,3.96519e-05,5.02093e-05,3.67471e-05,1.329e-05
592,-1.21471e-05,7.76432e-06,3.56272e-05,4.74061e-05,3.26977e-05,1.582e-05
593,-2.41244e-05,1.27892e-05,3.21937e-05,4.91899e-05,2.43101e-05,1.5795e-05
594,-2.23445e-05,1.61881e-05,3.25628e-05,5.23669e-05,1.32405e-05,1.33104e-05
595,-8.92984e-06,1.78529e-05,3.52736e-05,5.45452e-05,8.34554e-06,9.74699e-06
596,1.18698e-06,1.93694e-05,3.61902e-05,5.33047e-05,1.4246e-05,7.12987e-06
597,2.86003e-06,2.04169e-05,3.60626e-05,4.9401e-05,2.16772e-05,7.15343e-06
598,-4.54859e-06,2.01293e-05,3.44896e-05,4.67919e-05,2.4453e-05,8.12093e-06
599,-1.50763e-05,1.99512e-05,3.26283e-05,4.78158e-05,2.22328e-05,8.49684e-06
600,-1.58436e-05,2.09604e-05,3.15082e-05,5.10218e-05,1.56509e-05,8.42144e-06
601,-6.2482e-06,1.97281e-05,3.12256e-05,5.28259e-05,1.00098e-05,1.05843e-05
602,8.32077e-07,1.59192e-05,3.09567e-05,5.11175e-05,1.16213e-05,1.51612e-05
603,-4.07977e-07,1.23641e-05,3.00955e-05,4.72855e-05,1.62954e-05,1.82932e-05
604,-8.6468e-06,1.12069e-05,2.81351e-05,4.64718e-05,1.80504e-05,1.82272e-05
605,-2.00198e-05,1.01217e-05,2.70396e-05,5.02185e-05,1.87332e-05,1.76977e-05
606,-2.04836e-05,6.92768e-06,3.03642e-05,5.46816e-05,1.92395e-05,2.14799e-05
607,-8.47771e-06,2.07754e-06,3.54915e-05,5.55055e-05,2.25652e-05,2.68634e-05
608,-4.84785e-07,1.15623e-06,3.65485e-05,5.43707e-05,3.15816e-05,2.94363e-05
609,-3.63441e-06,5.21782e-06,3.35599e-05,5.26121e-05,3.80537e-05,2.97262e-05
610,-1.09822e-05,7.81073e-06,3.06599e-05,5.12678e-05,3.60841e-05,2.66973e-05
611,-1.98695e-05,6.42804e-06,2.88092e-05,5.22074e-05,3.44177e-05,1.7675e-05
612,-2.10197e-05,6.10443e-06,3.26887e-05,5.42408e-05,3.48081e-05,8.9885e-06
613,-1.22545e-05,9.10265e-06,3.85083e-05,5.40979e-05,3.86521e-05,9.13703e-06
614,-6.11874e-06,1.24218e-05,4.04852e-05,5.23696e-05,5.09104e-05,1.59477e-05
615,-8.07012e-07,1.57554e-05,4.30731e-05,5.30068e-05,6.61349e-05,2.74556e-05
616,6.50224e-06,1.78535e-05,4.84366e-05,5.59634e-05,7.13471e-05,3.76472e-05
617,8.51227e-06,1.66531e-05,4.99315e-05,5.58117e-05,6.5367e-05,3.53461e-05
618,5.2342e-06,1.5732e-05,4.71031e-05,5.24511e-05,5.51284e-05,2.26364e-05
619,-5.10824e-06,1.89312e-05,4.38391e-05,4.90748e-05,4.97863e-05,7.59965e-06
620,-1.54568e-05,2.07698e-05,4.28948e-05,5.13421e-05,4.66163e-05,-2.51376e-06
621,-1.31207e-05,1.90615e-05,4.52513e-05,5.7012e-05,3.67302e-05,-3.14415e-06
622,-1.57237e-06,1.64743e-05,4.67855e-05,6.26873e-05,2.5087e-05,3.00261e-06
623,4.25104e-06,1.33156e-05,4.42586e-05,6.36039e-05,2.26714e-05,1.06425e-05
624,1.74668e-06,1.07302e-05,4.16575e-05,5.86382e-05,2.80501e-05,1.63293e-05
625,-4.29959e-06,8.25097e-06,4.04753e-05,5.35184e-05,3.4259e-05,1.74559e-05
626,-9.66779e-06,7.18515e-06,4.1157e-05,5.45329e-05,3.67042e-05,1.51631e-05
627,-9.44365e-06,9.05177e-06,4.44761e-05,5.93422e-05,3.57107e-05,1.52978e-05
628,-3.445e-06,1.29575e-05,4.77699e-05,6.07594e-05,3.74461e-05,2.02676e-05
629,2.6327e-06,1.50492e-05,4.70211e-05,5.87151e-05,4.49574e-05,2.39341e-05
630,2.96052e-06,1.44001e-05,4.35382e-05,5.42286e-05,5.41266e-05,2.19666e-05
631,-6.35462e-06,1.52918e-05,4.12542e-05,5.11809e-05,5.96319e-05,1.68803e-05
632,-2.07412e-05,1.84854e-05,3.95456e-05,5.29495e-05,5.97826e-05,1.33819e-05
633,-2.28628e-05,2.17223e-05,4.00024e-05,5.81329e-05,5.03883e-05,1.60253e-05
634,-1.02426e-05,2.44742e-05,4.33684e-05,6.09792e-05,3.68763e-05,2.40345e-05
635,1.52786e-06,2.57146e-05,4.44093e-05,5.9595e-05,3.39396e-05,2.94776e-05
636,2.14013e-06,2.36602e-05,3.9616e-05,5.46834e-05,3.90381e-05,2.8943e-05
637,-5.613e-06,1.88288e-05,3.41518e-05,5.05953e-05,3.76881e-05,2.49957e-05
638,-1.43052e-05,1.4885e-05,3.2183e-05,4.94747e-05,3.32174e-05,1.83558e-05
639,-1.14381e-05,1.46171e-05,3.40531e-05,5.03579e-05,2.90532e-05,1.45094e-05
640,3.40938e-06,1.36131e-05,3.81908e-05,4.96416e-05,2.73318e-05,1.79162e-05
641,1.20508e-05,8.89237e-06,3.89073e-05,4.65056e-05,3.2231e-05,2.19055e-05
642,1.20546e-05,7.06593e-06,3.82721e-05,4.65479e-05,3.82318e-05,2.62403e-05
643,1.03781e-05,1.25355e-05,3.9836e-05,5.15875e-05,3.4942e-05,3.15285e-05
644,9.19884e-06,1.89243e-05,3.93607e-05,5.51338e-05,2.39259e-05,3.24577e-05
645,8.658e-06,2.02098e-05,3.77445e-05,5.51312e-05,1.41768e-05,2.77306e-05
646,7.06354e-07,1.79354e-05,3.41162e-05,5.51692e-05,7.10491e-06,1.80789e-05
647,-1.00932e-05,1.55384e-05,3.19239e-05,5.81136e-05,7.72287e-07,1.10776e-05
648,-1.10009e-05,1.54079e-05,3.14088e-05,5.8394e-05,-4.45786e-06,1.12551e-05
649,-1.74665e-06,1.60353e-05,3.02911e-05,5.42924e-05,4.92496e-07,1.52973e-05
650,6.07995e-06,1.21051e-05,2.96545e-05,4.94726e-05,1.79341e-05,1.8341e-05
651,7.81071e-06,7.38325e-06,3.1441e-05,4.66845e-05,3.42725e-05,1.98008e-05
652,2.61515e-07,6.89047e-06,3.40331e-05,4.5863e-05,4.07814e-05,1.67029e-05
653,-1.20759e-05,8.47734e-06,3.5317e-05,4.5735e-05,4.13258e-05,1.0306e-05
654,-1.71315e-05,7.89178e-06,3.73784e-05,4.69092e-05,4.13837e-05,8.45157e-06
655,-1.08089e-05,3.99275e-06,3.98043e-05,4.81009e-05,4.48616e-05,1.43397e-05
656,-6.38447e-07,-1.03708e-06,4.25357e-05,4.78987e-05,5.32497e-05,2.23912e-05
657,4.59811e-06,-2.26489e-06,4.38759e-05,4.44322e-05,5.9444e-05,2.50402e-05
658,-1.89352e-07,3.11798e-06,4.05713e-05,4.20696e-05,5.81306e-05,2.07367e-05
659,-1.20911e-05,9.19063e-06,3.41792e-05,4.446e-05,5.15761e-05,1.37517e-05
660,-1.63337e-05,9.40595e-06,3.29797e-05,4.81413e-05,4.55577e-05,1.03969e-05
661,-8.64695e-06,7.61277e-06,3.79388e-05,4.83885e-05,4.32627e-05,1.13261e-05
662,-7.5827e-07,9.17031e-06,4.27306e-05,4.68254e-05,4.41764e-05,1.3372e-05
663,-1.34061e-06,1.05996e-05,4.18329e-05,4.70908e-05,4.51874e-05,1.27412e-05
664,-9.25855e-06,8.64743e-06,3.44728e-05,5.00918e-05,4.41496e-05,8.94032e-06
665,-2.27983e-05,6.51063e-06,2.55971e-05,5.22337e-05,4.22893e-05,4.54174e-06
666,-2.63849e-05,8.15303e-06,2.55152e-05,5.09231e-05,3.92727e-05,7.24142e-06
667,-1.20064e-05,1.34147e-05,3.51079e-05,4.73277e-05,3.88347e-05,1.5446e-05
668,1.29346e-06,1.42478e-05,3.89552e-05,4.68927e-05,4.14102e-05,1.74747e-05
669,5.78116e-06,7.44793e-06,3.53856e-05,4.96448e-05,4.11689e-05,1.95314e-05
670,6.76454e-06,2.53583e-06,3.1908e-05,5.05598e-05,3.99698e-05,2.53913e-05
671,4.30027e-06,5.17461e-06,2.99841e-05,4.88909e-05,4.04919e-05,2.70428e-05
672,2.06734e-06,1.19004e-05,2.94324e-05,4.57607e-05,3.92594e-05,2.46413e-05
673,-5.41599e-06,1.47122e-05,2.81927e-05,4.37878e-05,3.67027e-05,2.00842e-05
674,-1.62001e-05,1.5229e-05,2.95691e-05,4.51732e-05,3.43521e-05,1.72625e-05
675,-1.63898e-05,1.46889e-05,3.29849e-05,4.74091e-05,3.23307e-05,1.92608e-05
676,-5.75457e-06,1.3932e-05,3.46133e-05,4.90736e-05,3.26916e-05,2.47965e-05
677,2.11775e-06,1.35681e-05,3.17158e-05,4.75136e-05,3.66561e-05,2.80505e-05
678,2.3269e-07,1.21205e-05,2.85646e-05,4.34591e-05,3.827e-05,2.48022e-05
679,-9.3844e-06,1.05887e-05,2.67665e-05,4.1906e-05,3.69719e-05,1.45673e-05
680,-1.76549e-05,1.03833e-05,2.68009e-05,4.54977e-05,3.16176e-05,5.93038e-06
681,-1.52235e-05,1.04008e-05,3.10291e-05,5.10952e-05,2.17304e-05,6.53801e-06
682,-5.12607e-06,7.5957e-06,3.73807e-05,5.30662e-05,1.5523e-05,1.20071e-05
683,3.02414e-06,2.93727e-06,4.03794e-05,5.11022e-05,1.84865e-05,1.42072e-05
684,5.52207e-06,-1.99302e-07,3.76502e-05,4.87993e-05,2.33633e-05,1.3457e-05
685,1.93259e-06,1.37996e-06,3.30368e-05,4.93835e-05,2.38719e-05,1.39766e-05
686,-6.32105e-06,5.50996e-06,2.95539e-05,5.18689e-05,2.43702e-05,1.42903e-05
687,-9.14337e-06,9.41806e-06,3.12317e-05,5.27286e-05,2.48884e-05,1.48043e-05
688,-1.68476e-06,1.20568e-05,3.58183e-05,5.14346e-05,2.44552e-05,1.6563e-05
689,6.86019e-06,1.44063e-05,3.92096e-05,5.18582e-05,2.93095e-05,1.77865e-05
690,7.48365e-06,1.62295e-05,3.98411e-05,5.2895e-05,3.68476e-05,1.88161e-05
691,-1.14735e-06,1.92425e-05,3.61293e-05,5.33645e-05,3.62227e-05,1.80292e-05
692,-1.70369e-05,2.0679e-05,2.93629e-05,5.53292e-05,3.0521e-05,1.1211e-05
693,-2.3824e-05,1.60748e-05,2.71261e-05,5.83166e-05,2.7564e-05,8.01177e-06
694,-1.51361e-05,1.05915e-05,3.20095e-05,5.81033e-05,2.90441e-05,1.30044e-05
695,-8.26277e-06,1.03361e-05,3.71775e-05,5.65872e-05,3.37182e-05,1.54157e-05
696,-7.375e-06,1.20514e-05,3.81172e-05,5.81492e-05,3.90684e-05,1.46047e-05
697,-6.6589e-06,1.00064e-05,3.82133e-05,6.05393e-05,3.70641e-05,1.57336e-05
698,-5.89386e-06,8e-06,3.86416e-05,5.87144e-05,2.8515e-05,1.59907e-05
699,-5.25692e-06,8.77114e-06,3.68761e-05,5.30233e-05,2.35826e-05,1.39331e-05
700,-1.12413e-05,1.12938e-05,3.29891e-05,4.89153e-05,2.48017e-05,9.83984e-06
701,-1.86596e-05,1.44023e-05,3.21645e-05,5.05255e-05,2.48263e-05,8.83156e-06
702,-1.51191e-05,1.50496e-05,3.40345e-05,5.47983e-05,2.31863e-05,1.37471e-05
703,-4.29383e-06,1.20654e-05,3.63007e-05,5.78392e-05,2.76134e-05,1.91209e-05
704,2.94274e-06,6.66296e-06,3.91761e-05,5.8053e-05,3.89209e-05,2.01121e-05
705,5.07966e-06,5.88138e-06,4.22231e-05,5.64129e-05,4.83112e-05,1.72829e-05
706,1.28082e-06,1.00101e-05,4.24443e-05,5.58493e-05,5.19074e-05,1.37952e-05
707,-5.19797e-06,1.27873e-05,3.9641e-05,5.81979e-05,4.8905e-05,1.2484e-05
708,-6.00768e-06,1.35599e-05,3.86945e-05,6.04241e-05,3.80706e-05,1.25178e-05
709,-5.48638e-07,1.52851e-05,4.0261e-05,5.94089e-05,2.84535e-05,1.14927e-05
710,3.04909e-06,1.80013e-05,4.15356e-05,5.71806e-05,3.04932e-05,1.05733e-05
711,2.12401e-06,1.84244e-05,4.068e-05,5.4924e-05,3.84061e-05,1.13718e-05
712,-3.08115e-06,1.7234e-05,3.66774e-05,5.40841e-05,3.89766e-05,8.92379e-06
713,-1.13294e-05,1.83022e-05,3.08486e-05,5.59116e-05,2.96202e-05,4.74307e-07
714,-1.31054e-05,2.06098e-05,2.99196e-05,5.88309e-05,1.91846e-05,-5.49926e-06
715,-6.07804e-06,2.18846e-05,3.38034e-05,5.96942e-05,1.7235e-05,-2.71937e-06
716,-5.82868e-07,2.44413e-05,3.72611e-05,5.91224e-05,2.46988e-05,5.04377e-06
717,-2.95336e-06,2.39998e-05,3.86164e-05,5.68609e-05,3.42944e-05,1.19649e-05
718,-1.01569e-05,1.95989e-05,3.69532e-05,5.39388e-05,3.54391e-05,1.34819e-05
719,-2.25271e-05,1.84739e-05,3.13638e-05,5.54087e-05,2.90994e-05,7.82634e-06
720,-2.67578e-05,2.13629e-05,2.88336e-05,6.08033e-05,2.00559e-05,3.71018e-06
721,-1.46558e-05,2.38947e-05,3.38977e-05,6.44905e-05,1.52525e-05,6.14558e-06
722,-4.82227e-06,2.61788e-05,3.85515e-05,6.1414e-05,1.86595e-05,7.17849e-06
723,-4.68504e-06,2.82341e-05,3.96841e-05,5.68156e-05,2.723e-05,5.0809e-06
724,-4.61923e-06,2.9457e-05,4.27925e-05,5.62866e-05,3.43991e-05,6.25784e-06
725,-2.64093e-06,2.49682e-05,4.61743e-05,5.54694e-05,3.53182e-05,8.72856e-06
726,-2.18112e-06,1.69157e-05,4.4559e-05,5.34682e-05,3.22172e-05,9.96157e-06
727,-9.46534e-06,1.34211e-05,3.96731e-05,5.24146e-05,2.78904e-05,9.10823e-06
728,-1.96536e-05,1.39323e-05,3.76227e-05,5.51555e-05,2.1534e-05,9.35401e-06
729,-1.87113e-05,1.81755e-05,4.00988e-05,5.86464e-05,1.27678e-05,1.44332e-05
730,-8.46378e-06,2.2638e-05,4.38262e-05,5.96844e-05,1.08699e-05,1.96986e-05
731,-1.80827e-06,2.45554e-05,4.38456e-05,5.64827e-05,1.72995e-05,1.91962e-05
732,-3.80237e-06,2.28372e-05,3.9503e-05,5.19612e-05,2.23516e-05,1.47181e-05
733,-1.19796e-05,1.88479e-05,3.26224e-05,4.95337e-05,2.31794e-05,8.24395e-06
734,-1.85784e-05,1.48454e-05,2.66792e-05,5.08523e-05,1.91314e-05,2.60104e-06
735,-1.47344e-05,1.29121e-05,2.71491e-05,5.43818e-05,9.18411e-06,2.65427e-06
736,-1.86389e-06,1.3544e-05,3.33697e-05,5.69543e-05,1.53034e-06,5.13951e-06
737,7.33754e-06,1.40616e-05,3.77287e-05,5.5859e-05,4.77517e-06,4.26709e-06
738,6.89501e-06,1.25747e-05,3.83018e-05,5.0727e-05,1.15073e-05,1.19751e-06
739,-1.85814e-06,1.03454e-05,3.78984e-05,4.717e-05,1.1305e-05,-5.4619e-07
740,-1.25844e-05,8.52203e-06,3.81408e-05,4.65292e-05,3.64018e-06,-1.60856e-06
741,-1.23848e-05,7.02511e-06,4.27383e-05,4.63684e-05,-4.79856e-06,9.5739e-07
742,-5.32543e-07,8.9348e-06,4.93031e-05,4.53599e-05,-4.02019e-06,9.19476e-06
743,9.39381e-06,1.19228e-05,4.96588e-05,4.37938e-05,8.27735e-06,1.64158e-05
744,8.89153e-06,1.05672e-05,4.38185e-05,3.94798e-05,1.88415e-05,1.77283e-05
745,-1.73377e-06,6.5354e-06,3.71535e-05,3.64104e-05,1.96278e-05,1.48351e-05
746,-1.63868e-05,4.81464e-06,3.38575e-05,3.92363e-05,1.50778e-05,8.71099e-06
747,-1.65665e-05,6.08039e-06,3.68491e-05,4.54336e-05,8.40708e-06,4.1025e-06
748,-5.71338e-07,7.31646e-06,4.23804e-05,4.8872e-05,4.0424e-06,5.2049e-06
749,6.50823e-06,6.70593e-06,4.37187e-05,4.81219e-05,6.69386e-06,7.84829e-06
750,2.98671e-06,6.30374e-06,4.29617e-05,4.97897e-05,1.31754e-05,9.02015e-06
751,1.26237e-06,5.42872e-06,4.46832e-05,5.2229e-05,1.58096e-05,9.49041e-06
752,5.36284e-07,3.51867e-06,4.32054e-05,4.96941e-05,1.45323e-05,6.43996e-06
753,3.63182e-07,3.32062e-06,3.9493e-05,4.60695e-05,1.24553e-05,3.23151e-07
754,-5.93597e-06,5.74058e-06,3.61044e-05,4.52065e-05,1.07984e-05,-6.25269e-06
755,-1.53e-05,8.26515e-06,3.50843e-05,4.86548e-05,4.10527e-06,-8.93616e-06
756,-1.43488e-05,8.80861e-06,3.89912e-05,4.97019e-05,-6.94109e-06,-3.78477e-06
757,-3.8817e-06,6.80923e-06,4.42992e-05,4.75422e-05,-7.97933e-06,6.52646e-06
758,2.91955e-06,4.33315e-06,4.654e-05,4.56291e-05,5.17853e-06,1.53001e-05
759,7.01064e-07,6.35539e-06,4.5654e-05,4.55332e-05,1.815e-05,1.71041e-05
760,-8.40508e-06,1.27082e-05,4.22107e-05,4.83052e-05,1.95726e-05,1.35256e-05
761,-1.72543e-05,1.72104e-05,3.72637e-05,5.30793e-05,1.09093e-05,1.02577e-05
762,-1.65578e-05,1.8089e-05,3.61102e-05,5.63615e-05,-1.90653e-06,1.23081e-05
763,-8.38789e-06,1.65573e-05,3.81671e-05,5.61715e-05,-1.00374e-05,1.83473e-05
764,-3.76332e-06,1.37416e-05,3.84454e-05,5.53882e-05,-7.78741e-06,2.24327e-05
765,-7.69074e-06,1.10366e-05,3.52283e-05,5.36821e-05,-2.18767e-06,2.11386e-05
766,-1.64458e-05,9.48354e-06,3.12097e-05,5.18475e-05,-1.41022e-06,1.47699e-05
767,-2.33312e-05,1.02025e-05,2.86385e-05,5.23722e-05,-5.49095e-06,8.07323e-06
768,-2.0061e-05,1.39012e-05,3.08426e-05,5.47796e-05,-1.09496e-05,8.99632e-06
769,-7.04371e-06,1.85479e-05,3.5774e-05,5.59399e-05,-1.28748e-05,1.69275e-05
770,3.74444e-06,1.96828e-05,3.62549e-05,5.58838e-05,-6.92719e-06,2.26672e-05
771,6.28732e-06,1.69834e-05,3.2711e-05,5.47071e-05,2.63847e-06,2.25424e-05
772,4.10769e-07,1.4372e-05,2.90685e-05,5.34529e-05,7.98544e-06,1.65333e-05
773,-1.28063e-05,1.25836e-05,2.80029e-05,5.44899e-05,8.84442e-06,8.88695e-06
774,-1.59103e-05,1.22549e-05,3.37432e-05,5.7907e-05,6.12469e-06,7.77473e-06
775,-3.0038e-06,1.45741e-05,4.02929e-05,5.75433e-05,7.41854e-06,1.08905e-05
776,4.95767e-06,1.73971e-05,3.80197e-05,5.43923e-05,1.52285e-05,8.99621e-06
777,4.96442e-06,2.03047e-05,3.26103e-05,5.42924e-05,2.29987e-05,6.73095e-06
778,6.08489e-06,1.90667e-05,3.32135e-05,5.61139e-05,2.62958e-05,9.95762e-06
779,7.70544e-06,1.36684e-05,3.79428e-05,5.44909e-05,2.66386e-05,1.42538e-05
780,7.72066e-06,9.62439e-06,3.97196e-05,5.06174e-05,2.79842e-05,1.63125e-05
781,-1.15768e-06,9.72873e-06,3.43058e-05,4.85252e-05,2.98815e-05,1.23024e-05
782,-1.26146e-05,1.1364e-05,2.95452e-05,4.96179e-05,3.01038e-05,5.93681e-06
783,-1.20017e-05,1.21089e-05,3.32407e-05,5.082e-05,2.75709e-05,5.44608e-06
784,-1.80723e-06,1.05097e-05,4.02984e-05,5.1009e-05,2.76075e-05,1.44797e-05
785,5.95198e-06,7.90731e-06,4.47222e-05,4.9432e-05,3.25661e-05,2.25989e-05
786,6.71666e-06,6.05785e-06,4.44962e-05,4.35804e-05,3.8399e-05,2.36261e-05
787,-1.32278e-06,5.36766e-06,4.00098e-05,3.82493e-05,4.2e-05,2.04746e-05
788,-1.24709e-05,5.45033e-06,3.36863e-05,3.87314e-05,4.18515e-05,1.83091e-05
789,-1.4259e-05,3.49887e-06,3.21723e-05,4.50451e-05,3.57702e-05,2.16605e-05
790,-5.10382e-06,7.68454e-07,3.74204e-05,5.05466e-05,2.99616e-05,2.70304e-05
791,3.90888e-06,-1.88458e-07,4.38491e-05,5.10172e-05,3.39954e-05,2.83558e-05
792,4.72733e-06,2.07749e-06,4.7093e-05,4.78956e-05,4.2474e-05,2.45456e-05
793,-2.17164e-06,4.83838e-06,4.6991e-05,4.63683e-05,4.53155e-05,1.8165e-05
794,-1.17205e-05,5.06245e-06,4.48311e-05,4.8042e-05,4.00036e-05,9.5048e-06
795,-1.27081e-05,5.73535e-06,4.34733e-05,4.89726e-05,3.04285e-05,5.1502e-06
796,-2.89843e-06,9.74445e-06,4.4563e-05,4.70603e-05,2.78635e-05,1.12804e-05
797,6.55363e-06,1.40051e-05,4.37234e-05,4.51885e-05,3.92158e-05,2.30208e-05
798,5.79717e-06,1.4342e-05,3.80909e-05,4.52428e-05,5.02449e-05,2.9717e-05
799,-5.4193e-06,1.07716e-05,2.98781e-05,4.57728e-05,4.9466e-05,2.89566e-05
800,-2.15797e-05,1.16213e-05,2.31043e-05,4.69608e-05,4.16061e-05,2.38842e-05
801,-2.656e-05,1.65595e-05,2.15322e-05,4.88868e-05,3.19092e-05,2.41648e-05
802,-1.5484e-05,1.66547e-05,2.47496e-05,4.98119e-05,3.11366e-05,3.38998e-05
803,-8.23146e-06,1.38239e-05,2.6745e-05,4.93923e-05,4.65607e-05,4.17251e-05
804,-7.62172e-06,1.57684e-05,2.6953e-05,4.8826e-05,6.26895e-05,4.18002e-05
805,-8.18154e-06,1.91021e-05,2.78448e-05,4.97961e-05,6.39554e-05,3.8714e-05
806,-1.03383e-05,2.00892e-05,3.06152e-05,5.07768e-05,5.45774e-05,3.95128e-05
807,-1.30288e-05,1.87212e-05,3.53533e-05,4.98538e-05,4.86761e-05,4.39989e-05
808,-2.10325e-05,1.6335e-05,3.53834e-05,4.98273e-05,5.01448e-05,4.27944e-05
809,-2.86788e-05,1.76828e-05,3.31167e-05,5.28249e-05,4.79484e-05,3.68704e-05
810,-2.49879e-05,1.96009e-05,3.53194e-05,5.38195e-05,3.95639e-05,3.21018e-05
811,-1.29082e-05,2.01238e-05,4.05177e-05,5.19632e-05,3.48702e-05,3.12624e-05
812,-4.91333e-06,1.83197e-05,4.22571e-05,4.9507e-05,3.96244e-05,3.20206e-05
813,-4.13138e-06,1.3843e-05,3.95483e-05,4.58149e-05,4.4279e-05,3.13037e-05
814,-1.08599e-05,9.57702e-06,3.49148e-05,4.45193e-05,4.01118e-05,2.60605e-05
815,-1.90319e-05,8.22819e-06,3.20827e-05,4.92661e-05,2.88918e-05,1.88213e-05
816,-1.89551e-05,9.53796e-06,3.54732e-05,5.44081e-05,1.75715e-05,1.74926e-05
817,-1.00706e-05,1.29739e-05,4.24198e-05,5.33172e-05,1.49675e-05,2.10321e-05
818,-1.7128e-06,1.70805e-05,4.57753e-05,4.88612e-05,2.3144e-05,2.22153e-05
819,-1.13568e-06,1.95026e-05,4.3434e-05,4.58883e-05,3.2037e-05,1.90319e-05
820,-9.88481e-06,2.00386e-05,3.97702e-05,4.64995e-05,3.39694e-05,1.29731e-05
821,-2.23251e-05,1.7867e-05,3.74927e-05,4.84489e-05,3.00682e-05,4.41481e-06
822,-2.45579e-05,1.33661e-05,3.95083e-05,4.93518e-05,2.3079e-05,1.44805e-06
823,-1.32995e-05,1.03465e-05,4.49171e-05,4.91867e-05,1.96094e-05,7.7402e-06
824,-1.53857e-06,1.03496e-05,5.10389e-05,4.87135e-05,2.55841e-05,1.6525e-05
825,1.22635e-06,1.16978e-05,5.28183e-05,4.78744e-05,3.53187e-05,2.12378e-05
826,-4.83378e-06,1.54505e-05,4.60165e-05,4.77001e-05,4.24547e-05,2.07598e-05
827,-1.84969e-05,2.13675e-05,3.55146e-05,4.87212e-05,4.23614e-05,1.49867e-05
828,-2.09772e-05,2.46072e-05,3.21505e-05,4.97362e-05,3.14106e-05,1.0515e-05
829,-4.34305e-06,2.32303e-05,3.58277e-05,5.13168e-05,1.94221e-05,1.06092e-05
830,9.02904e-06,2.11044e-05,3.72492e-05,5.25364e-05,1.72225e-05,9.86855e-06
831,1.19271e-05,1.95115e-05,3.85212e-05,5.28674e-05,2.33424e-05,5.94797e-06
832,1.35475e-05,1.69658e-05,4.20121e-05,5.29937e-05,2.75809e-05,1.14007e-06
833,1.26633e-05,1.34762e-05,4.47043e-05,5.19176e-05,2.74262e-05,2.97958e-07
834,8.82847e-06,1.10761e-05,4.46319e-05,5.09694e-05,2.61463e-05,2.21243e-06
835,-6.81348e-08,9.06641e-06,4.01917e-05,5.23922e-05,2.70179e-05,7.16053e-07
836,-9.65449e-06,8.53696e-06,3.67579e-05,5.75525e-05,2.65297e-05,-3.30263e-06
837,-1.00704e-05,1.00645e-05,3.88848e-05,6.20498e-05,2.18353e-05,-2.21351e-06
838,-2.05026e-06,1.1028e-05,4.28192e-05,6.2352e-05,2.26509e-05,5.26286e-06
839,4.31073e-06,9.01202e-06,4.13298e-05,5.82946e-05,3.44339e-05,1.08728e-05
840,4.17672e-06,6.11801e-06,3.46977e-05,5.28023e-05,4.7319e-05,1.05935e-05
841,-2.40474e-06,7.92415e-06,2.89744e-05,5.00414e-05,5.30536e-05,5.19407e-06
842,-1.09375e-05,1.09894e-05,2.8562e-05,5.09245e-05,4.74446e-05,-1.26739e-06
843,-1.24246e-05,1.1118e-05,3.40735e-05,5.28968e-05,3.81183e-05,-2.33189e-06
844,-5.68339e-06,1.06289e-05,4.05224e-05,5.31989e-05,3.81001e-05,2.56084e-06
845,1.20826e-06,1.11126e-05,4.30057e-05,5.32362e-05,4.56823e-05,6.90358e-06
846,2.06084e-06,9.76959e-06,4.0994e-05,5.34888e-05,4.79483e-05,8.17124e-06
847,-3.5204e-06,6.50705e-06,3.72851e-05,5.48479e-05,4.22702e-05,6.99817e-06
848,-1.23344e-05,5.20026e-06,3.58326e-05,5.82671e-05,3.59412e-05,2.91199e-06
849,-1.3706e-05,7.12889e-06,3.86061e-05,6.15036e-05,3.07785e-05,2.22915e-06
850,-5.00505e-06,8.84726e-06,4.21939e-05,5.94997e-05,3.10093e-05,8.55145e-06
851,2.38228e-06,7.18351e-06,4.26891e-05,5.42694e-05,3.9221e-05,1.32669e-05
852,2.99402e-06,4.57336e-06,4.20217e-05,5.00177e-05,4.77143e-05,1.00177e-05
853,-2.68161e-06,6.09611e-06,4.01792e-05,4.82132e-05,5.0511e-05,2.62586e-06
854,-1.51302e-05,9.65831e-06,3.30573e-05,4.99269e-05,4.98707e-05,-1.52031e-06
855,-1.92449e-05,9.24123e-06,2.84072e-05,5.29464e-05,4.48319e-05,2.13891e-06
856,-8.72089e-06,9.23017e-06,3.07587e-05,5.4405e-05,4.04888e-05,8.96473e-06
857,-1.50257e-06,1.37112e-05,3.19143e-05,5.36099e-05,3.93884e-05,9.30928e-06
858,-2.02022e-06,2.02774e-05,3.1489e-05,5.29097e-05,4.12463e-05,5.10037e-06
859,-2.83377e-06,2.32423e-05,3.33519e-05,5.16408e-05,4.23316e-05,5.3914e-06
860,-2.90395e-06,2.09517e-05,3.54459e-05,4.97349e-05,3.82278e-05,9.34317e-06
861,-4.5584e-06,1.91266e-05,3.52809e-05,4.80872e-05,3.34331e-05,1.30222e-05
862,-1.28682e-05,1.98359e-05,3.09902e-05,4.63115e-05,3.16863e-05,1.37352e-05
863,-2.11814e-05,2.22724e-05,2.56846e-05,4.67209e-05,2.88248e-05,1.55052e-05
864,-1.7693e-05,2.26231e-05,2.52589e-05,4.75528e-05,2.2688e-05,2.03337e-05
865,-4.70694e-06,2.03341e-05,3.01981e-05,4.79148e-05,2.08135e-05,2.20723e-05
866,5.33059e-06,1.69522e-05,3.5077e-05,4.67724e-05,2.53805e-05,1.76325e-05
867,7.38017e-06,1.43776e-05,3.44357e-05,4.47416e-05,2.98777e-05,1.14145e-05
868,-4.50466e-08,1.49076e-05,2.76739e-05,4.48249e-05,3.04496e-05,5.54465e-06
869,-9.82426e-06,1.57485e-05,2.15196e-05,4.9498e-05,2.62903e-05,1.8339e-06
870,-1.09875e-05,1.27223e-05,2.3563e-05,5.39011e-05,2.03525e-05,3.78188e-06
871,-3.17543e-06,7.47416e-06,3.21145e-05,5.27388e-05,1.93787e-05,9.80888e-06
872,4.05196e-06,4.22842e-06,3.94511e-05,4.86309e-05,2.68347e-05,1.39906e-05
873,3.63538e-06,2.76358e-06,4.191e-05,4.49371e-05,3.35051e-05,1.14263e-05
874,-5.05767e-06,1.28711e-06,4.01682e-05,4.36348e-05,3.11233e-05,2.66551e-06
875,-1.72755e-05,-8.13021e-07,3.58029e-05,4.63813e-05,2.25348e-05,-4.19328e-06
876,-1.97055e-05,-1.57066e-06,3.46322e-05,5.17576e-05,1.41204e-05,-7.65331e-07
877,-8.91166e-06,1.1872e-06,3.98086e-05,5.56726e-05,1.1114e-05,6.77054e-06
878,1.45422e-06,7.57716e-06,4.60981e-05,5.7566e-05,1.50867e-05,7.7982e-06
879,1.30497e-06,1.4041e-05,4.78284e-05,5.55637e-05,1.98159e-05,4.68139e-06
880,-7.3851e-06,1.45275e-05,4.44053e-05,5.17144e-05,2.30426e-05,4.76145e-06
881,-2.05893e-05,8.05349e-06,3.77031e-05,5.21765e-05,2.5036e-05,4.32449e-06
882,-2.43094e-05,4.14962e-06,3.44652e-05,5.63711e-05,1.83916e-05,3.55931e-06
883,-1.26113e-05,6.30564e-06,3.725e-05,5.79671e-05,8.80783e-06,9.46613e-06
884,-3.21599e-06,7.73907e-06,3.9368e-05,5.48053e-05,5.99898e-06,1.54633e-05
885,-2.22581e-06,8.92447e-06,4.14734e-05,5.20323e-05,8.30402e-06,1.64157e-05
886,-4.20285e-06,1.07611e-05,4.50507e-05,5.37331e-05,9.40418e-06,1.61499e-05
887,-7.85503e-06,1.24754e-05,4.58719e-05,5.63006e-05,1.21144e-05,1.63183e-05
888,-8.64614e-06,1.32947e-05,4.23188e-05,5.68441e-05,1.47962e-05,1.68777e-05
889,-1.39134e-05,1.35283e-05,3.49062e-05,5.59621e-05,1.08128e-05,1.39071e-05
890,-2.12459e-05,1.66779e-05,3.09907e-05,5.64414e-05,2.67514e-06,9.81112e-06
891,-1.7445e-05,1.83923e-05,3.50044e-05,5.60224e-05,-2.05398e-06,1.02348e-05
892,-4.53566e-06,1.86126e-05,4.15327e-05,5.43427e-05,1.99414e-06,1.58338e-05
893,4.44665e-06,1.75954e-05,4.36045e-05,5.17262e-05,1.12107e-05,2.05043e-05
894,4.02923e-06,1.60468e-05,4.0619e-05,4.97133e-05,1.59317e-05,1.97471e-05
895,-4.83093e-06,1.5179e-05,3.42869e-05,5.00281e-05,1.55768e-05,1.43658e-05
896,-1.3142e-05,1.22269e-05,2.8883e-05,5.24223e-05,1.43715e-05,9.36593e-06
897,-1.19277e-05,9.24841e-06,2.9931e-05,5.43351e-05,1.45866e-05,1.01227e-05
898,-4.03483e-06,8.93498e-06,3.54884e-05,5.27197e-05,1.78065e-05,1.66148e-05
899,1.37828e-06,9.67958e-06,3.98036e-05,4.92977e-05,2.47275e-05,2.28508e-05
900,4.12079e-07,9.53452e-06,3.93868e-05,4.56954e-05,2.93547e-05,2.45899e-05
901,-5.39211e-06,9.9586e-06,3.52476e-05,4.48557e-05,2.80655e-05,2.20788e-05
902,-1.30383e-05,8.65561e-06,3.15612e-05,4.82375e-05,2.55677e-05,1.54213e-05
903,-1.34709e-05,5.86562e-06,3.29809e-05,5.26681e-05,2.21064e-05,1.00274e-05
904,-4.20579e-06,5.82565e-06,3.7205e-05,5.36995e-05,1.81463e-05,1.19909e-05
905,4.11823e-06,7.8594e-06,3.95392e-05,5.25487e-05,2.02568e-05,1.96852e-05
906,3.89652e-06,6.55636e-06,3.75757e-05,5.01248e-05,2.63795e-05,2.48353e-05
907,-3.36761e-06,4.39157e-06,3.3335e-05,4.93681e-05,2.96839e-05,2.14126e-05
908,-1.70705e-05,7.07506e-06,3.00456e-05,5.36543e-05,2.92554e-05,1.28886e-05
909,-2.08615e-05,1.30907e-05,3.26133e-05,5.89181e-05,2.07618e-05,1.12272e-05
910,-7.97621e-06,1.69491e-05,4.06994e-05,5.98761e-05,1.49488e-05,1.81809e-05
911,2.31459e-07,1.82869e-05,4.4928e-05,5.77988e-05,1.88207e-05,2.30885e-05
912,-3.31438e-06,1.86898e-05,4.42457e-05,5.71627e-05,2.66479e-05,2.21972e-05
913,-6.84402e-06,1.41318e-05,4.31208e-05,5.72577e-05,3.388e-05,2.14316e-05
914,-6.38043e-06,9.61185e-06,4.39426e-05,5.42349e-05,3.76913e-05,2.17219e-05
915,-4.61226e-06,1.16647e-05,4.24086e-05,4.82453e-05,3.9063e-05,1.87937e-05
916,-9.46927e-06,1.84185e-05,3.75413e-05,4.39842e-05,3.94252e-05,1.36232e-05
917,-1.93679e-05,2.2634e-05,3.50858e-05,4.70193e-05,3.64187e-05,1.32934e-05
918,-2.04292e-05,2.12249e-05,3.84691e-05,5.28197e-05,2.91304e-05,1.93505e-05
919,-9.92203e-06,2.03229e-05,4.39804e-05,5.63686e-05,2.79865e-05,2.60582e-05
920,-5.47635e-07,1.88804e-05,4.39047e-05,5.52978e-05,3.61724e-05,2.82352e-05
921,2.02668e-06,1.65002e-05,3.89571e-05,5.10711e-05,4.45954e-05,2.56674e-05
922,-2.57408e-06,1.34602e-05,3.33404e-05,4.64684e-05,4.85252e-05,1.98812e-05
923,-1.02539e-05,1.0061e-05,3.16054e-05,4.48859e-05,4.7888e-05,1.46559e-05
924,-1.19164e-05,7.77548e-06,3.67112e-05,4.63777e-05,4.34854e-05,1.45186e-05
925,-6.1719e-06,7.5417e-06,4.40751e-05,4.71262e-05,4.15093e-05,1.79365e-05
926,-1.13361e-06,9.18715e-06,4.44094e-05,4.59565e-05,4.57891e-05,2.01711e-05
927,-1.74835e-06,1.16058e-05,3.84034e-05,4.38673e-05,5.11024e-05,2.06953e-05
928,-6.91578e-06,1.38898e-05,3.33134e-05,4.3532e-05,5.34028e-05,2.04935e-05
929,-1.26267e-05,1.52609e-05,3.07138e-05,4.63022e-05,5.20883e-05,1.82749e-05
930,-1.00982e-05,1.55404e-05,3.09189e-05,5.02097e-05,4.68151e-05,1.52943e-05
931,6.03582e-07,1.2806e-05,3.44264e-05,5.11001e-05,4.06913e-05,1.56696e-05
932,9.5249e-06,8.55394e-06,3.71925e-05,5.07801e-05,3.90845e-05,2.02469e-05
933,9.46655e-06,5.30254e-06,3.77294e-05,5.08771e-05,3.91664e-05,2.50693e-05
934,8.85193e-08,4.88288e-06,3.47016e-05,5.22463e-05,3.85379e-05,2.67103e-05
935,-1.6635e-05,5.05487e-06,2.82018e-05,5.47653e-05,3.79659e-05,2.38906e-05
936,-2.24561e-05,3.27219e-06,2.78877e-05,5.61764e-05,2.95652e-05,2.07414e-05
937,-1.03224e-05,3.03313e-06,3.58908e-05,5.59664e-05,1.72586e-05,1.98661e-05
938,-3.31495e-07,4.22536e-06,4.107e-05,5.5651e-05,2.10371e-05,2.0263e-05
939,2.96224e-06,3.08027e-06,4.0231e-05,5.28941e-05,3.45536e-05,2.07681e-05
940,3.51349e-06,1.79131e-06,3.81072e-05,4.98638e-05,4.14787e-05,1.90535e-05
941,3.38323e-06,3.75774e-06,3.62069e-05,4.80819e-05,4.28971e-05,1.473e-05
942,2.92118e-06,8.00423e-06,3.60695e-05,4.73399e-05,4.21948e-05,1.044e-05
943,-6.07207e-06,1.00745e-05,3.47209e-05,4.95433e-05,4.05467e-05,5.42788e-06
944,-1.63985e-05,1.20203e-05,3.06516e-05,5.33986e-05,3.30682e-05,-1.99066e-07
945,-1.56479e-05,1.35782e-05,2.86283e-05,5.44308e-05,2.10401e-05,-9.39314e-07
946,-5.87279e-06,1.25597e-05,3.24377e-05,5.3609e-05,1.68548e-05,5.9049e-06
947,8.18056e-07,1.14942e-05,3.72304e-05,5.28224e-05,2.49285e-05,1.4905e-05
948,2.5392e-07,1.23192e-05,3.73518e-05,5.06753e-05,3.17264e-05,1.82559e-05
949,-6.37309e-06,1.29254e-05,3.14041e-05,4.94245e-05,3.23771e-05,1.48958e-05
950,-1.31772e-05,1.20091e-05,2.43407e-05,5.18507e-05,2.91956e-05,1.1147e-05
951,-1.19793e-05,1.14643e-05,2.40151e-05,5.64069e-05,2.66404e-05,1.31917e-05
952,-3.62453e-06,1.17566e-05,3.01693e-05,5.9729e-05,2.98808e-05,1.8462e-05
953,2.65007e-06,1.23694e-05,3.5524e-05,6.08942e-05,3.84866e-05,2.0481e-05
954,1.86577e-06,1.42616e-05,3.61835e-05,5.87107e-05,4.34243e-05,1.94208e-05
955,-4.47025e-06,1.69714e-05,3.35554e-05,5.50217e-05,4.02779e-05,1.72165e-05
956,-1.14606e-05,1.70588e-05,3.09958e-05,5.50018e-05,3.38172e-05,1.33862e-05
957,-8.54898e-06,1.47455e-05,3.34289e-05,5.90233e-05,2.37166e-05,1.36021e-05
958,3.81276e-06,1.25039e-05,3.91547e-05,6.10129e-05,1.46032e-05,2.27383e-05
959,1.13387e-05,1.23499e-05,4.13113e-05,5.82089e-05,1.54882e-05,3.12182e-05
960,8.10205e-06,1.4865e-05,3.90051e-05,5.1955e-05,2.1498e-05,2.85428e-05
961,-1.10953e-06,1.99768e-05,3.60034e-05,4.83714e-05,2.15694e-05,1.80301e-05
962,-1.42791e-05,2.24834e-05,3.40302e-05,5.25991e-05,1.49888e-05,7.49506e-06
963,-1.55109e-05,2.14251e-05,3.59866e-05,5.89654e-05,3.31898e-06,3.28373e-06
964,-1.74441e-06,2.15266e-05,4.08624e-05,6.03777e-05,-8.85504e-07,8.0562e-06
965,3.9636e-06,1.9134e-05,4.43914e-05,5.70948e-05,1.0039e-05,1.47387e-05
966,2.1468e-06,1.43245e-05,4.72701e-05,5.43795e-05,2.66637e-05,1.85063e-05
967,1.87568e-06,1.1008e-05,4.98123e-05,5.54221e-05,3.81384e-05,1.9334e-05
968,5.26118e-07,7.42085e-06,4.98468e-05,5.60209e-05,4.0223e-05,1.59078e-05
969,-2.97721e-06,5.81137e-06,4.72736e-05,5.39034e-05,3.3552e-05,1.41594e-05
970,-1.35188e-05,7.66314e-06,4.23188e-05,5.21263e-05,2.21037e-05,1.39681e-05
971,-2.24525e-05,1.04377e-05,3.87198e-05,5.40001e-05,1.10199e-05,1.14798e-05
972,-1.68559e-05,1.17348e-05,4.09261e-05,5.51737e-05,2.22707e-06,1.09374e-05
973,-3.19322e-06,1.29515e-05,4.60447e-05,5.23967e-05,-1.37286e-06,1.28743e-05
974,2.08306e-06,1.35054e-05,4.52236e-05,4.78907e-05,4.08427e-06,1.4142e-05
975,-3.06784e-06,1.15054e-05,3.8541e-05,4.42458e-05,1.03043e-05,1.36318e-05
976,-1.46611e-05,8.56262e-06,3.11007e-05,4.35022e-05,1.20269e-05,1.09644e-05
977,-2.53255e-05,7.95656e-06,2.54851e-05,4.66465e-05,1.16514e-05,6.87589e-06
978,-2.57818e-05,9.46089e-06,2.41205e-05,5.11787e-05,1.17136e-05,4.36965e-06
979,-1.77436e-05,1.06619e-05,2.72456e-05,5.40796e-05,1.58194e-05,3.87233e-06
980,-1.04486e-05,1.25577e-05,3.22943e-05,5.36366e-05,2.4981e-05,2.97904e-06
981,-8.73533e-06,1.58122e-05,3.55254e-05,4.9596e-05,3.19381e-05,1.03033e-06
982,-1.31925e-05,1.75448e-05,3.2922e-05,4.60179e-05,3.12847e-05,-1.68432e-06
983,-2.15498e-05,1.56432e-05,2.60663e-05,4.56292e-05,2.56748e-05,-4.4381e-06
984,-2.27037e-05,1.16708e-05,2.39175e-05,4.84268e-05,1.8732e-05,-3.06568e-06
985,-1.20125e-05,9.51606e-06,2.75382e-05,5.21313e-05,1.80306e-05,3.26734e-06
986,-2.71179e-07,1.13471e-05,3.0325e-05,5.35429e-05,2.83831e-05,9.29138e-06
987,1.4026e-06,1.46439e-05,3.04425e-05,5.11005e-05,4.18309e-05,1.26805e-05
988,-7.41581e-06,1.66691e-05,2.95559e-05,4.89998e-05,4.78245e-05,1.28405e-05
989,-2.22491e-05,1.59401e-05,2.69407e-05,5.21357e-05,4.58887e-05,8.74957e-06
990,-2.52925e-05,1.40855e-05,2.83636e-05,5.74302e-05,3.43777e-05,6.2459e-06
991,-1.03108e-05,1.29929e-05,3.57855e-05,5.79087e-05,2.25043e-05,1.18793e-05
992,9.69183e-07,1.29913e-05,3.94534e-05,5.36395e-05,2.23167e-05,1.61284e-05
993,2.78601e-06,1.35166e-05,3.7374e-05,5.1315e-05,2.24317e-05,1.35606e-05
994,3.89053e-06,1.38356e-05,3.6433e-05,5.13674e-05,1.64458e-05,8.36489e-06
995,4.26139e-06,1.52841e-05,3.80402e-05,4.99587e-05,1.43959e-05,4.47588e-06
996,2.87469e-06,1.9594e-05,3.7567e-05,4.75803e-05,1.40628e-05,3.00466e-06
997,-4.42052e-06,2.52237e-05,3.25014e-05,4.62057e-05,1.04415e-05,1.41885e-07
998,-1.2694e-05,2.82498e-05,2.85838e-05,4.97915e-05,2.37529e-06,-1.05996e-06
999,-1.09035e-05,2.38243e-05,3.19875e-05,5.49136e-05,-8.381e-06,1.38863e-06
1000,-1.52546e-06,1.71325e-05,3.87381e-05,5.64051e-05,-1.00316e-05,6.00591e-06
1001,5.07804e-06,1.44959e-05,4.27218e-05,5.27773e-05,3.52914e-06,8.17189e-06
1002,5.43804e-06,1.51191e-05,4.17139e-05,4.76189e-05,1.89156e-05,8.43519e-06
1003,-3.63226e-06,1.59538e-05,3.40563e-05,4.58994e-05,2.44426e-05,8.51243e-06
1004,-1.5961e-05,1.69584e-05,2.76175e-05,4.90892e-05,2.18361e-05,7.33508e-06
1005,-1.7062e-05,1.91234e-05,3.18145e-05,5.30355e-05,1.93931e-05,7.33625e-06
1006,-5.54699e-06,1.94881e-05,4.26429e-05,5.26704e-05,2.21686e-05,1.12861e-05
1007,4.38922e-06,1.62995e-05,4.92756e-05,4.88927e-05,2.88636e-05,1.59619e-05
1008,5.89536e-06,1.2681e-05,4.82587e-05,4.42851e-05,3.16596e-05,1.55585e-05
1009,1.65515e-06,1.17226e-05,4.26058e-05,4.1729e-05,2.89758e-05,1.01354e-05
1010,-5.38656e-06,1.0062e-05,3.66237e-05,4.37054e-05,2.51329e-05,6.22885e-06
1011,-6.58008e-06,6.90129e-06,3.62677e-05,4.95071e-05,1.94759e-05,9.55413e-06
1012,1.94278e-06,5.87229e-06,4.12504e-05,5.42261e-05,1.44519e-05,1.54419e-05
1013,1.2475e-05,8.12854e-06,4.45353e-05,5.42772e-05,1.67729e-05,1.55343e-05
1014,1.68318e-05,8.58879e-06,4.34036e-05,5.00048e-05,2.15907e-05,9.32277e-06
1015,1.08918e-05,7.0457e-06,3.93026e-05,4.71534e-05,2.2218e-05,4.7739e-06
1016,-5.67152e-06,7.22493e-06,3.40255e-05,4.80991e-05,2.03305e-05,2.84759e-06
1017,-1.22155e-05,9.53772e-06,3.2056e-05,4.95946e-05,1.07312e-05,7.60688e-06
1018,3.08585e-06,1.38399e-05,3.58404e-05,5.02595e-05,-6.24592e-08,2.0089e-05
1019,1.52557e-05,2.08627e-05,4.08488e-05,5.06683e-05,2.41609e-06,2.62262e-05
1020,1.34722e-05,2.67489e-05,4.58378e-05,5.03484e-05,8.72677e-06,2.48324e-05
1021,8.70066e-06,2.58779e-05,4.886e-05,5.19969e-05,8.62008e-06,2.31727e-05
1022,5.96295e-06,2.0452e-05,4.66916e-05,5.31427e-05,1.17104e-05,2.35365e-05
1023,3.64059e-06,1.56291e-05,4.40355e-05,5.0096e-05,2.03384e-05,2.47328e-05
1024,-5.26967e-06,1.53475e-05,3.87688e-05,4.65733e-05,2.78808e-05,2.39173e-05
1025,-1.28641e-05,1.83583e-05,3.32428e-05,4.79678e-05,2.56482e-05,2.26334e-05
1026,-8.76562e-06,2.07572e-05,3.43829e-05,5.23651e-05,1.59324e-05,2.2118e-05
1027,1.95306e-06,2.15945e-05,4.14511e-05,5.44143e-05,9.34747e-06,2.23473e-05
1028,6.04331e-06,1.7997e-05,4.74539e-05,5.35217e-05,1.189e-05,2.1646e-05
1029,2.93327e-06,1.13828e-05,4.73743e-05,5.14729e-05,1.53825e-05,1.96557e-05
1030,-6.61292e-06,7.36705e-06,4.16132e-05,5.0185e-05,1.47879e-05,1.28927e-05
1031,-1.7288e-05,7.19092e-06,3.69809e-05,5.12889e-05,9.60026e-06,4.82254e-06
1032,-1.78115e-05,8.34428e-06,3.80842e-05,5.30448e-05,2.10075e-06,4.08382e-06
1033,-7.37871e-06,8.16478e-06,4.19315e-05,5.32931e-05,2.34892e-06,1.17046e-05
1034,1.10106e-06,7.30042e-06,4.32718e-05,5.13455e-05,1.53043e-05,1.96735e-05
1035,-7.89065e-07,6.20691e-06,4.04563e-05,4.66046e-05,2.9822e-05,2.17683e-05
1036,-9.5846e-06,5.41233e-06,3.56472e-05,4.17378e-05,3.44532e-05,1.77562e-05
1037,-1.85361e-05,5.2625e-06,3.11735e-05,4.13304e-05,2.88915e-05,1.09349e-05
1038,-1.62597e-05,5.07869e-06,3.25593e-05,4.59882e-05,1.78338e-05,8.67673e-06
1039,-3.70861e-06,7.28566e-06,3.92074e-05,5.12403e-05,1.34969e-05,1.00602e-05
1040,4.51365e-06,1.03849e-05,4.19275e-05,5.25324e-05,2.40351e-05,1.01435e-05
1041,1.98855e-06,1.08316e-05,3.71941e-05,4.96805e-05,3.94704e-05,1.04917e-05
1042,-6.60882e-06,1.26038e-05,3.06829e-05,4.74281e-05,4.90509e-05,1.04687e-05
1043,-2.07566e-05,1.6563e-05,2.74923e-05,4.9429e-05,5.35191e-05,6.77214e-06
1044,-2.50458e-05,1.73536e-05,3.12784e-05,5.36179e-05,4.67579e-05,8.15162e-06
1045,-1.24793e-05,1.31433e-05,3.66035e-05,5.49662e-05,3.17873e-05,1.76721e-05
1046,-3.09061e-06,1.13049e-05,3.65929e-05,5.36876e-05,2.52968e-05,2.57012e-05
1047,-1.31506e-06,1.33505e-05,3.54523e-05,5.36884e-05,3.481e-05,2.59327e-05
1048,2.37928e-06,1.54226e-05,3.7959e-05,5.62182e-05,4.74783e-05,2.21587e-05
1049,5.88286e-06,1.5946e-05,3.89653e-05,5.58389e-05,5.32147e-05,1.92567e-05
1050,6.30894e-06,1.33725e-05,3.60805e-05,5.36285e-05,5.20599e-05,1.58277e-05
1051,-3.82987e-07,1.25931e-05,3.21221e-05,5.32058e-05,5.27415e-05,1.06202e-05
1052,-8.18404e-06,1.60142e-05,3.08593e-05,5.45222e-05,5.10458e-05,7.72679e-06
1053,-4.62796e-06,1.93116e-05,3.45428e-05,5.63003e-05,4.18765e-05,1.10919e-05
1054,5.74507e-06,1.96666e-05,3.94997e-05,5.74225e-05,3.48234e-05,1.81028e-05
1055,8.25659e-06,1.83389e-05,3.97923e-05,5.63385e-05,3.51022e-05,2.28224e-05
1056,4.6707e-07,1.64916e-05,3.55037e-05,5.32729e-05,3.66256e-05,2.33051e-05
1057,-1.08949e-05,1.58056e-05,3.04256e-05,5.2903e-05,3.80641e-05,1.91013e-05
1058,-1.98866e-05,1.68748e-05,2.84703e-05,5.74506e-05,3.71541e-05,1.40639e-05
1059,-2.06933e-05,1.85672e-05,3.11512e-05,6.15113e-05,3.0111e-05,1.22196e-05
1060,-1.39732e-05,1.84651e-05,3.42373e-05,6.03063e-05,2.50203e-05,1.32522e-05
1061,-7.63387e-06,1.57817e-05,3.58172e-05,5.65528e-05,2.88681e-05,1.50414e-05
1062,-7.01454e-06,1.24736e-05,3.85054e-05,5.21488e-05,3.87545e-05,1.59692e-05
1063,-1.25145e-05,1.11481e-05,4.12235e-05,4.88727e-05,4.60261e-05,1.35967e-05
1064,-2.19702e-05,1.17648e-05,3.87344e-05,4.90804e-05,4.56047e-05,1.02749e-05
1065,-2.41336e-05,1.26758e-05,3.4455e-05,5.1609e-05,3.88391e-05,1.44862e-05
1066,-1.37726e-05,1.20018e-05,3.49008e-05,5.28991e-05,3.6768e-05,2.43765e-05
1067,-3.43747e-06,8.88411e-06,3.86356e-05,5.12438e-05,4.56358e-05,2.85943e-05
1068,-3.55615e-06,6.53426e-06,3.9554e-05,4.66532e-05,5.84379e-05,2.45254e-05
1069,-1.26055e-05,8.61762e-06,3.65204e-05,4.26291e-05,6.51718e-05,1.91439e-05
1070,-2.6665e-05,1.20938e-05,3.22261e-05,4.23617e-05,6.37547e-05,1.65411e-05
1071,-2.98278e-05,1.15214e-05,3.32773e-05,4.55725e-05,5.18966e-05,1.81397e-05
1072,-1.44689e-05,1.10226e-05,4.15867e-05,4.79397e-05,4.16272e-05,2.05699e-05
1073,-4.94097e-06,1.15212e-05,4.53321e-05,4.8165e-05,4.71115e-05,2.07101e-05
1074,-6.066e-06,1.14411e-05,4.42295e-05,4.88932e-05,5.47558e-05,2.29217e-05
1075,-4.99066e-06,9.72618e-06,4.3114e-05,5.08924e-05,5.1346e-05,2.81582e-05
1076,-2.07373e-06,4.01453e-06,4.25486e-05,5.17546e-05,4.50625e-05,3.05695e-05
1077,-1.26905e-06,-8.93562e-07,4.24334e-05,4.9591e-05,4.1821e-05,2.92435e-05
1078,-1.00343e-05,1.11487e-06,3.60581e-05,4.68791e-05,4.3939e-05,2.52654e-05
1079,-1.99107e-05,5.45937e-06,2.98278e-05,4.71344e-05,4.4076e-05,2.38452e-05
1080,-1.60374e-05,5.94628e-06,3.22586e-05,4.86756e-05,3.68009e-05,2.76042e-05
1081,-1.67821e-06,4.70984e-06,3.8754e-05,4.98451e-05,2.93786e-05,3.06316e-05
1082,6.92382e-06,5.26078e-06,4.11507e-05,5.12263e-05,3.09397e-05,2.87066e-05
1083,6.40113e-06,8.07411e-06,3.96298e-05,5.22999e-05,3.53294e-05,2.50821e-05
1084,-9.98151e-07,1.06302e-05,3.52728e-05,5.27255e-05,3.34618e-05,2.29827e-05
1085,-1.12432e-05,1.20122e-05,2.94911e-05,5.26013e-05,2.71222e-05,2.33578e-05
1086,-1.48262e-05,1.24508e-05,2.89004e-05,5.21177e-05,2.30039e-05,2.66898e-05
1087,-9.0083e-06,1.25948e-05,3.40212e-05,5.10461e-05,2.7032e-05,3.01471e-05
1088,-1.88026e-06,1.06226e-05,3.87964e-05,4.9723e-05,3.53109e-05,3.03437e-05
1089,-9.67947e-07,7.14117e-06,3.98645e-05,4.8592e-05,3.9193e-05,2.77466e-05
1090,-7.16716e-06,8.06221e-06,3.70656e-05,4.94391e-05,3.53509e-05,2.25478e-05
1091,-1.69156e-05,1.51787e-05,3.23512e-05,5.14303e-05,2.81398e-05,1.4634e-05
1092,-1.91355e-05,2.05807e-05,3.21875e-05,5.15125e-05,1.91264e-05,1.12125e-05
1093,-9.78025e-06,1.95465e-05,3.65402e-05,5.03985e-05,1.19888e-05,1.33338e-05
1094,5.31246e-07,1.61989e-05,3.80704e-05,4.97634e-05,9.66489e-06,1.38198e-05
1095,2.51021e-06,1.35762e-05,3.5569e-05,4.74934e-05,8.68636e-06,1.18123e-05
1096,-4.63734e-06,1.2942e-05,3.35509e-05,4.60648e-05,5.29265e-06,8.97103e-06
1097,-1.82102e-05,1.36811e-05,3.06884e-05,4.87051e-05,3.95493e-06,5.03811e-06
1098,-2.07506e-05,1.49386e-05,3.07146e-05,5.18935e-05,5.95071e-07,7.12328e-06
1099,-5.59654e-06,1.58764e-05,3.59186e-05,5.20982e-05,-5.45185e-06,1.62615e-05
1100,2.76934e-06,1.5182e-05,3.81637e-05,5.18474e-05,-2.19322e-06,1.87217e-05
1101,-9.21015e-07,1.49174e-05,3.71428e-05,5.31614e-05,1.17378e-05,1.49645e-05
1102,-1.43306e-06,1.74672e-05,3.65081e-05,5.41707e-05,2.8569e-05,1.29185e-05
1103,1.52484e-06,1.87785e-05,3.69091e-05,5.27094e-05,4.23639e-05,1.46074e-05
1104,2.34285e-06,1.71164e-05,3.89096e-05,5.02635e-05,4.72689e-05,1.91338e-05
1105,-6.1005e-06,1.35898e-05,3.73157e-05,5.17126e-05,4.50341e-05,2.01109e-05
1106,-1.77659e-05,1.19255e-05,3.33456e-05,5.59891e-05,3.989e-05,1.88335e-05
1107,-1.5827e-05,1.27233e-05,3.45612e-05,6.02765e-05,3.54824e-05,1.9745e-05
1108,-5.78348e-07,1.21496e-05,4.07164e-05,6.27666e-05,3.61086e-05,2.10482e-05
1109,9.77032e-06,9.93313e-06,4.57641e-05,6.24251e-05,4.03512e-05,1.88609e-05
1110,1.02217e-05,8.82585e-06,4.64678e-05,5.89308e-05,4.23324e-05,1.52896e-05
1111,2.25981e-06,1.09578e-05,4.36729e-05,5.51782e-05,4.23268e-05,1.14886e-05
1112,-8.27359e-06,1.32831e-05,4.04913e-05,5.66749e-05,3.99862e-05,8.92101e-06
1113,-1.13836e-05,1.40313e-05,4.04585e-05,6.15713e-05,3.53816e-05,1.11458e-05
1114,-5.67008e-06,1.3183e-05,4.18893e-05,6.4118e-05,3.41535e-05,1.69777e-05
1115,9.52316e-07,1.23412e-05,4.10384e-05,6.20639e-05,3.78789e-05,2.01603e-05
1116,2.49838e-06,1.22339e-05,3.71622e-05,5.65448e-05,4.00807e-05,1.75856e-05
1117,-2.27449e-06,1.37088e-05,3.22123e-05,5.19367e-05,3.91167e-05,1.13274e-05
1118,-1.16199e-05,1.57343e-05,2.88461e-05,5.33498e-05,3.79387e-05,3.3562e-06
1119,-1.49315e-05,1.5293e-05,2.89213e-05,5.88839e-05,3.41934e-05,-8.1189e-07
1120,-7.53e-06,1.1929e-05,3.20629e-05,6.19385e-05,3.16214e-05,2.00127e-06
1121,1.71315e-06,9.1695e-06,3.70516e-05,5.86322e-05,3.70286e-05,4.70019e-06
1122,3.29503e-06,9.57134e-06,4.07686e-05,5.08294e-05,4.3349e-05,4.05471e-06
1123,-3.4943e-06,1.07488e-05,3.97698e-05,4.58132e-05,3.83182e-05,5.22543e-06
1124,-1.69367e-05,9.48686e-06,3.48267e-05,4.7063e-05,2.65497e-05,7.49e-06
1125,-2.18584e-05,5.55837e-06,3.31432e-05,4.97104e-05,1.61615e-05,9.91865e-06
1126,-1.29533e-05,3.19484e-06,3.5109e-05,5.15138e-05,1.56194e-05,1.24081e-05
1127,-6.93749e-06,3.30864e-06,3.47103e-05,5.22758e-05,2.08321e-05,1.03025e-05
1128,-6.55682e-06,7.47665e-06,3.25481e-05,5.42128e-05,2.47846e-05,6.54968e-06
1129,-5.67904e-06,1.15496e-05,2.9355e-05,5.66574e-05,2.77566e-05,6.53227e-06
1130,-6.09167e-06,1.24205e-05,2.64813e-05,5.62087e-05,2.87719e-05,8.50872e-06
1131,-6.81186e-06,1.43573e-05,2.54815e-05,5.29228e-05,2.63468e-05,1.03134e-05
1132,-1.21885e-05,1.71323e-05,2.53901e-05,5.03198e-05,2.16432e-05,7.01763e-06
1133,-1.96245e-05,1.83275e-05,2.47001e-05,5.35767e-05,1.66654e-05,3.33285e-06
1134,-1.78347e-05,1.70032e-05,2.56035e-05,5.81907e-05,1.02624e-05,6.80475e-06
1135,-8.3674e-06,1.51749e-05,2.9244e-05,5.90398e-05,8.56509e-06,1.43614e-05
1136,-1.3382e-06,1.17519e-05,3.25527e-05,5.47593e-05,1.01654e-05,1.84117e-05
1137,-2.3683e-07,9.67361e-06,3.47494e-05,5.09298e-05,8.71476e-06,1.6956e-05
1138,-7.12805e-06,1.04184e-05,3.34995e-05,5.0459e-05,6.47263e-06,1.09482e-05
1139,-1.63124e-05,9.74242e-06,3.0094e-05,5.1836e-05,5.63729e-06,4.24691e-06
1140,-1.60877e-05,6.31486e-06,3.01369e-05,5.30299e-05,6.10459e-06,3.69089e-06
1141,-5.50791e-06,6.23583e-06,3.59265e-05,5.28659e-05,8.55482e-06,1.06257e-05
1142,4.98526e-06,1.27069e-05,4.25759e-05,5.1599e-05,1.55339e-05,2.02334e-05
1143,7.9971e-06,1.76285e-05,4.45777e-05,4.93087e-05,2.37435e-05,2.47565e-05
1144,1.86167e-06,1.54549e-05,4.06306e-05,4.85184e-05,2.84907e-05,2.16322e-05
1145,-9.72481e-06,9.84048e-06,3.53445e-05,5.10278e-05,2.68011e-05,1.55934e-05
1146,-1.27138e-05,6.39378e-06,3.50184e-05,5.41737e-05,1.80174e-05,1.35615e-05
1147,-1.74276e-06,6.61146e-06,3.85672e-05,5.39612e-05,1.07076e-05,1.42804e-05
1148,1.147e-05,7.38593e-06,4.13535e-05,5.19126e-05,1.48145e-05,1.43706e-05
1149,1.42884e-05,6.42032e-06,4.06718e-05,4.91639e-05,2.14108e-05,1.4541e-05
1150,4.99313e-06,6.74636e-06,3.80197e-05,4.71263e-05,2.12851e-05,1.41289e-05
1151,-1.33998e-05,8.46507e-06,3.55967e-05,4.81231e-05,1.64036e-05,1.28603e-05
1152,-2.05059e-05,1.21552e-05,3.70841e-05,5.07539e-05,6.63085e-06,1.32095e-05
1153,-8.42789e-06,1.6407e-05,3.96379e-05,5.09082e-05,-6.66526e-07,1.34532e-05
1154,1.19551e-06,1.46483e-05,3.82726e-05,4.85883e-05,4.28229e-06,1.10413e-05
1155,4.25999e-06,1.0544e-05,3.88641e-05,4.62351e-05,1.47966e-05,1.20311e-05
1156,6.86609e-06,1.01886e-05,4.19393e-05,4.64982e-05,2.46784e-05,1.81739e-05
1157,7.32309e-06,1.14585e-05,4.40146e-05,4.77016e-05,3.81796e-05,2.13265e-05
1158,6.46102e-06,1.36904e-05,4.34052e-05,4.80589e-05,4.76356e-05,1.65272e-05
1159,-1.05995e-06,1.75735e-05,3.97503e-05,4.81331e-05,4.90011e-05,4.71495e-06
1160,-1.15006e-05,2.02301e-05,3.66541e-05,4.89939e-05,4.45713e-05,-2.06017e-06
1161,-1.05153e-05,1.76725e-05,3.73851e-05,4.95286e-05,3.63542e-05,2.4066e-06
1162,2.48367e-07,1.49006e-05,3.995e-05,5.03113e-05,2.86424e-05,8.7512e-06
1163,5.23646e-06,1.46571e-05,3.88391e-05,5.1089e-05,2.5356e-05,7.87711e-06
1164,6.42934e-07,1.55077e-05,3.60763e-05,4.96956e-05,2.29263e-05,1.46791e-06
1165,-9.41118e-06,1.57902e-05,3.37829e-05,4.81477e-05,2.00419e-05,-5.98914e-06
1166,-1.95463e-05,1.68304e-05,3.28377e-05,4.8849e-05,1.52557e-05,-1.05293e-05
1167,-2.0757e-05,1.83674e-05,3.56684e-05,5.02839e-05,7.79548e-06,-8.19829e-06
1168,-1.28769e-05,1.80644e-05,4.22898e-05,5.00243e-05,5.71651e-06,-1.96826e-06
1169,-6.19701e-06,1.69851e-05,4.86335e-05,4.93604e-05,1.31476e-05,3.47848e-06
1170,-6.21127e-06,1.62241e-05,5.061e-05,4.8166e-05,2.09744e-05,6.42174e-06
1171,-1.19763e-05,1.5706e-05,4.6637e-05,4.58351e-05,2.16313e-05,5.91577e-06
1172,-1.9846e-05,1.57815e-05,4.10798e-05,4.44983e-05,1.92551e-05,3.42185e-06
1173,-1.94894e-05,1.68177e-05,4.09351e-05,4.5363e-05,1.62507e-05,5.59802e-06
1174,-8.70545e-06,1.59953e-05,4.65072e-05,4.62662e-05,1.79218e-05,1.37415e-05
1175,2.1305e-08,1.48285e-05,5.14694e-05,4.55138e-05,2.97462e-05,2.27368e-05
1176,-1.62045e-06,1.47824e-05,5.01074e-05,4.41697e-05,4.15121e-05,2.7935e-05
1177,-1.09341e-05,1.75397e-05,4.32888e-05,4.55063e-05,4.31839e-05,2.79077e-05
1178,-2.38285e-05,1.9744e-05,3.58553e-05,4.95992e-05,3.93898e-05,2.3559e-05
1179,-2.53139e-05,1.88689e-05,3.47566e-05,5.34931e-05,3.02075e-05,2.18768e-05
1180,-9.42646e-06,1.54415e-05,4.00759e-05,5.54002e-05,1.8768e-05,2.57975e-05
1181,1.62121e-06,1.20167e-05,4.35775e-05,5.36742e-05,1.6464e-05,2.79443e-05
1182,2.98439e-06,1.21176e-05,4.50599e-05,5.2036e-05,2.24114e-05,2.7536e-05
1183,3.92813e-06,1.28573e-05,4.5482e-05,5.32045e-05,2.7107e-05,2.65673e-05
1184,7.20871e-06,1.25031e-05,4.20124e-05,5.31975e-05,2.90698e-05,2.46127e-05
1185,9.97315e-06,1.33416e-05,3.7869e-05,5.05333e-05,3.1255e-05,2.31361e-05
1186,1.34862e-06,1.362e-05,3.49384e-05,4.72511e-05,3.31841e-05,1.87304e-05
1187,-1.11704e-05,1.25513e-05,3.38798e-05,4.98446e-05,2.99864e-05,1.21558e-05
1188,-1.02744e-05,1.40541e-05,3.65399e-05,5.58616e-05,2.29386e-05,1.28456e-05
1189,1.88783e-06,1.73175e-05,4.11281e-05,5.99684e-05,1.72201e-05,2.0682e-05
1190,9.14042e-06,1.89003e-05,4.10389e-05,5.86531e-05,1.69729e-05,2.47911e-05
1191,6.46689e-06,1.66923e-05,3.62272e-05,5.27031e-05,2.12649e-05,2.30347e-05
1192,-3.64788e-06,1.27748e-05,2.90835e-05,4.77741e-05,2.67417e-05,1.68144e-05
1193,-1.27967e-05,1.25002e-05,2.36771e-05,4.77225e-05,2.67239e-05,9.24834e-06
1194,-1.19284e-05,1.4913e-05,2.57911e-05,5.036e-05,2.14816e-05,6.52224e-06
1195,-2.42963e-06,1.44664e-05,3.34452e-05,5.09997e-05,2.14214e-05,9.26739e-06
1196,3.84027e-06,9.95585e-06,3.92414e-05,4.85028e-05,3.25976e-05,1.05568e-05
1197,1.32498e-06,5.03056e-06,3.88399e-05,4.48529e-05,4.67899e-05,8.55505e-06
1198,-7.36893e-06,3.274e-06,3.37496e-05,4.40911e-05,5.36772e-05,9.00862e-06
1199,-1.69042e-05,4.27203e-06,2.8068e-05,4.70308e-05,5.11293e-05,1.34738e-05
1200,-1.80282e-05,5.68961e-06,2.74365e-05,5.0762e-05,4.22388e-05,2.03377e-05
1201,-1.06618e-05,5.71627e-06,3.13823e-05,5.21894e-05,3.55676e-05,2.56972e-05
1202,-5.39657e-06,5.36554e-06,3.55039e-05,5.20567e-05,3.70182e-05,2.67331e-05
1203,-7.39672e-06,6.84684e-06,3.79258e-05,4.9273e-05,3.9156e-05,2.38498e-05
1204,-1.41571e-05,7.81472e-06,3.74595e-05,4.71421e-05,3.51894e-05,1.90021e-05
1205,-2.44748e-05,8.26721e-06,3.39094e-05,4.88006e-05,3.02491e-05,1.36059e-05
1206,-2.53996e-05,1.05774e-05,3.34279e-05,5.23433e-05,2.33078e-05,1.26236e-05
1207,-1.22453e-05,1.17249e-05,3.87184e-05,5.29057e-05,1.26474e-05,1.74345e-05
1208,-3.00835e-06,8.80798e-06,4.23486e-05,5.04629e-05,4.79889e-06,2.05266e-05
1209,-1.31485e-06,7.79703e-06,4.45833e-05,5.09045e-05,5.56161e-06,2.23735e-05
1210,9.64042e-07,9.56475e-06,4.71972e-05,5.37611e-05,6.15084e-06,2.65365e-05
1211,2.12002e-06,9.53508e-06,4.70966e-05,5.4247e-05,8.79741e-06,2.88315e-05
1212,1.40693e-06,1.10029e-05,4.29611e-05,5.2653e-05,1.50005e-05,2.5379e-05
1213,-6.26432e-06,1.55057e-05,3.64261e-05,5.23271e-05,2.00903e-05,1.78757e-05
1214,-1.6633e-05,1.9519e-05,3.37043e-05,5.49328e-05,2.0943e-05,1.27256e-05
1215,-1.70711e-05,1.72597e-05,3.80121e-05,5.76656e-05,1.48883e-05,1.14002e-05
1216,-9.01487e-06,1.11403e-05,4.50115e-05,5.77169e-05,1.15472e-05,1.19098e-05
1217,-2.53805e-06,6.71337e-06,4.71384e-05,5.37271e-05,1.6829e-05,1.19375e-05
1218,-1.16906e-06,7.11992e-06,4.48308e-05,4.89999e-05,2.38846e-05,1.2403e-05
1219,-5.5438e-06,1.11177e-05,3.95765e-05,4.66876e-05,2.74926e-05,1.19542e-05
1220,-1.21372e-05,1.54517e-05,3.47148e-05,4.68701e-05,2.45014e-05,1.26282e-05
1221,-1.18225e-05,1.72007e-05,3.48559e-05,4.84375e-05,1.73133e-05,1.49097e-05
1222,-3.4116e-06,1.54233e-05,3.87524e-05,4.94449e-05,1.54868e-05,1.54175e-05
1223,3.97489e-06,1.37746e-05,4.01764e-05,4.95459e-05,2.09084e-05,1.29738e-05
1224,4.31815e-06,1.40247e-05,3.80348e-05,4.92975e-05,2.61051e-05,1.05875e-05
1225,-1.99047e-06,1.42916e-05,3.39219e-05,5.02634e-05,2.98363e-05,1.16391e-05
1226,-1.0733e-05,1.25336e-05,2.89791e-05,5.32608e-05,3.32885e-05,1.43887e-05
1227,-1.12043e-05,1.07149e-05,2.86571e-05,5.77423e-05,3.10605e-05,1.87676e-05
1228,-1.75137e-06,9.53519e-06,3.3364e-05,6.1181e-05,2.9651e-05,2.4262e-05
1229,5.45678e-06,7.88608e-06,3.66414e-05,6.18059e-05,4.09603e-05,2.48282e-05
1230,4.16403e-06,5.95944e-06,3.41401e-05,5.90816e-05,5.62847e-05,1.77724e-05
1231,-2.48109e-06,6.42452e-06,2.81079e-05,5.6889e-05,6.16314e-05,8.87897e-06
1232,-1.28105e-05,8.08966e-06,2.27231e-05,5.70592e-05,6.06249e-05,2.75684e-06
1233,-1.45534e-05,8.68506e-06,2.37626e-05,5.71124e-05,5.43005e-05,4.19203e-06
1234,-2.87439e-06,9.85122e-06,3.17727e-05,5.53193e-05,4.81528e-05,8.3137e-06
1235,3.22731e-06,9.7602e-06,3.84822e-05,5.46057e-05,4.92515e-05,3.66783e-06
1236,8.11579e-07,8.88274e-06,3.96151e-05,5.74217e-05,5.28864e-05,-1.27621e-06
1237,3.78524e-07,9.13291e-06,3.83426e-05,6.04853e-05,5.23592e-05,1.21018e-06
1238,1.73005e-06,6.06078e-06,3.50929e-05,6.09502e-05,4.44017e-05,3.90758e-06
1239,1.68011e-06,1.8356e-07,3.1469e-05,5.90277e-05,3.68551e-05,8.97758e-06
1240,-5.68799e-06,-2.47376e-06,2.74607e-05,5.69067e-05,3.73976e-05,1.22029e-05
1241,-1.53021e-05,-2.3951e-08,2.79402e-05,5.81043e-05,3.71313e-05,1.20543e-05
1242,-1.21978e-05,4.49399e-06,3.46581e-05,6.05738e-05,3.17006e-05,1.17431e-05
1243,-1.53608e-08,8.00272e-06,4.07657e-05,6.10183e-05,2.81027e-05,1.47733e-05
1244,5.44535e-06,9.44296e-06,4.3041e-05,5.83056e-05,3.26138e-05,2.02505e-05
1245,1.31187e-06,1.15095e-05,4.12641e-05,5.35395e-05,3.92588e-05,2.08826e-05
1246,-8.13821e-06,1.40465e-05,3.70519e-05,4.95329e-05,4.23992e-05,1.38908e-05
1247,-1.64671e-05,1.43857e-05,3.26704e-05,4.78313e-05,3.92684e-05,5.81282e-06
1248,-1.63281e-05,1.42516e-05,3.31306e-05,4.79122e-05,3.09142e-05,3.95417e-06
1249,-7.2615e-06,1.50631e-05,3.88018e-05,4.81344e-05,2.77738e-05,6.92428e-06
1250,1.25426e-06,1.59992e-05,4.34838e-05,4.72157e-05,3.42759e-05,1.1026e-05
1251,2.08792e-06,1.73062e-05,4.38824e-05,4.47096e-05,3.99146e-05,1.31488e-05
1252,-5.89851e-06,1.94147e-05,4.03334e-05,4.40681e-05,3.76789e-05,9.77273e-06
1253,-1.67936e-05,1.96015e-05,3.46691e-05,4.72842e-05,3.16516e-05,9.98489e-07
1254,-1.85409e-05,1.74116e-05,3.38369e-05,5.07316e-05,2.10887e-05,-2.92034e-06
1255,-7.85272e-06,1.347e-05,3.79059e-05,5.04081e-05,1.26572e-05,1.67375e-06
1256,2.6531e-06,9.91113e-06,3.92662e-05,4.76438e-05,1.90082e-05,6.05924e-06
1257,3.45272e-06,8.25051e-06,3.70795e-05,4.51147e-05,3.17747e-05,3.66308e-06
1258,-1.6617e-06,7.40436e-06,3.43456e-05,4.5779e-05,3.48141e-05,1.01984e-06
1259,-1.25818e-05,1.0063e-05,3.38769e-05,4.99779e-05,2.84025e-05,1.94065e-06
1260,-1.77486e-05,1.60913e-05,3.75848e-05,5.3227e-05,1.79519e-05,7.27766e-06
1261,-7.68446e-06,1.93098e-05,4.12184e-05,5.24465e-05,1.28175e-05,1.4127e-05
1262,1.99033e-06,1.70286e-05,4.1304e-05,4.88971e-05,1.42105e-05,1.43662e-05
1263,5.94126e-06,1.47526e-05,4.08465e-05,4.74949e-05,1.70455e-05,1.06062e-05
1264,7.84713e-06,1.68851e-05,4.04784e-05,4.88399e-05,2.05326e-05,9.12004e-06
1265,7.6551e-06,1.8218e-05,4.11264e-05,5.01807e-05,2.7945e-05,7.96929e-06
1266,4.16723e-06,1.51678e-05,4.3923e-05,5.01556e-05,3.56942e-05,4.42797e-06
1267,-7.14181e-06,1.43582e-05,4.25634e-05,4.93554e-05,4.26318e-05,-1.1626e-06
1268,-1.7715e-05,1.79621e-05,3.84787e-05,5.04298e-05,4.40992e-05,-5.30779e-06
1269,-1.50288e-05,1.90832e-05,3.89438e-05,5.17787e-05,3.41685e-05,-4.01017e-06
1270,-2.73788e-06,1.7805e-05,4.17918e-05,5.27988e-05,2.5103e-05,1.24121e-07
1271,4.65587e-06,1.75294e-05,4.4183e-05,5.19445e-05,2.59007e-05,1.49697e-06
1272,2.83409e-06,1.74268e-05,4.44547e-05,4.79863e-05,3.14612e-05,4.81135e-07
1273,-7.23893e-06,1.64887e-05,4.02352e-05,4.41028e-05,3.42677e-05,-1.15137e-06
1274,-1.67241e-05,1.59581e-05,3.49921e-05,4.43371e-05,3.18062e-05,-1.2331e-06
1275,-1.38743e-05,1.70422e-05,3.52122e-05,4.79283e-05,2.52244e-05,2.54284e-06
1276,-8.92793e-07,1.80792e-05,4.00175e-05,5.08777e-05,2.28978e-05,8.27588e-06
1277,8.10169e-06,1.6978e-05,4.30739e-05,5.12515e-05,3.09588e-05,1.30286e-05
1278,6.10042e-06,1.37963e-05,4.06566e-05,4.96318e-05,4.18655e-05,1.7768e-05
1279,-3.7638e-06,9.97607e-06,3.53287e-05,4.91407e-05,4.68305e-05,1.99906e-05
1280,-1.55147e-05,7.25314e-06,3.16132e-05,5.17894e-05,4.53359e-05,1.6061e-05
1281,-1.8273e-05,8.00883e-06,3.30026e-05,5.53879e-05,3.93967e-05,1.30335e-05
1282,-9.48355e-06,1.20981e-05,3.82158e-05,5.68836e-05,3.61107e-05,1.77726e-05
1283,6.99644e-07,1.56092e-05,4.06186e-05,5.68791e-05,4.23138e-05,2.5051e-05
1284,3.78353e-06,1.4918e-05,3.96189e-05,5.49226e-05,5.03218e-05,2.45292e-05
1285,-1.96195e-06,1.3502e-05,3.8394e-05,5.16824e-05,5.11236e-05,1.72628e-05
1286,-1.53601e-05,1.4164e-05,3.7718e-05,5.08743e-05,4.70318e-05,1.0548e-05
1287,-2.00103e-05,1.862e-05,3.7867e-05,5.23592e-05,3.89189e-05,1.01266e-05
1288,-9.57925e-06,2.19898e-05,3.74529e-05,5.4141e-05,2.90604e-05,1.52494e-05
1289,-4.92584e-06,1.71252e-05,3.44637e-05,5.58796e-05,2.47595e-05,1.82189e-05
1290,-7.72078e-06,1.34636e-05,3.14024e-05,5.70192e-05,2.56463e-05,1.85987e-05
1291,-7.65782e-06,1.40259e-05,2.95e-05,5.7604e-05,2.39736e-05,1.69658e-05
1292,-5.38057e-06,1.42848e-05,3.03096e-05,5.53783e-05,1.65279e-05,1.48626e-05
1293,-4.4629e-06,1.43245e-05,3.27167e-05,5.20598e-05,9.9091e-06,1.50167e-05
1294,-1.12581e-05,1.61668e-05,3.03564e-05,5.10451e-05,1.36914e-05,1.15475e-05
1295,-1.98877e-05,1.84674e-05,2.68797e-05,5.25107e-05,2.25537e-05,4.41548e-06
1296,-1.82353e-05,2.07107e-05,2.91543e-05,5.48351e-05,2.55644e-05,2.97527e-06
1297,-6.64907e-06,2.41783e-05,3.47594e-05,5.54456e-05,2.67723e-05,1.07859e-05
1298,2.04437e-06,2.51201e-05,3.85742e-05,5.31905e-05,3.14779e-05,2.0004e-05
1299,2.45613e-06,2.28647e-05,3.94556e-05,4.87376e-05,3.20478e-05,2.31177e-05
1300,-7.12602e-06,1.90533e-05,3.72371e-05,4.53822e-05,2.6294e-05,1.68814e-05
1301,-1.9282e-05,1.69589e-05,3.35894e-05,4.70073e-05,1.70585e-05,6.96813e-06
1302,-2.11014e-05,1.55976e-05,3.22554e-05,5.05296e-05,7.64728e-06,3.4735e-06
1303,-1.09303e-05,1.28419e-05,3.35061e-05,5.04427e-05,4.10465e-06,8.76545e-06
1304,1.36021e-07,1.00823e-05,3.43953e-05,4.74457e-05,8.79559e-06,1.62798e-05
1305,3.61085e-06,8.5257e-06,3.39729e-05,4.40981e-05,1.38856e-05,1.97229e-05
1306,-9.29105e-07,7.96036e-06,3.28532e-05,4.25032e-05,1.33459e-05,1.84396e-05
1307,-9.84743e-06,7.64944e-06,3.1076e-05,4.40352e-05,1.21117e-05,1.61885e-05
1308,-1.08082e-05,5.60898e-06,3.07743e-05,4.68575e-05,1.26586e-05,1.72224e-05
1309,-8.89057e-07,2.36048e-06,3.341e-05,4.78799e-05,1.70028e-05,2.25021e-05
1310,6.23901e-06,1.79197e-06,3.69486e-05,4.69475e-05,2.78995e-05,2.84447e-05
1311,4.038e-06,5.9933e-06,3.75402e-05,4.42915e-05,3.61108e-05,3.07487e-05
1312,-3.1028e-06,1.08581e-05,3.32688e-05,4.38118e-05,3.511e-05,3.05606e-05
1313,-1.46404e-05,9.10777e-06,2.66885e-05,4.92909e-05,3.44606e-05,2.47643e-05
1314,-1.75121e-05,3.53334e-06,2.6675e-05,5.60825e-05,3.6799e-05,1.99791e-05
1315,-7.45055e-06,2.57761e-06,3.64006e-05,5.89746e-05,3.98999e-05,2.5222e-05
1316,-2.85627e-06,5.60734e-06,4.38234e-05,5.71302e-05,4.5019e-05,3.18209e-05
1317,-4.61285e-06,9.38885e-06,4.55338e-05,5.3243e-05,4.80239e-05,3.31279e-05
1318,-4.19316e-06,1.13784e-05,4.20713e-05,4.98692e-05,4.76454e-05,2.67772e-05
1319,-3.47686e-06,9.54167e-06,3.60755e-05,4.54997e-05,4.68431e-05,2.06607e-05
1320,-3.4404e-06,6.7792e-06,3.33219e-05,4.17337e-05,4.48019e-05,2.01706e-05
1321,-9.43145e-06,5.93416e-06,3.10192e-05,4.23847e-05,4.18506e-05,1.82628e-05
1322,-1.8549e-05,8.50352e-06,2.8692e-05,4.76076e-05,3.45151e-05,1.45103e-05
1323,-1.76302e-05,8.75987e-06,2.95828e-05,5.20649e-05,2.31916e-05,1.28111e-05
1324,-6.99345e-06,5.39015e-06,3.45327e-05,5.36763e-05,1.63042e-05,1.5119e-05
1325,6.69712e-07,4.07519e-06,3.77586e-05,5.22735e-05,1.86191e-05,1.92306e-05
1326,7.17543e-07,7.85203e-06,3.86904e-05,4.78681e-05,2.38632e-05,2.19097e-05
1327,-6.73091e-06,1.37214e-05,3.78418e-05,4.57921e-05,2.56154e-05,1.8719e-05
1328,-1.4823e-05,1.66025e-05,3.69465e-05,4.97614e-05,1.93031e-05,1.12589e-05
1329,-1.26415e-05,1.59937e-05,3.89986e-05,5.62447e-05,8.43666e-06,6.10595e-06
1330,-1.6531e-06,1.55603e-05,4.2458e-05,5.93811e-05,3.56675e-06,7.9244e-06
1331,6.29839e-06,1.76864e-05,4.13792e-05,5.75978e-05,8.8583e-06,1.32402e-05
1332,4.98135e-06,1.88816e-05,3.5137e-05,5.3062e-05,1.42521e-05,1.67555e-05
1333,-4.70257e-06,1.60933e-05,2.99853e-05,5.01167e-05,1.00816e-05,1.62897e-05
1334,-1.69547e-05,1.23983e-05,2.96729e-05,5.16764e-05,1.46855e-06,1.41757e-05
1335,-1.89936e-05,1.14697e-05,3.4198e-05,5.6453e-05,-3.99711e-06,1.47681e-05
1336,-7.59027e-06,1.25769e-05,3.86381e-05,5.95492e-05,-3.0761e-06,1.72266e-05
1337,4.0661e-06,1.35646e-05,3.89615e-05,5.95669e-05,6.42697e-06,1.87695e-05
1338,6.19004e-06,1.08337e-05,3.72577e-05,5.74096e-05,1.87967e-05,1.73734e-05
1339,-7.34576e-08,8.711e-06,3.80096e-05,5.36884e-05,2.28152e-05,1.37099e-05
1340,-1.26191e-05,1.07841e-05,3.87849e-05,5.28239e-05,1.98014e-05,1.06128e-05
1341,-1.83136e-05,1.09352e-05,3.95334e-05,5.53442e-05,1.55686e-05,1.04651e-05
1342,-7.35006e-06,5.84888e-06,4.12728e-05,5.71661e-05,1.52649e-05,1.40571e-05
1343,2.49828e-06,6.95533e-07,4.20939e-05,5.61004e-05,2.15727e-05,1.63706e-05
1344,3.91002e-06,7.48755e-07,4.27353e-05,5.14247e-05,3.02698e-05,1.5407e-05
1345,4.71638e-06,3.77763e-06,4.40075e-05,4.75139e-05,2.88171e-05,1.51647e-05
1346,4.69192e-06,5.93914e-06,4.33538e-05,4.5513e-05,2.01831e-05,1.47355e-05
1347,4.19684e-06,7.64261e-06,4.05636e-05,4.45931e-05,1.6971e-05,1.37634e-05
1348,-2.33066e-06,1.07637e-05,3.78098e-05,4.69667e-05,1.88679e-05,9.78987e-06
1349,-9.81086e-06,1.22442e-05,3.86135e-05,5.16664e-05,1.91039e-05,8.66533e-06
1350,-8.36466e-06,1.20466e-05,4.44543e-05,5.42046e-05,1.8469e-05,1.51703e-05
1351,-6.02797e-08,1.43165e-05,4.90085e-05,5.28111e-05,2.40217e-05,2.03102e-05
1352,4.57172e-06,1.77934e-05,4.69692e-05,5.04004e-05,3.39399e-05,1.85375e-05
1353,2.27878e-06,1.98327e-05,4.09293e-05,4.7704e-05,3.74849e-05,1.4761e-05
1354,-7.31446e-06,2.04881e-05,3.34829e-05,4.52693e-05,3.25476e-05,1.43905e-05
1355,-1.81252e-05,2.04796e-05,2.71815e-05,4.64768e-05,2.36113e-05,1.83417e-05
1356,-1.87956e-05,1.95176e-05,2.65067e-05,5.09853e-05,1.65252e-05,2.44672e-05
1357,-9.77938e-06,1.90164e-05,3.16532e-05,5.4557e-05,1.63031e-05,2.84808e-05
1358,-1.28319e-06,1.88028e-05,3.66236e-05,5.49561e-05,2.4935e-05,2.75192e-05
1359,4.5009e-07,1.80575e-05,3.80232e-05,5.22167e-05,3.5084e-05,2.40256e-05
1360,-4.78365e-06,2.00719e-05,3.55727e-05,4.97497e-05,3.79016e-05,2.31618e-05
1361,-1.4757e-05,2.44643e-05,3.0189e-05,5.17832e-05,3.45224e-05,2.63134e-05
1362,-1.82891e-05,2.46104e-05,2.87906e-05,5.69197e-05,2.81562e-05,3.1587e-05
1363,-1.17541e-05,1.92784e-05,3.47e-05,6.00802e-05,2.58254e-05,3.4677e-05
1364,-4.18629e-06,1.59411e-05,4.03837e-05,5.90955e-05,3.65177e-05,3.19801e-05
1365,-1.71327e-06,1.62149e-05,4.08685e-05,5.40576e-05,5.22169e-05,2.35293e-05
1366,-5.29326e-06,1.54997e-05,3.72132e-05,4.87866e-05,5.60003e-05,1.33294e-05
1367,-1.66494e-05,1.41751e-05,3.21565e-05,4.8591e-05,4.57689e-05,7.21725e-06
1368,-2.17481e-05,1.31172e-05,3.26664e-05,5.16666e-05,2.94411e-05,8.24141e-06
1369,-1.25113e-05,1.21203e-05,3.83235e-05,5.39732e-05,1.99576e-05,1.5457e-05
1370,-7.34334e-06,9.07348e-06,4.27002e-05,5.42954e-05,2.07502e-05,2.09583e-05
1371,-1.00304e-05,6.08824e-06,4.41217e-05,5.38077e-05,1.86022e-05,2.05354e-05
1372,-1.04292e-05,5.73373e-06,4.28668e-05,5.55435e-05,9.65647e-06,1.73526e-05
1373,-1.01981e-05,6.3134e-06,4.1106e-05,5.66672e-05,2.57413e-06,1.40159e-05
1374,-1.158e-05,6.76948e-06,3.89871e-05,5.37352e-05,-3.11227e-06,1.2706e-05
1375,-1.79193e-05,7.7053e-06,3.38371e-05,5.03528e-05,-8.17119e-06,1.16807e-05
1376,-2.61991e-05,1.06406e-05,2.99219e-05,5.02321e-05,-1.24421e-05,1.03572e-05
1377,-2.58403e-05,1.18449e-05,3.0379e-05,5.13874e-05,-1.23466e-05,1.31829e-05
1378,-1.72694e-05,1.04988e-05,3.24924e-05,5.08092e-05,-4.17527e-06,2.00026e-05
1379,-1.19584e-05,7.20527e-06,3.29018e-05,4.9522e-05,1.12779e-05,2.37039e-05
1380,-1.23387e-05,3.48449e-06,3.21375e-05,4.83376e-05,2.24108e-05,2.27362e-05
1381,-1.76395e-05,1.72464e-06,3.09125e-05,4.81157e-05,2.4878e-05,1.87507e-05
1382,-2.30628e-05,2.96223e-06,3.08581e-05,5.09964e-05,1.98772e-05,1.68552e-05
1383,-2.05244e-05,3.80351e-06,3.49416e-05,5.51704e-05,7.31823e-06,2.00873e-05
1384,-1.01221e-05,2.29766e-06,4.16674e-05,5.61185e-05,-4.74065e-06,2.61269e-05
1385,-1.37518e-06,8.09694e-07,4.58975e-05,5.24051e-05,-5.20077e-06,2.94438e-05
1386,-3.86369e-07,2.09297e-06,4.56208e-05,4.67477e-05,3.56315e-06,2.89862e-05
1387,-6.05301e-06,7.47637e-06,4.08855e-05,4.34629e-05,1.21522e-05,2.53618e-05
1388,-1.53385e-05,1.39898e-05,3.40465e-05,4.54677e-05,1.64262e-05,1.84506e-05
1389,-1.84415e-05,1.61786e-05,3.07897e-05,5.07605e-05,1.46902e-05,1.34033e-05
1390,-1.159e-05,1.27049e-05,3.2314e-05,5.33277e-05,1.30589e-05,1.22274e-05
1391,-3.94214e-06,8.44422e-06,3.67543e-05,5.24147e-05,1.65379e-05,1.19357e-05
1392,-2.59826e-06,6.61868e-06,3.97538e-05,4.9561e-05,1.85967e-05,1.09873e-05
1393,-7.1063e-06,7.68154e-06,3.8301e-05,4.60299e-05,1.16936e-05,8.96209e-06
1394,-1.78554e-05,9.72427e-06,3.60492e-05,4.60478e-05,4.04182e-06,3.96796e-06
1395,-1.83601e-05,1.10528e-05,3.75012e-05,4.94712e-05,1.52959e-06,1.26311e-06
1396,-2.98311e-06,1.36519e-05,3.97679e-05,5.27947e-05,5.73818e-06,2.92414e-06
1397,4.60347e-06,1.5253e-05,3.96305e-05,5.24419e-05,1.34225e-05,5.60855e-06
1398,3.5809e-06,1.29744e-05,4.06151e-05,5.02618e-05,2.24743e-05,8.9022e-06
1399,5.86247e-06,9.661e-06,4.18878e-05,5.18146e-05,3.20137e-05,8.07634e-06
1400,7.6574e-06,6.94756e-06,3.87906e-05,5.46299e-05,3.88591e-05,3.62569e-06
1401,6.10258e-06,7.78383e-06,3.49245e-05,5.41918e-05,3.95708e-05,3.81101e-06
1402,-2.60834e-06,9.89551e-06,3.30295e-05,5.29396e-05,3.67693e-05,7.25654e-06
1403,-1.13338e-05,1.1736e-05,3.11469e-05,5.40334e-05,3.13681e-05,9.28878e-06
1404,-6.65876e-06,1.53575e-05,3.19866e-05,5.54366e-05,2.20523e-05,1.04037e-05
1405,5.52482e-06,2.05942e-05,3.50917e-05,5.47559e-05,1.66256e-05,9.87453e-06
1406,9.72444e-06,2.31862e-05,3.66374e-05,5.16672e-05,1.97967e-05,6.35611e-06
1407,6.22796e-06,2.24009e-05,3.66779e-05,4.79337e-05,2.60582e-05,5.62934e-06
1408,-1.67904e-06,2.06684e-05,3.50056e-05,4.71035e-05,3.12499e-05,7.10983e-06
1409,-9.89388e-06,1.95637e-05,3.47233e-05,4.97836e-05,3.25491e-05,6.37812e-06
1410,-1.05755e-05,1.83055e-05,3.83068e-05,5.28686e-05,3.09057e-05,3.92986e-06
1411,-2.77857e-06,1.64184e-05,4.30218e-05,5.48505e-05,3.10731e-05,2.67047e-06
1412,5.05119e-06,1.67377e-05,4.42386e-05,5.54033e-05,3.44393e-05,3.08956e-06
1413,7.01649e-06,1.96871e-05,4.2842e-05,5.43573e-05,3.55661e-05,3.24525e-06
1414,1.71107e-06,2.31687e-05,3.92033e-05,5.30515e-05,3.2364e-05,-9.6496e-07
1415,-8.11569e-06,2.4525e-05,3.38296e-05,5.35521e-05,3.03704e-05,-7.32013e-06
1416,-1.09474e-05,2.48032e-05,3.25473e-05,5.55707e-05,3.13608e-05,-5.43052e-06
1417,-2.73636e-06,2.34852e-05,3.74748e-05,5.73914e-05,3.61152e-05,3.07287e-06
1418,4.78298e-06,1.99999e-05,4.27896e-05,5.69978e-05,4.80248e-05,5.80752e-06
1419,2.77136e-06,1.51325e-05,4.30682e-05,5.28808e-05,6.00996e-05,1.18818e-06
1420,-5.64592e-06,1.25291e-05,4.02901e-05,5.11124e-05,6.44452e-05,-4.51516e-06
1421,-1.76178e-05,1.33311e-05,3.84445e-05,5.5537e-05,6.55808e-05,-8.50406e-06
1422,-2.05795e-05,1.47452e-05,3.81135e-05,6.07035e-05,6.14677e-05,-8.25697e-06
1423,-9.5792e-06,1.19985e-05,3.82669e-05,6.10858e-05,5.57011e-05,-4.11739e-06
1424,-3.0842e-07,7.32544e-06,3.79969e-05,5.46688e-05,5.88509e-05,8.45654e-07
1425,3.25518e-06,7.31482e-06,3.9948e-05,4.82222e-05,6.71201e-05,6.42588e-06
1426,7.04488e-06,9.2087e-06,4.21608e-05,4.72853e-05,6.65546e-05,1.24342e-05
1427,8.89181e-06,1.02718e-05,4.09972e-05,4.8524e-05,5.97474e-05,1.28601e-05
1428,8.23765e-06,1.11041e-05,3.90058e-05,4.84721e-05,5.53285e-05,8.2646e-06
1429,-1.38386e-07,1.5218e-05,3.48168e-05,4.93985e-05,5.43768e-05,2.51782e-06
1430,-1.20885e-05,2.09275e-05,3.08124e-05,5.26842e-05,5.24522e-05,9.16096e-07
1431,-1.45424e-05,2.28831e-05,3.16886e-05,5.52442e-05,4.58317e-05,5.29502e-06
1432,-7.76183e-06,2.1541e-05,3.75203e-05,5.61885e-05,3.97164e-05,1.16965e-05
1433,-9.63856e-07,2.07863e-05,4.04045e-05,5.59772e-05,3.92912e-05,1.43584e-05
1434,6.90244e-07,2.1832e-05,3.92879e-05,5.36848e-05,3.96449e-05,1.31994e-05
1435,-7.94979e-06,2.17457e-05,3.59986e-05,5.08674e-05,3.7482e-05,1.04044e-05
1436,-1.87741e-05,1.93066e-05,3.28122e-05,5.25728e-05,3.13399e-05,8.0443e-06
1437,-1.74054e-05,1.44817e-05,3.23292e-05,5.5568e-05,2.27469e-05,8.92008e-06
1438,-5.86931e-06,9.82356e-06,3.40135e-05,5.35032e-05,2.13194e-05,1.29835e-05
1439,2.71816e-06,7.89371e-06,3.66502e-05,4.65381e-05,3.26109e-05,1.56521e-05
1440,2.1775e-06,9.32408e-06,3.82685e-05,4.10711e-05,4.69393e-05,1.47685e-05
1441,-5.12942e-06,1.37791e-05,3.60737e-05,4.08883e-05,5.38536e-05,1.31079e-05
1442,-1.27653e-05,1.96919e-05,2.85729e-05,4.43145e-05,5.1974e-05,1.28987e-05
1443,-8.12433e-06,2.151e-05,2.42544e-05,4.69991e-05,4.29601e-05,1.70685e-05
1444,7.35779e-06,1.66679e-05,2.83196e-05,4.58717e-05,3.7955e-05,2.42225e-05
1445,1.72742e-05,9.21813e-06,3.57398e-05,4.2743e-05,4.5688e-05,2.78712e-05
1446,1.48708e-05,4.05987e-06,3.98772e-05,4.0554e-05,5.29771e-05,2.4648e-05
1447,5.1457e-06,3.8609e-06,3.90825e-05,4.15399e-05,4.46743e-05,2.15157e-05
1448,-1.08526e-05,5.98807e-06,3.4122e-05,4.48818e-05,3.35411e-05,1.90373e-05
1449,-1.80448e-05,6.94047e-06,3.25225e-05,4.69652e-05,3.07122e-05,1.95135e-05
1450,-8.11125e-06,4.54515e-06,3.64923e-05,4.81609e-05,3.19816e-05,2.60349e-05
1451,-5.21323e-07,9.40114e-07,3.76316e-05,4.88575e-05,3.33001e-05,2.79837e-05
1452,7.19559e-07,1.95328e-06,3.54591e-05,5.08049e-05,3.68372e-05,2.39131e-05
1453,1.83676e-06,4.53488e-06,3.56228e-05,5.45659e-05,4.43798e-05,2.16855e-05
1454,1.84119e-06,6.48336e-06,3.914e-05,5.58424e-05,4.93834e-05,2.26623e-05
1455,1.2858e-06,9.23014e-06,4.07057e-05,5.33294e-05,4.66079e-05,2.46318e-05
1456,-5.71233e-06,1.20918e-05,3.7622e-05,4.9387e-05,4.01017e-05,2.04072e-05
1457,-1.46742e-05,1.35367e-05,3.45255e-05,5.03514e-05,3.22714e-05,1.33566e-05
1458,-1.39753e-05,1.23495e-05,3.56658e-05,5.32958e-05,2.18656e-05,1.37065e-05
1459,-7.04544e-06,1.2856e-05,3.88079e-05,5.40311e-05,1.48382e-05,1.988e-05
1460,-4.79978e-06,1.49751e-05,3.96078e-05,5.31231e-05,1.67283e-05,2.49975e-05
1461,-7.49199e-06,1.56261e-05,3.88634e-05,5.22475e-05,2.12351e-05,2.6396e-05
1462,-1.33278e-05,1.3873e-05,3.62389e-05,5.20875e-05,2.42098e-05,2.53986e-05
1463,-1.84001e-05,1.41953e-05,3.42369e-05,5.33412e-05,2.38959e-05,2.29295e-05
1464,-1.75651e-05,1.68358e-05,3.58444e-05,5.57493e-05,2.03986e-05,2.13147e-05
1465,-1.2296e-05,1.83522e-05,4.004e-05,5.75242e-05,2.05744e-05,2.32318e-05
1466,-8.07985e-06,1.77588e-05,4.20588e-05,5.83197e-05,2.74466e-05,2.67571e-05
1467,-7.42541e-06,1.62509e-05,4.03009e-05,5.76591e-05,3.34763e-05,2.69055e-05
1468,-1.25873e-05,1.45625e-05,3.59515e-05,5.68959e-05,3.23791e-05,2.16982e-05
1469,-2.05561e-05,1.35798e-05,3.225e-05,5.74514e-05,2.62171e-05,1.67108e-05
1470,-1.86332e-05,1.54016e-05,3.37874e-05,5.86652e-05,1.61827e-05,1.86901e-05
1471,-6.35464e-06,1.79481e-05,3.76836e-05,5.81647e-05,6.90708e-06,2.47222e-05
1472,2.39651e-06,1.52283e-05,3.86225e-05,5.57559e-05,8.59246e-06,2.62097e-05
1473,1.36693e-06,5.67897e-06,3.6209e-05,5.14635e-05,2.05921e-05,2.11669e-05
1474,-6.07145e-06,-1.8866e-06,3.33121e-05,4.87442e-05,3.07116e-05,1.41128e-05
1475,-1.70908e-05,-7.39975e-07,3.28631e-05,4.84016e-05,3.09795e-05,6.43872e-06
1476,-1.92441e-05,5.04581e-06,3.50979e-05,4.93245e-05,2.08512e-05,5.11593e-06
1477,-8.23011e-06,7.24334e-06,3.78631e-05,5.02047e-05,1.55655e-05,1.22127e-05
1478,-5.14142e-07,7.15817e-06,3.92563e-05,4.90731e-05,2.44788e-05,1.48043e-05
1479,1.85293e-06,5.3896e-06,3.86448e-05,4.90598e-05,3.43133e-05,1.54426e-05
1480,3.55822e-06,4.32093e-06,3.93068e-05,5.1351e-05,3.51994e-05,1.77907e-05
1481,1.21708e-06,7.09428e-06,4.15636e-05,5.35811e-05,3.11044e-05,1.72083e-05
1482,-3.1112e-06,1.16875e-05,4.41042e-05,5.28059e-05,2.90685e-05,1.66501e-05
1483,-1.20857e-05,1.57814e-05,4.13915e-05,5.33178e-05,2.81628e-05,1.49882e-05
1484,-2.13116e-05,1.57329e-05,3.50091e-05,5.5977e-05,2.55003e-05,1.22812e-05
1485,-1.99579e-05,1.40528e-05,3.15888e-05,5.53127e-05,1.86243e-05,1.35343e-05
1486,-9.47847e-06,1.3795e-05,3.27406e-05,5.28623e-05,1.23606e-05,1.95342e-05
1487,-1.9472e-06,1.37741e-05,3.58106e-05,5.10915e-05,1.36895e-05,2.56671e-05
1488,1.1142e-06,1.4401e-05,3.66639e-05,5.13809e-05,1.56344e-05,2.75255e-05
1489,-2.90461e-06,1.83773e-05,3.42034e-05,5.20978e-05,1.47195e-05,2.16351e-05
1490,-1.05753e-05,2.30453e-05,3.16572e-05,5.23958e-05,1.06997e-05,1.30555e-05
1491,-1.0276e-05,2.49675e-05,3.31635e-05,5.27578e-05,5.66712e-06,1.0743e-05
1492,-1.21058e-06,2.32815e-05,3.71432e-05,5.30105e-05,5.48116e-06,1.57967e-05
1493,5.72358e-06,1.8101e-05,3.91646e-05,5.28627e-05,1.40349e-05,2.13459e-05
1494,4.3445e-06,1.18158e-05,3.90895e-05,5.04506e-05,2.37856e-05,2.25809e-05
1495,-3.1912e-06,1.01688e-05,3.8504e-05,4.69786e-05,2.82234e-05,1.85332e-05
1496,-1.16664e-05,1.32449e-05,3.74799e-05,4.70873e-05,2.93994e-05,1.20465e-05
1497,-1.18207e-05,1.4226e-05,3.9861e-05,4.99523e-05,2.81431e-05,9.79425e-06
1498,-3.15432e-06,1.17947e-05,4.48873e-05,5.11e-05,2.85333e-05,1.29256e-05
1499,4.38419e-06,8.32117e-06,4.60327e-05,5.05414e-05,3.64706e-05,1.63957e-05
1500,3.58209e-06,5.81697e-06,4.44968e-05,5.00263e-05,4.47513e-05,1.80253e-05
1501,-2.80974e-06,3.37701e-06,4.27517e-05,5.0173e-05,4.68789e-05,1.76423e-05
1502,-1.52487e-05,-6.09611e-07,3.94318e-05,5.0342e-05,4.8425e-05,1.19282e-05
1503,-2.13227e-05,-4.80781e-06,3.80736e-05,4.90571e-05,4.28553e-05,8.69357e-06
1504,-1.17461e-05,-4.26731e-06,3.81755e-05,4.66228e-05,3.33867e-05,1.36743e-05
1505,-3.10135e-06,1.05622e-06,3.45482e-05,4.58259e-05,3.33281e-05,1.48912e-05
1506,-1.09469e-06,5.03973e-06,3.10722e-05,4.70713e-05,3.59527e-05,1.30976e-05
1507,3.49341e-07,6.56304e-06,3.2628e-05,4.99005e-05,3.318e-05,1.3539e-05
1508,1.10886e-06,6.31483e-06,3.4568e-05,5.12452e-05,2.94813e-05,1.18272e-05
1509,1.51762e-06,6.49857e-06,3.32871e-05,5.10507e-05,2.60034e-05,9.87366e-06
1510,-6.64002e-06,1.1656e-05,2.90022e-05,5.30568e-05,2.03716e-05,6.94319e-06
1511,-1.83073e-05,1.78429e-05,2.73903e-05,5.64559e-05,1.09873e-05,7.46331e-06
1512,-1.9686e-05,2.04814e-05,3.19439e-05,5.75565e-05,9.89646e-07,1.33808e-05
1513,-9.61598e-06,1.90032e-05,3.73488e-05,5.54938e-05,4.22011e-07,1.88821e-05
1514,-2.28206e-07,1.38251e-05,3.80343e-05,5.22759e-05,8.95583e-06,2.03503e-05
1515,7.4348e-07,9.07882e-06,3.47952e-05,4.81475e-05,1.24144e-05,1.92846e-05
1516,-6.0869e-06,9.03492e-06,2.92903e-05,4.4991e-05,7.48134e-06,1.76463e-05
1517,-1.28216e-05,1.21796e-05,2.48481e-05,4.5141e-05,1.76028e-08,1.48883e-05
1518,-9.00195e-06,1.34325e-05,2.67721e-05,4.73982e-05,-6.03439e-06,1.45358e-05
1519,2.75297e-06,1.11299e-05,3.31879e-05,4.75787e-05,-6.18727e-06,1.73876e-05
1520,1.0557e-05,1.05888e-05,3.63907e-05,4.60723e-05,2.19962e-06,1.85538e-05
1521,6.45723e-06,1.43956e-05,3.32595e-05,4.55443e-05,1.0302e-05,1.54618e-05
1522,-7.24514e-06,1.83743e-05,2.73973e-05,4.71025e-05,1.08774e-05,1.16492e-05
1523,-2.07126e-05,1.73277e-05,2.32353e-05,5.03347e-05,4.89458e-06,1.02406e-05
1524,-2.03189e-05,1.2153e-05,2.51915e-05,5.28219e-05,-2.75437e-06,1.26009e-05
1525,-8.22926e-06,9.80103e-06,3.29013e-05,5.46124e-05,-2.29667e-06,1.85348e-05
1526,7.83307e-07,1.35019e-05,4.15041e-05,5.59125e-05,1.00361e-05,2.51e-05
1527,1.64597e-06,1.91549e-05,4.73512e-05,5.57054e-05,2.55232e-05,2.61968e-05
1528,-4.2259e-06,2.19099e-05,4.79713e-05,5.55238e-05,3.5022e-05,1.96091e-05
1529,-1.78729e-05,1.99965e-05,4.48447e-05,5.60432e-05,3.79191e-05,9.36845e-06
1530,-2.31256e-05,1.42875e-05,4.30842e-05,5.60741e-05,3.47529e-05,6.13206e-06
1531,-1.39176e-05,1.04713e-05,4.39784e-05,5.57734e-05,3.31961e-05,1.2324e-05
1532,-1.07085e-05,1.18078e-05,4.23747e-05,5.46381e-05,3.36981e-05,1.30603e-05
1533,-1.13451e-05,1.56256e-05,4.011e-05,5.47588e-05,3.03964e-05,8.38606e-06
1534,-6.48879e-06,1.66185e-05,4.30305e-05,5.57506e-05,2.6527e-05,4.60892e-06
1535,-2.71891e-06,1.33579e-05,4.69682e-05,5.43985e-05,2.26247e-05,1.38704e-06
1536,-2.74156e-06,1.01629e-05,4.69031e-05,5.17261e-05,1.59939e-05,2.73155e-07
1537,-9.61762e-06,1.28233e-05,4.11306e-05,5.15613e-05,9.47396e-06,-3.06318e-06
1538,-1.83184e-05,1.55768e-05,3.63982e-05,5.21924e-05,3.10519e-06,-8.53939e-06
1539,-1.68854e-05,1.42284e-05,3.55969e-05,5.22549e-05,-3.53205e-06,-1.03054e-05
1540,-5.7422e-06,1.22464e-05,3.75018e-05,5.39573e-05,-1.69663e-06,-6.27961e-06
1541,7.76039e-07,1.17074e-05,3.99876e-05,5.30747e-05,9.46216e-06,-2.55569e-07
1542,-1.18819e-06,1.31422e-05,4.13614e-05,4.79034e-05,1.85112e-05,5.0421e-06
1543,-8.87315e-06,1.65762e-05,4.18854e-05,4.43591e-05,2.02279e-05,5.96147e-06
1544,-1.51999e-05,2.1016e-05,4.25306e-05,4.68291e-05,1.75541e-05,2.83611e-06
1545,-1.20752e-05,2.32021e-05,4.61499e-05,5.00407e-05,1.39581e-05,1.9257e-06
1546,-1.25372e-06,2.27229e-05,4.93522e-05,5.00025e-05,1.66774e-05,5.38055e-06
1547,6.34664e-06,1.90265e-05,4.77109e-05,4.88213e-05,2.818e-05,9.67887e-06
1548,4.95043e-06,1.41792e-05,4.35363e-05,4.82569e-05,3.8017e-05,9.48604e-06
1549,-3.87817e-06,1.28995e-05,4.10875e-05,4.82888e-05,3.92797e-05,4.67608e-06
1550,-1.39022e-05,1.53595e-05,4.02328e-05,4.96655e-05,3.19377e-05,-1.77568e-07
1551,-1.29636e-05,1.68861e-05,4.2092e-05,5.15161e-05,2.06389e-05,-1.94437e-07
1552,-1.42231e-06,1.76119e-05,4.42721e-05,5.14107e-05,1.46849e-05,4.27517e-06
1553,6.84665e-06,1.7402e-05,4.26912e-05,5.00096e-05,1.98358e-05,1.12075e-05
1554,3.84831e-06,1.49606e-05,3.90015e-05,4.86651e-05,2.72825e-05,1.67391e-05
1555,-8.3133e-06,1.43308e-05,3.51922e-05,4.84303e-05,2.97071e-05,1.65075e-05
1556,-2.45618e-05,1.6691e-05,3.26491e-05,5.08331e-05,3.07104e-05,1.19328e-05
1557,-2.61681e-05,1.88795e-05,3.57159e-05,5.46862e-05,3.09318e-05,9.49597e-06
1558,-1.24231e-05,1.79755e-05,4.08592e-05,5.55138e-05,3.06535e-05,1.1399e-05
1559,-6.19095e-06,1.40167e-05,4.09695e-05,5.60006e-05,3.42234e-05,1.32258e-05
1560,-9.67923e-06,1.00502e-05,4.06543e-05,5.79109e-05,4.1256e-05,1.50284e-05
1561,-1.00531e-05,8.65882e-06,4.25088e-05,5.81305e-05,4.53711e-05,1.51195e-05
1562,-6.48362e-06,9.23924e-06,4.24784e-05,5.41777e-05,4.6377e-05,1.07589e-05
1563,-4.64068e-06,8.11877e-06,4.16189e-05,4.67816e-05,4.80927e-05,8.31156e-06
1564,-1.19507e-05,7.52581e-06,3.84369e-05,4.31015e-05,5.08064e-05,7.51228e-06
1565,-1.89535e-05,9.7407e-06,3.53599e-05,4.68146e-05,4.58464e-05,6.26224e-06
1566,-1.1665e-05,1.15714e-05,3.55846e-05,5.12821e-05,3.27253e-05,9.04804e-06
1567,3.48382e-06,1.19826e-05,3.68571e-05,5.32456e-05,2.31454e-05,1.59544e-05
1568,1.08906e-05,1.26097e-05,3.60902e-05,5.45178e-05,2.17277e-05,2.05803e-05
