Time_Index,DELTOID_Affected,DELTOID_NonAffected,BICEPS_Affected,BICEPS_NonAffected,FOREARM_Affected,FOREARM_NonAffected
1,-1.77686e-05,1.20571e-05,3.60694e-05,5.35024e-05,3.00026e-05,2.42801e-06
2,-1.45979e-05,3.37384e-06,3.65638e-05,5.04205e-05,2.68595e-05,9.04971e-07
3,3.77131e-06,6.90262e-07,4.49846e-05,5.00966e-05,2.04167e-05,6.29967e-06
4,7.76274e-06,5.71415e-06,4.77333e-05,5.12362e-05,1.8379e-05,1.08433e-05
5,1.11257e-06,1.06514e-05,4.37837e-05,5.50695e-05,2.4309e-05,1.34558e-05
6,1.82189e-06,1.29066e-05,3.90856e-05,5.72957e-05,3.37689e-05,1.58249e-05
7,7.96318e-06,1.58331e-05,3.68972e-05,5.4137e-05,3.71939e-05,1.72372e-05
8,7.71402e-06,1.86604e-05,3.65763e-05,4.62956e-05,3.38116e-05,1.72283e-05
9,-6.22952e-06,1.91258e-05,2.97729e-05,4.17019e-05,3.20652e-05,1.46519e-05
10,-1.9108e-05,1.72644e-05,2.17721e-05,4.57715e-05,2.90155e-05,1.19075e-05
11,-1.52129e-05,1.66081e-05,2.58404e-05,5.23016e-05,1.99853e-05,1.2868e-05
12,-1.06768e-06,1.85024e-05,3.85915e-05,5.62935e-05,1.38543e-05,1.62606e-05
13,7.3291e-06,1.98217e-05,4.79336e-05,5.77508e-05,1.82635e-05,1.75649e-05
14,3.47333e-06,1.65634e-05,4.92567e-05,5.5764e-05,2.7683e-05,1.59073e-05
15,-1.1192e-05,7.9218e-06,4.15499e-05,5.09214e-05,3.36744e-05,1.23363e-05
16,-2.51128e-05,-1.16041e-06,3.08898e-05,4.83654e-05,3.0889e-05,9.49417e-06
17,-2.39646e-05,-4.21277e-06,2.99997e-05,5.00844e-05,2.13011e-05,1.09248e-05
18,-1.11107e-05,-2.12411e-06,3.92963e-05,5.09493e-05,1.59499e-05,1.66747e-05
19,-2.35244e-06,1.92577e-06,4.63962e-05,4.70942e-05,2.05343e-05,2.06447e-05
20,-6.23373e-06,6.1204e-06,4.52752e-05,4.19107e-05,2.88142e-05,1.76393e-05
21,-1.83995e-05,5.92789e-06,3.65556e-05,4.135e-05,3.28589e-05,1.00201e-05
22,-2.66436e-05,5.37099e-07,2.5253e-05,4.6223e-05,3.01053e-05,5.74082e-06
23,-1.91939e-05,-2.48093e-06,2.29491e-05,4.98736e-05,2.31841e-05,9.52583e-06
24,-8.2132e-07,1.45893e-06,3.21863e-05,4.93535e-05,2.10201e-05,1.53794e-05
25,1.05614e-05,8.87145e-06,4.07309e-05,4.87888e-05,2.69978e-05,1.63743e-05
26,7.68942e-06,1.61045e-05,3.9985e-05,4.82106e-05,3.28645e-05,1.42194e-05
27,-7.89647e-06,1.91921e-05,3.21276e-05,4.6079e-05,3.44604e-05,1.06892e-05
28,-2.84473e-05,1.61692e-05,2.28452e-05,4.49864e-05,3.34244e-05,6.24223e-06
29,-2.75076e-05,1.20312e-05,2.41296e-05,4.63629e-05,2.79624e-05,6.47032e-06
30,-5.91222e-06,1.13166e-05,3.60402e-05,5.0582e-05,2.28826e-05,9.76926e-06
31,6.28346e-06,1.38121e-05,4.55058e-05,5.36946e-05,2.58108e-05,1.09991e-05
32,8.35227e-06,1.53543e-05,5.04626e-05,5.29912e-05,3.33791e-05,1.20168e-05
33,1.02642e-05,1.30969e-05,5.13395e-05,5.08536e-05,3.63081e-05,1.14606e-05
34,1.36011e-05,1.33275e-05,4.77194e-05,4.77319e-05,3.58155e-05,8.59068e-06
35,1.22159e-05,1.6971e-05,4.32377e-05,4.50597e-05,3.80011e-05,9.0856e-06
36,-1.39063e-06,1.75036e-05,3.69329e-05,4.36607e-05,3.94312e-05,1.02404e-05
37,-1.2091e-05,1.22275e-05,3.43399e-05,4.31151e-05,3.23529e-05,9.76863e-06
38,-5.02149e-06,4.69948e-06,4.14115e-05,4.33855e-05,2.111e-05,1.12096e-05
39,1.04796e-05,4.40574e-07,5.10538e-05,4.29273e-05,1.93427e-05,1.5354e-05
40,1.79082e-05,3.47744e-06,5.56828e-05,4.2177e-05,2.8046e-05,1.92534e-05
41,1.20427e-05,1.19575e-05,5.39113e-05,4.15606e-05,3.63746e-05,1.99442e-05
42,-6.30849e-06,1.8959e-05,4.48492e-05,4.15386e-05,3.83976e-05,1.68448e-05
43,-2.27969e-05,2.02254e-05,3.47446e-05,4.40538e-05,3.44474e-05,1.29733e-05
44,-1.98059e-05,1.65788e-05,3.45757e-05,4.94561e-05,2.76817e-05,1.39964e-05
45,-2.95242e-06,1.23665e-05,4.37492e-05,5.57753e-05,2.61218e-05,2.02876e-05
46,7.48927e-06,1.33352e-05,5.17475e-05,6.0295e-05,3.23138e-05,2.66322e-05
47,4.6897e-06,1.9123e-05,5.17911e-05,6.1436e-05,3.72937e-05,2.85918e-05
48,-5.5269e-06,2.20429e-05,4.4445e-05,5.89599e-05,3.61337e-05,2.53023e-05
49,-1.35461e-05,1.84261e-05,3.46855e-05,5.54088e-05,3.14278e-05,2.08218e-05
50,-8.36589e-06,1.29053e-05,3.22569e-05,5.37558e-05,2.48738e-05,2.12873e-05
51,5.7463e-06,1.14178e-05,4.01506e-05,5.53866e-05,2.19012e-05,2.61273e-05
52,1.15028e-05,1.50848e-05,4.74606e-05,5.69432e-05,2.74477e-05,2.91115e-05
53,1.61672e-06,2.12425e-05,4.49762e-05,5.38736e-05,3.41936e-05,2.81072e-05
54,-1.72663e-05,2.50246e-05,3.41562e-05,5.11641e-05,3.40921e-05,2.40977e-05
55,-3.17108e-05,2.20232e-05,2.32374e-05,5.55438e-05,2.82406e-05,1.70111e-05
56,-2.35235e-05,1.45492e-05,2.36487e-05,6.14761e-05,2.07633e-05,1.20787e-05
57,-2.27539e-06,1.02581e-05,3.28546e-05,6.08878e-05,1.71825e-05,1.22918e-05
58,3.76558e-06,1.00283e-05,3.88137e-05,5.51251e-05,2.09719e-05,1.5256e-05
59,-2.51442e-06,1.02883e-05,4.3906e-05,5.08416e-05,2.86546e-05,1.88445e-05
60,-5.88629e-06,9.66581e-06,4.90148e-05,5.06145e-05,3.23324e-05,1.86208e-05
61,-5.94793e-06,1.06688e-05,4.79114e-05,5.20121e-05,3.18848e-05,1.47891e-05
62,-7.26386e-06,1.33247e-05,3.97207e-05,5.23483e-05,3.30248e-05,1.06182e-05
63,-1.67904e-05,1.2627e-05,2.76286e-05,5.07992e-05,3.50861e-05,4.67584e-06
64,-2.54528e-05,8.21174e-06,2.282e-05,4.92243e-05,3.0456e-05,1.35883e-06
65,-1.94711e-05,7.07432e-06,2.88261e-05,4.82829e-05,2.0509e-05,6.10774e-06
66,-6.82073e-06,1.11484e-05,3.80363e-05,4.84517e-05,1.70688e-05,1.29592e-05
67,-9.48488e-07,1.53826e-05,4.29864e-05,4.85782e-05,2.22361e-05,1.48998e-05
68,-3.89792e-06,1.74717e-05,4.12998e-05,4.69359e-05,2.75366e-05,1.29917e-05
69,-1.26381e-05,1.50709e-05,3.29004e-05,4.43187e-05,2.82062e-05,9.38049e-06
70,-1.90705e-05,8.57359e-06,2.3178e-05,4.33363e-05,2.45596e-05,6.83248e-06
71,-1.4021e-05,3.66708e-06,2.33768e-05,4.70177e-05,1.88485e-05,8.59277e-06
72,-1.03622e-06,3.62017e-06,3.55581e-05,5.37827e-05,1.66252e-05,1.40198e-05
73,6.75146e-06,7.17498e-06,4.76225e-05,5.86948e-05,2.1037e-05,1.85815e-05
74,3.21931e-06,1.21961e-05,4.73429e-05,5.98585e-05,2.6812e-05,1.80212e-05
75,-9.60409e-06,1.57584e-05,3.51019e-05,6.04529e-05,2.76371e-05,1.16724e-05
76,-2.25229e-05,1.64208e-05,2.26961e-05,6.23695e-05,2.41331e-05,4.29731e-06
77,-2.16574e-05,1.58677e-05,2.28942e-05,6.3493e-05,2.04609e-05,3.68762e-06
78,-6.72233e-06,1.42383e-05,3.35728e-05,6.16746e-05,2.3151e-05,1.00599e-05
79,7.12461e-06,1.24098e-05,4.27793e-05,5.87869e-05,3.28382e-05,1.58014e-05
80,7.8125e-06,1.36924e-05,4.38943e-05,5.75254e-05,3.74301e-05,1.69958e-05
81,-7.82443e-06,1.67447e-05,3.57417e-05,5.84816e-05,3.31328e-05,1.323e-05
82,-2.73785e-05,1.63922e-05,2.30882e-05,6.09875e-05,2.71483e-05,5.78218e-06
83,-2.48077e-05,1.38713e-05,2.02945e-05,6.27346e-05,1.97533e-05,2.86523e-06
84,-5.52699e-06,1.65244e-05,2.75438e-05,6.14866e-05,1.57742e-05,5.79266e-06
85,3.54232e-06,2.39592e-05,2.92053e-05,5.63325e-05,2.18796e-05,8.29038e-06
86,3.06978e-06,2.60037e-05,2.671e-05,5.06003e-05,2.95937e-05,1.18459e-05
87,2.78886e-06,1.99277e-05,2.66338e-05,4.99142e-05,3.27304e-05,1.65535e-05
88,3.64665e-06,1.37115e-05,2.71224e-05,5.18174e-05,3.32685e-05,1.71383e-05
89,1.94017e-06,1.32928e-05,2.68702e-05,5.04197e-05,3.31027e-05,1.30809e-05
90,-9.3094e-06,1.45582e-05,2.25667e-05,4.67247e-05,3.30018e-05,5.54881e-06
91,-2.03911e-05,1.20422e-05,1.78548e-05,4.55825e-05,2.89191e-05,4.57973e-09
92,-1.76975e-05,8.9463e-06,1.94785e-05,4.76934e-05,2.16374e-05,1.24897e-06
93,-5.5739e-06,8.44141e-06,2.54548e-05,4.90996e-05,1.85316e-05,6.26863e-06
94,2.22072e-06,1.00851e-05,2.87618e-05,4.80914e-05,2.28274e-05,9.33454e-06
95,-1.45494e-07,1.21015e-05,2.86779e-05,4.65243e-05,2.64626e-05,7.86844e-06
96,-1.20172e-05,1.19037e-05,2.49106e-05,4.81101e-05,2.40939e-05,3.79477e-06
97,-2.16415e-05,8.62439e-06,2.09136e-05,5.28468e-05,1.8073e-05,8.58461e-07
98,-1.58962e-05,5.72198e-06,2.50408e-05,5.58208e-05,1.2708e-05,1.33522e-06
99,-1.01764e-06,4.71687e-06,3.7078e-05,5.25421e-05,1.45118e-05,4.62351e-06
100,5.51846e-06,5.10546e-06,4.64836e-05,4.47606e-05,2.33523e-05,9.25211e-06
101,-2.56588e-06,6.1681e-06,4.50852e-05,3.89724e-05,3.00219e-05,1.27225e-05
102,-1.93749e-05,4.7594e-06,3.42296e-05,3.99973e-05,3.06444e-05,1.21511e-05
103,-3.19069e-05,-2.28361e-07,2.35195e-05,4.66299e-05,2.84693e-05,8.97782e-06
104,-2.34067e-05,-4.30885e-06,2.67406e-05,5.28631e-05,2.37568e-05,9.64298e-06
105,-1.24579e-07,-5.04029e-06,4.07547e-05,5.33908e-05,2.00513e-05,1.56838e-05
106,1.32473e-05,-2.84828e-06,4.90096e-05,5.00471e-05,2.40674e-05,2.21261e-05
107,8.88727e-06,2.84245e-06,4.66476e-05,4.86853e-05,3.18214e-05,2.24855e-05
108,-5.48055e-06,7.55329e-06,3.90411e-05,5.02517e-05,3.55405e-05,1.60316e-05
109,-2.04665e-05,7.86716e-06,3.06606e-05,5.11505e-05,3.46818e-05,8.00463e-06
110,-1.78195e-05,9.49753e-06,3.17572e-05,4.82192e-05,2.95033e-05,4.37356e-06
111,-1.706e-06,1.48118e-05,4.02337e-05,4.37601e-05,2.67205e-05,6.48651e-06
112,4.60393e-06,1.70727e-05,4.1328e-05,4.16097e-05,3.16e-05,9.12459e-06
113,3.92899e-06,1.48578e-05,3.88875e-05,4.30934e-05,3.7859e-05,1.06326e-05
114,4.68263e-06,1.25005e-05,4.125e-05,4.64896e-05,4.10042e-05,1.20024e-05
115,4.90395e-06,1.42267e-05,4.55125e-05,4.74049e-05,4.20458e-05,1.35022e-05
116,3.44815e-06,1.74156e-05,4.76376e-05,4.46386e-05,4.19541e-05,1.46015e-05
117,-5.14241e-06,1.62151e-05,4.44256e-05,4.28543e-05,4.33765e-05,1.24995e-05
118,-1.48525e-05,1.19179e-05,4.07858e-05,4.46802e-05,4.02052e-05,9.46547e-06
119,-1.23623e-05,9.97523e-06,4.2776e-05,4.89026e-05,2.87907e-05,1.11334e-05
120,-8.48855e-07,1.2155e-05,4.77002e-05,5.30609e-05,2.24592e-05,1.65223e-05
121,7.38329e-06,1.7986e-05,4.99634e-05,5.46449e-05,2.81017e-05,2.04782e-05
122,6.65249e-06,2.43993e-05,4.75966e-05,5.39959e-05,3.55189e-05,1.89052e-05
123,-3.43071e-06,2.48719e-05,3.87806e-05,5.40768e-05,3.7153e-05,1.19819e-05
124,-1.36867e-05,1.88101e-05,2.87794e-05,5.6458e-05,3.28819e-05,6.24352e-06
125,-1.05141e-05,1.28247e-05,2.83601e-05,5.7878e-05,2.48686e-05,6.98636e-06
126,4.49091e-06,1.22703e-05,3.75414e-05,5.51758e-05,2.15622e-05,1.27474e-05
127,1.53447e-05,1.68741e-05,4.53542e-05,5.12367e-05,2.75334e-05,1.78265e-05
128,1.23539e-05,2.28519e-05,4.3697e-05,4.99789e-05,3.3619e-05,1.84043e-05
129,-1.39226e-06,2.40204e-05,3.3919e-05,4.97131e-05,3.22722e-05,1.349e-05
130,-1.26356e-05,1.73153e-05,2.49512e-05,4.79593e-05,2.70453e-05,7.0863e-06
131,-7.35547e-06,1.02257e-05,2.89635e-05,4.57029e-05,2.08342e-05,6.45274e-06
132,8.90037e-06,9.57255e-06,4.49429e-05,4.61504e-05,1.6542e-05,1.08712e-05
133,1.8564e-05,1.27301e-05,5.71684e-05,5.0309e-05,1.78078e-05,1.32506e-05
134,1.51172e-05,1.67059e-05,5.5718e-05,5.43199e-05,2.2218e-05,1.11413e-05
135,-7.22374e-07,1.77181e-05,4.45515e-05,5.60261e-05,2.42489e-05,5.22432e-06
136,-2.04939e-05,1.42149e-05,3.33943e-05,5.5874e-05,2.00986e-05,-1.56974e-06
137,-2.10844e-05,1.11484e-05,3.37625e-05,5.25873e-05,1.25935e-05,-6.59571e-07
138,-4.65402e-06,1.25406e-05,4.15378e-05,4.84316e-05,1.04439e-05,7.13663e-06
139,3.1777e-06,1.6104e-05,4.47225e-05,5.00112e-05,1.78435e-05,1.13686e-05
140,3.16028e-06,1.65115e-05,4.47832e-05,5.57612e-05,2.94996e-05,1.17043e-05
141,5.39206e-06,1.55891e-05,4.42236e-05,5.90318e-05,3.4958e-05,1.24925e-05
142,8.52859e-06,1.90234e-05,4.28454e-05,6.02853e-05,3.46741e-05,1.42907e-05
143,6.17071e-06,2.41443e-05,4.09995e-05,6.05192e-05,3.54986e-05,1.46311e-05
144,-7.98384e-06,2.31949e-05,3.46078e-05,6.10632e-05,3.83392e-05,1.16081e-05
145,-2.05795e-05,1.76431e-05,2.85384e-05,6.1384e-05,3.72966e-05,8.2813e-06
146,-1.51377e-05,1.41136e-05,3.32697e-05,5.91542e-05,3.18712e-05,8.75323e-06
147,9.89583e-07,1.4083e-05,4.52318e-05,5.64437e-05,2.97839e-05,1.16029e-05
148,9.47361e-06,1.73588e-05,5.28053e-05,5.48418e-05,3.11812e-05,1.25553e-05
149,5.66924e-06,2.12342e-05,5.07269e-05,5.29832e-05,3.25302e-05,1.14343e-05
150,-6.36075e-06,2.1654e-05,4.10949e-05,5.08527e-05,3.24832e-05,9.08708e-06
151,-1.57009e-05,1.6654e-05,3.36556e-05,5.11088e-05,2.91529e-05,7.88603e-06
152,-1.31728e-05,1.14699e-05,3.65764e-05,5.13997e-05,2.32592e-05,9.46839e-06
153,-3.59188e-06,1.20524e-05,4.41678e-05,4.95702e-05,2.11134e-05,1.2572e-05
154,1.83231e-06,1.71854e-05,4.61409e-05,4.86221e-05,2.65117e-05,1.4524e-05
155,-1.45122e-06,2.10342e-05,4.13529e-05,5.06555e-05,3.50889e-05,1.47805e-05
156,-1.20334e-05,1.90164e-05,3.3047e-05,5.34255e-05,4.17043e-05,1.32772e-05
157,-2.17514e-05,1.32601e-05,2.70132e-05,5.45035e-05,4.1785e-05,1.0964e-05
158,-1.60246e-05,1.03578e-05,3.10361e-05,5.27505e-05,3.379e-05,1.0927e-05
159,3.20438e-06,1.17019e-05,4.09191e-05,5.01438e-05,2.79417e-05,1.43489e-05
160,1.63074e-05,1.54733e-05,4.54637e-05,4.95076e-05,3.27327e-05,1.86951e-05
161,1.50348e-05,2.17306e-05,4.17054e-05,4.99491e-05,4.11147e-05,1.99353e-05
162,4.0765e-06,2.53103e-05,3.30979e-05,5.16788e-05,4.4696e-05,1.55349e-05
163,-1.00149e-05,2.1836e-05,2.63311e-05,5.55924e-05,4.26629e-05,8.27725e-06
164,-8.98575e-06,1.70131e-05,3.04991e-05,5.71103e-05,3.41162e-05,7.54795e-06
165,3.34736e-06,1.67964e-05,3.97198e-05,5.16651e-05,2.40927e-05,1.49551e-05
166,2.65639e-06,1.56039e-05,3.97757e-05,4.59015e-05,2.38217e-05,2.08592e-05
167,-2.52754e-06,8.86232e-06,3.78917e-05,4.54442e-05,3.16694e-05,2.2303e-05
168,8.62157e-07,3.40541e-06,4.19898e-05,4.75787e-05,3.64942e-05,2.30065e-05
169,3.92102e-06,5.52863e-06,4.51758e-05,4.83507e-05,3.56029e-05,2.47346e-05
170,6.92956e-07,9.99361e-06,4.17612e-05,4.64218e-05,3.28214e-05,2.55087e-05
171,-1.16488e-05,7.91152e-06,3.05878e-05,4.56659e-05,3.11084e-05,1.97094e-05
172,-2.18678e-05,1.20913e-06,2.28851e-05,4.84346e-05,2.6781e-05,1.18745e-05
173,-1.65636e-05,-5.92898e-07,2.88514e-05,5.22314e-05,1.93661e-05,1.05459e-05
174,-3.92503e-06,3.18409e-06,4.07149e-05,5.35342e-05,1.82513e-05,1.48158e-05
175,1.64831e-06,7.77406e-06,4.59518e-05,5.12516e-05,2.56329e-05,1.8391e-05
176,-9.04105e-07,1.09566e-05,4.25497e-05,4.85253e-05,3.22784e-05,1.81866e-05
177,-8.80381e-06,1.08467e-05,3.1952e-05,4.7879e-05,3.21831e-05,1.43308e-05
178,-1.66869e-05,6.73325e-06,2.28232e-05,4.89654e-05,2.50929e-05,1.09594e-05
179,-1.5684e-05,3.26045e-06,2.72756e-05,4.88023e-05,1.36868e-05,1.28691e-05
180,-7.5017e-06,4.00298e-06,4.15328e-05,4.52159e-05,9.84e-06,1.73945e-05
181,-8.84856e-07,7.25105e-06,5.11762e-05,4.06393e-05,2.01283e-05,1.9086e-05
182,-2.78763e-07,9.62346e-06,5.05266e-05,3.97027e-05,3.17226e-05,1.67408e-05
183,-8.08734e-06,8.48257e-06,4.17118e-05,4.32619e-05,3.31911e-05,1.13458e-05
184,-1.97661e-05,3.96725e-06,3.1863e-05,4.70789e-05,2.8056e-05,6.08975e-06
185,-1.93387e-05,1.74624e-08,3.21191e-05,4.89601e-05,2.27497e-05,6.65918e-06
186,-6.21284e-06,-5.05578e-08,4.04682e-05,5.03749e-05,2.30928e-05,1.25862e-05
187,3.51128e-06,3.31395e-06,4.61276e-05,5.02259e-05,3.15514e-05,1.68084e-05
188,2.40672e-06,9.79751e-06,4.57441e-05,4.762e-05,3.90732e-05,1.51203e-05
189,-9.05052e-06,1.50137e-05,3.98908e-05,4.7807e-05,3.80053e-05,1.07689e-05
190,-2.43783e-05,1.47289e-05,3.1553e-05,5.32924e-05,3.11699e-05,8.78422e-06
191,-2.47922e-05,1.26506e-05,3.0384e-05,5.73733e-05,2.32742e-05,1.33703e-05
192,-1.15105e-05,1.16285e-05,3.61482e-05,5.59144e-05,1.96179e-05,2.02675e-05
193,-5.76973e-06,1.14451e-05,3.77285e-05,5.24079e-05,2.32131e-05,1.95993e-05
194,-6.30614e-06,1.22346e-05,3.76354e-05,5.19466e-05,2.89206e-05,1.65018e-05
195,-6.80704e-06,1.20531e-05,4.11641e-05,5.30911e-05,3.16014e-05,1.82574e-05
196,-8.45006e-06,1.29686e-05,4.35213e-05,5.12295e-05,3.04756e-05,2.08376e-05
197,-1.06862e-05,1.6177e-05,4.20845e-05,4.82262e-05,3.0329e-05,2.0711e-05
198,-2.0399e-05,1.78698e-05,3.54451e-05,4.68925e-05,3.3146e-05,1.72345e-05
199,-3.04025e-05,1.66275e-05,3.19209e-05,4.79159e-05,3.06475e-05,1.44017e-05
200,-2.35215e-05,1.35851e-05,4.03367e-05,5.07377e-05,2.18573e-05,1.53095e-05
201,-6.15607e-06,9.7728e-06,5.15392e-05,5.52344e-05,1.85146e-05,1.72365e-05
202,2.44809e-06,8.42748e-06,5.26613e-05,5.7827e-05,2.48478e-05,1.67758e-05
203,-2.77612e-06,1.1126e-05,4.62405e-05,5.49067e-05,2.94521e-05,1.52646e-05
204,-1.75882e-05,1.3917e-05,3.80723e-05,4.94989e-05,2.67291e-05,1.36788e-05
205,-2.93208e-05,1.33884e-05,3.16487e-05,4.79837e-05,1.91949e-05,1.16834e-05
206,-2.54657e-05,1.15296e-05,3.22214e-05,5.21906e-05,1.19029e-05,1.13592e-05
207,-1.13948e-05,1.14138e-05,3.94559e-05,5.61459e-05,1.1765e-05,1.36013e-05
208,-4.54772e-06,1.4302e-05,4.66535e-05,5.461e-05,2.03052e-05,1.60319e-05
209,-1.09008e-05,1.78716e-05,4.71366e-05,5.07303e-05,2.7451e-05,1.52283e-05
210,-2.28768e-05,1.74241e-05,3.81146e-05,5.15106e-05,2.65375e-05,1.0386e-05
211,-3.03243e-05,1.19172e-05,2.74379e-05,5.64439e-05,2.21079e-05,5.90655e-06
212,-2.50891e-05,5.92593e-06,2.9817e-05,5.80587e-05,1.70716e-05,6.84137e-06
213,-1.27171e-05,3.68247e-06,4.25925e-05,5.48739e-05,1.42859e-05,9.16327e-06
214,-5.93892e-06,6.09269e-06,5.03661e-05,5.42136e-05,1.79101e-05,7.96859e-06
215,-8.37387e-06,1.24097e-05,4.68349e-05,5.68753e-05,2.60383e-05,6.97293e-06
216,-1.94913e-05,1.76667e-05,3.42977e-05,5.89095e-05,3.34357e-05,7.83349e-06
217,-3.48697e-05,1.41999e-05,2.12174e-05,6.09826e-05,3.36819e-05,6.16834e-06
218,-3.49219e-05,4.73093e-06,2.14027e-05,6.19959e-05,2.31524e-05,4.79624e-06
219,-1.81023e-05,4.10151e-07,3.08684e-05,5.89564e-05,1.58648e-05,7.65412e-06
220,-5.02851e-06,4.70401e-06,3.49032e-05,5.482e-05,2.59239e-05,1.06941e-05
221,2.32883e-06,1.07495e-05,3.65635e-05,5.45646e-05,4.13865e-05,1.39387e-05
222,6.88917e-06,1.23326e-05,3.97625e-05,5.75756e-05,4.5894e-05,1.77222e-05
223,4.98769e-06,1.1809e-05,3.96766e-05,5.84997e-05,4.21673e-05,2.00757e-05
224,-3.16235e-06,1.1267e-05,3.53754e-05,5.57141e-05,3.78352e-05,2.06e-05
225,-1.827e-05,9.7353e-06,2.66807e-05,5.38612e-05,3.59579e-05,1.59061e-05
226,-2.66707e-05,6.51e-06,2.14122e-05,5.4814e-05,3.25923e-05,9.45774e-06
227,-1.60176e-05,4.33392e-06,2.74627e-05,5.64179e-05,2.56432e-05,8.33521e-06
228,9.666e-07,2.46911e-06,3.6935e-05,5.68438e-05,2.06827e-05,1.13115e-05
229,7.81265e-06,1.31921e-06,4.03051e-05,5.55875e-05,2.36342e-05,1.20421e-05
230,3.20063e-06,2.0338e-06,3.66448e-05,5.37484e-05,3.23752e-05,8.36364e-06
231,-8.55975e-06,2.62897e-06,2.78876e-05,5.24266e-05,3.96934e-05,1.80779e-06
232,-1.71758e-05,1.80419e-06,2.17794e-05,5.12568e-05,3.86452e-05,-2.40696e-06
233,-1.23288e-05,1.02467e-06,2.58393e-05,4.93617e-05,3.19432e-05,1.97956e-06
234,1.21339e-06,2.5803e-06,3.64873e-05,4.84613e-05,2.87314e-05,1.17367e-05
235,1.08494e-05,7.14793e-06,4.36963e-05,5.074e-05,3.17729e-05,1.71972e-05
236,8.76799e-06,1.28911e-05,4.39134e-05,5.33703e-05,3.53205e-05,1.4059e-05
237,-5.26769e-06,1.48609e-05,3.74591e-05,5.33396e-05,3.42943e-05,7.09559e-06
238,-1.85007e-05,1.20056e-05,2.86571e-05,5.24734e-05,2.89558e-05,2.9139e-06
239,-1.32395e-05,8.48476e-06,2.92276e-05,5.30171e-05,2.14879e-05,4.67293e-06
240,4.90075e-06,6.96195e-06,3.79937e-05,5.45132e-05,1.82594e-05,9.28283e-06
241,1.45403e-05,8.24721e-06,4.10677e-05,5.53362e-05,2.47537e-05,1.06846e-05
242,7.23099e-06,1.51112e-05,3.66755e-05,5.41127e-05,3.53012e-05,7.49291e-06
243,-1.00186e-05,2.34792e-05,3.23245e-05,5.27691e-05,4.02358e-05,9.95709e-07
244,-2.58642e-05,2.52972e-05,3.03858e-05,5.26598e-05,3.75084e-05,-6.01156e-06
245,-2.31898e-05,1.97903e-05,3.38012e-05,5.26564e-05,2.87344e-05,-5.14902e-06
246,-4.20973e-06,1.43225e-05,3.90711e-05,5.13156e-05,2.31921e-05,5.50623e-07
247,6.77327e-06,1.44281e-05,3.93588e-05,4.96457e-05,2.72134e-05,3.75171e-07
248,8.43227e-06,2.01541e-05,4.02329e-05,5.07808e-05,3.43184e-05,-2.4911e-06
249,9.14285e-06,2.55248e-05,4.51443e-05,5.31883e-05,3.96933e-05,-7.80636e-07
250,9.47389e-06,2.58802e-05,4.95624e-05,5.40112e-05,4.28813e-05,4.1703e-06
251,6.30546e-06,2.20502e-05,4.87838e-05,5.25449e-05,4.18931e-05,6.88448e-06
252,-6.19224e-06,1.56371e-05,3.93269e-05,5.1328e-05,3.94429e-05,5.60864e-06
253,-1.68875e-05,1.22742e-05,2.8881e-05,5.13835e-05,3.41877e-05,2.98027e-06
254,-1.1854e-05,1.53398e-05,2.90484e-05,5.01258e-05,2.69976e-05,3.63912e-06
255,2.45183e-06,1.98757e-05,3.73312e-05,4.84809e-05,2.62374e-05,8.44647e-06
256,1.03371e-05,2.21569e-05,4.29564e-05,4.96561e-05,3.3799e-05,1.30818e-05
257,7.05526e-06,2.1231e-05,4.04891e-05,5.27515e-05,4.10987e-05,1.36726e-05
258,-5.3093e-06,1.70579e-05,2.9189e-05,5.45546e-05,4.2099e-05,9.65553e-06
259,-1.60498e-05,1.25016e-05,1.839e-05,5.45281e-05,3.56816e-05,5.83985e-06
260,-1.12793e-05,1.06239e-05,2.10151e-05,5.27626e-05,2.69054e-05,7.06749e-06
261,4.11877e-06,1.06813e-05,3.50565e-05,4.97682e-05,2.45862e-05,1.15318e-05
262,1.25969e-05,1.27462e-05,4.45378e-05,4.81018e-05,2.93847e-05,1.45919e-05
263,8.44287e-06,1.59398e-05,4.06975e-05,4.81488e-05,3.54428e-05,1.46371e-05
264,-2.72299e-06,1.59291e-05,2.72288e-05,4.77386e-05,3.82464e-05,1.34272e-05
265,-1.20797e-05,1.19959e-05,1.53563e-05,4.73202e-05,3.5306e-05,1.3769e-05
266,-8.84381e-06,9.4597e-06,1.80121e-05,4.74813e-05,2.63413e-05,1.72771e-05
267,5.08282e-06,1.17688e-05,3.33301e-05,4.63597e-05,1.98381e-05,2.08108e-05
268,1.54881e-05,1.62242e-05,4.63739e-05,4.4409e-05,2.3475e-05,1.97134e-05
269,1.42822e-05,1.88892e-05,4.91464e-05,4.31399e-05,3.21748e-05,1.42649e-05
270,1.233e-06,1.73147e-05,4.3602e-05,4.31219e-05,3.57678e-05,9.71515e-06
271,-1.47193e-05,1.17056e-05,3.51856e-05,4.39539e-05,3.14476e-05,8.77509e-06
272,-9.67708e-06,6.8426e-06,3.35195e-05,4.43159e-05,2.13527e-05,1.07278e-05
273,1.18459e-05,9.98006e-06,3.74842e-05,4.60455e-05,1.42495e-05,1.35063e-05
274,1.90521e-05,1.83301e-05,3.76928e-05,4.90676e-05,1.97348e-05,1.29942e-05
275,1.61516e-05,2.47167e-05,3.51809e-05,5.03038e-05,3.27505e-05,1.1947e-05
276,1.51078e-05,2.67888e-05,3.48753e-05,5.00681e-05,4.04722e-05,1.38435e-05
277,1.34839e-05,2.70493e-05,3.63979e-05,4.9222e-05,4.06902e-05,1.66882e-05
278,6.78452e-06,2.73255e-05,3.58186e-05,4.45465e-05,3.60181e-05,1.8686e-05
279,-1.0896e-05,2.47694e-05,2.92833e-05,3.91817e-05,3.02319e-05,1.72101e-05
280,-2.37266e-05,1.95601e-05,2.39927e-05,3.94148e-05,2.45141e-05,1.39748e-05
281,-1.83684e-05,1.62978e-05,3.00584e-05,4.28087e-05,1.93571e-05,1.54844e-05
282,-4.49288e-06,1.65482e-05,4.19482e-05,4.51954e-05,1.87599e-05,2.02615e-05
283,3.37436e-06,1.93652e-05,4.69995e-05,4.55109e-05,2.36568e-05,2.30306e-05
284,1.25226e-06,2.31636e-05,4.27858e-05,4.60204e-05,2.91352e-05,2.33592e-05
285,-1.13343e-05,2.34956e-05,3.43031e-05,4.95164e-05,3.22995e-05,2.11591e-05
286,-2.53962e-05,1.79287e-05,2.90311e-05,5.54186e-05,3.05682e-05,1.89611e-05
287,-2.53307e-05,1.18582e-05,3.26761e-05,5.82896e-05,2.41761e-05,1.94397e-05
288,-1.23907e-05,1.05129e-05,4.16326e-05,5.45641e-05,2.14572e-05,2.09948e-05
289,-1.92232e-06,1.33206e-05,4.77336e-05,4.7864e-05,2.60538e-05,1.95211e-05
290,-2.43837e-06,1.67465e-05,4.62533e-05,4.46031e-05,3.1663e-05,1.51969e-05
291,-1.25942e-05,1.59532e-05,3.54419e-05,4.70807e-05,3.33228e-05,9.57431e-06
292,-2.20985e-05,8.1358e-06,2.3297e-05,5.12164e-05,3.13085e-05,5.85e-06
293,-1.49167e-05,1.15982e-06,2.43311e-05,5.40186e-05,2.5653e-05,8.86482e-06
294,3.85425e-06,3.79557e-06,3.81959e-05,5.55002e-05,2.1923e-05,1.51389e-05
295,1.37422e-05,1.1147e-05,4.9683e-05,5.46595e-05,2.55699e-05,1.7187e-05
296,8.64955e-06,1.50222e-05,5.02785e-05,5.11648e-05,3.24488e-05,1.43564e-05
297,-5.5945e-06,1.34235e-05,4.22556e-05,4.73695e-05,3.55717e-05,9.65763e-06
298,-1.99439e-05,9.10486e-06,3.38907e-05,4.63261e-05,3.20968e-05,6.01664e-06
299,-1.57738e-05,5.54639e-06,3.62278e-05,4.76208e-05,2.23461e-05,7.12627e-06
300,-1.8155e-07,4.82355e-06,4.51465e-05,4.88302e-05,1.51619e-05,1.14721e-05
301,3.87814e-06,8.68745e-06,4.79202e-05,4.85706e-05,1.76058e-05,1.51797e-05
302,3.53945e-06,1.37166e-05,4.83393e-05,4.91307e-05,2.71197e-05,1.80479e-05
303,6.96209e-06,1.39167e-05,4.95113e-05,5.19587e-05,3.48706e-05,1.99337e-05
304,7.37538e-06,1.23293e-05,4.83148e-05,5.20701e-05,3.44854e-05,1.95469e-05
305,9.83114e-07,1.42128e-05,4.57419e-05,4.94027e-05,3.04355e-05,1.88148e-05
306,-1.16063e-05,1.64743e-05,3.73628e-05,5.01764e-05,2.82588e-05,1.57167e-05
307,-1.79563e-05,1.49238e-05,2.73291e-05,5.42544e-05,2.57736e-05,8.82688e-06
308,-5.86134e-06,1.23565e-05,2.65571e-05,5.47427e-05,2.29222e-05,5.73809e-06
309,1.28448e-05,9.03291e-06,3.54508e-05,4.97914e-05,2.4982e-05,1.04344e-05
310,1.80019e-05,6.9114e-06,4.43187e-05,4.49933e-05,3.10719e-05,1.75776e-05
311,7.57018e-06,8.54786e-06,4.52381e-05,4.56552e-05,3.45432e-05,2.04243e-05
312,-8.45643e-06,9.92544e-06,3.61852e-05,5.09509e-05,3.30616e-05,1.52117e-05
313,-1.63904e-05,7.69658e-06,2.63329e-05,5.70741e-05,2.72876e-05,6.03431e-06
314,-9.2665e-06,3.98954e-06,2.94789e-05,6.10191e-05,1.98788e-05,2.0061e-06
315,5.71669e-06,1.2311e-06,4.36386e-05,5.98271e-05,1.82984e-05,4.82331e-06
316,1.52076e-05,1.20154e-07,5.48227e-05,5.50522e-05,2.35296e-05,7.71438e-06
317,1.32168e-05,2.74532e-07,5.39777e-05,5.13882e-05,2.73295e-05,6.51433e-06
318,1.41772e-07,-5.56455e-07,4.15209e-05,5.03847e-05,2.58177e-05,1.13929e-06
319,-1.63547e-05,-1.63085e-06,2.81687e-05,5.10811e-05,2.16949e-05,-5.20999e-06
320,-1.96621e-05,1.38954e-06,2.73062e-05,5.20868e-05,1.73705e-05,-5.11637e-06
321,-6.27875e-06,8.83349e-06,3.67222e-05,5.08686e-05,1.72403e-05,3.32548e-06
322,7.5758e-06,1.51939e-05,4.50213e-05,4.68753e-05,2.42259e-05,1.22269e-05
323,9.6943e-06,1.88537e-05,4.66289e-05,4.2309e-05,3.13749e-05,1.56928e-05
324,-2.18815e-06,1.9518e-05,3.92676e-05,4.13087e-05,3.19707e-05,1.42425e-05
325,-1.99575e-05,1.65993e-05,2.73774e-05,4.59349e-05,2.60926e-05,1.00879e-05
326,-1.79982e-05,1.39061e-05,2.52926e-05,4.93435e-05,1.62652e-05,7.32342e-06
327,1.21475e-06,1.40552e-05,3.24131e-05,4.6706e-05,1.18062e-05,7.73992e-06
328,7.99624e-06,1.46018e-05,3.5226e-05,4.33234e-05,1.7445e-05,1.09252e-05
329,3.32598e-06,1.11359e-05,3.49983e-05,4.33774e-05,2.51702e-05,1.63342e-05
330,1.10965e-06,5.37816e-06,3.80226e-05,4.54037e-05,2.7174e-05,2.09373e-05
331,2.08663e-06,5.4618e-06,4.18941e-05,4.61783e-05,2.71911e-05,2.04699e-05
332,1.07071e-06,1.08539e-05,4.28733e-05,4.60255e-05,3.05672e-05,1.39114e-05
333,-1.0344e-05,1.35413e-05,3.7724e-05,4.74813e-05,3.30743e-05,6.33641e-06
334,-2.28641e-05,1.07091e-05,3.02707e-05,4.90213e-05,2.85056e-05,4.7134e-06
335,-1.87656e-05,7.91146e-06,2.90017e-05,4.89766e-05,1.90664e-05,9.99653e-06
336,-3.33773e-06,1.08902e-05,3.31146e-05,4.89815e-05,1.69519e-05,1.5342e-05
337,4.00015e-06,1.74982e-05,3.62956e-05,4.92044e-05,2.48064e-05,1.51799e-05
338,-2.85652e-06,2.12301e-05,3.54155e-05,4.92211e-05,3.34002e-05,1.1646e-05
339,-1.82518e-05,1.9321e-05,2.85586e-05,4.98559e-05,3.62316e-05,7.97337e-06
340,-2.86436e-05,1.35984e-05,2.19327e-05,5.15506e-05,3.02015e-05,6.67962e-06
341,-2.21018e-05,8.03573e-06,2.44939e-05,5.36897e-05,2.00736e-05,8.87328e-06
342,-5.76561e-06,6.01465e-06,3.46318e-05,5.5042e-05,1.73038e-05,1.27893e-05
343,3.16935e-06,8.97293e-06,4.38978e-05,5.51505e-05,2.65573e-05,1.54192e-05
344,-1.78768e-07,1.41214e-05,4.55809e-05,5.49378e-05,3.79135e-05,1.52763e-05
345,-1.23444e-05,1.55279e-05,3.64836e-05,5.58393e-05,4.16831e-05,1.26624e-05
346,-2.58506e-05,1.15353e-05,2.4743e-05,5.68216e-05,3.78599e-05,9.58918e-06
347,-2.52195e-05,7.96494e-06,2.69502e-05,5.6267e-05,2.95006e-05,9.90276e-06
348,-9.57983e-06,9.58375e-06,4.11847e-05,5.60067e-05,2.28886e-05,1.50266e-05
349,2.69149e-06,1.59196e-05,4.93855e-05,5.8976e-05,2.52306e-05,2.05469e-05
350,1.64993e-06,2.30706e-05,4.66132e-05,6.20714e-05,3.18696e-05,2.16535e-05
351,-1.06672e-05,2.49802e-05,3.98419e-05,6.13638e-05,3.54837e-05,1.7338e-05
352,-2.60331e-05,2.20349e-05,3.44916e-05,5.83454e-05,3.4474e-05,1.09047e-05
353,-2.44406e-05,2.06221e-05,3.79627e-05,5.51018e-05,2.68133e-05,9.69173e-06
354,-7.37054e-06,2.40248e-05,4.52369e-05,5.31812e-05,1.77325e-05,1.20091e-05
355,4.12967e-08,2.79384e-05,4.40371e-05,5.32328e-05,1.79151e-05,1.16629e-05
356,-2.30132e-06,2.46613e-05,3.72276e-05,5.43037e-05,2.65904e-05,1.15386e-05
357,-4.01861e-06,1.91804e-05,3.36739e-05,5.35771e-05,3.45821e-05,1.49237e-05
358,-4.22595e-06,2.09095e-05,3.73786e-05,4.963e-05,3.98642e-05,1.88537e-05
359,-6.9462e-06,2.58361e-05,4.19951e-05,4.66444e-05,4.36535e-05,1.96421e-05
360,-1.94638e-05,2.82821e-05,3.73049e-05,4.83514e-05,4.50238e-05,1.59514e-05
361,-3.0482e-05,2.49178e-05,2.94664e-05,5.08342e-05,3.79107e-05,1.20152e-05
362,-2.41322e-05,1.7991e-05,3.11437e-05,4.86523e-05,2.42093e-05,1.34198e-05
363,-7.29963e-06,1.22295e-05,3.98379e-05,4.55894e-05,1.98717e-05,1.9078e-05
364,1.60662e-06,1.29935e-05,4.47104e-05,4.62987e-05,2.87891e-05,2.48207e-05
365,-1.93957e-06,2.01055e-05,4.20123e-05,4.89556e-05,3.60334e-05,2.60621e-05
366,-1.53051e-05,2.45354e-05,3.258e-05,5.05446e-05,3.49316e-05,2.13577e-05
367,-2.76527e-05,2.2551e-05,2.46809e-05,5.00146e-05,2.85034e-05,1.56728e-05
368,-2.4799e-05,1.86793e-05,2.77813e-05,4.87911e-05,2.09527e-05,1.47344e-05
369,-8.94814e-06,1.56912e-05,3.85398e-05,4.882e-05,1.87336e-05,1.78835e-05
370,4.27279e-06,1.28262e-05,4.52755e-05,4.9973e-05,2.45215e-05,1.99842e-05
371,4.4555e-06,1.15254e-05,4.2967e-05,5.01106e-05,3.10634e-05,1.81819e-05
372,-8.99147e-06,1.20804e-05,3.38446e-05,4.78083e-05,3.33615e-05,1.32067e-05
373,-2.3612e-05,1.10578e-05,2.57062e-05,4.58566e-05,3.20559e-05,8.44625e-06
374,-2.0106e-05,6.75986e-06,3.03051e-05,4.98325e-05,2.51589e-05,9.05276e-06
375,-2.04946e-06,4.00043e-06,4.50702e-05,5.77386e-05,1.86135e-05,1.46199e-05
376,8.89699e-06,6.692e-06,5.48054e-05,6.11303e-05,2.2517e-05,1.98494e-05
377,3.00408e-06,1.17466e-05,5.35556e-05,5.8091e-05,3.08931e-05,2.25259e-05
378,-1.3552e-05,1.2254e-05,4.40483e-05,5.45355e-05,3.26608e-05,2.05298e-05
379,-2.73228e-05,8.07391e-06,3.16558e-05,5.43527e-05,2.86789e-05,1.34227e-05
380,-2.00686e-05,7.12593e-06,2.98313e-05,5.72175e-05,2.19042e-05,8.83808e-06
381,-4.89364e-07,1.18621e-05,3.79343e-05,5.90834e-05,1.78868e-05,9.54809e-06
382,6.71048e-06,1.45717e-05,4.08858e-05,5.50173e-05,2.0421e-05,9.79237e-06
383,4.1866e-06,1.16804e-05,4.13713e-05,4.92137e-05,2.62527e-05,1.12635e-05
384,2.46546e-06,1.01337e-05,4.51749e-05,4.98662e-05,3.23917e-05,1.41281e-05
385,5.69773e-07,1.5087e-05,4.78029e-05,5.5249e-05,3.58165e-05,1.39e-05
386,-6.01287e-06,2.14437e-05,4.63781e-05,5.67071e-05,3.46047e-05,8.76057e-06
387,-2.02006e-05,2.36837e-05,3.6862e-05,5.46461e-05,3.24376e-05,1.79146e-06
388,-2.87526e-05,2.08244e-05,2.79912e-05,5.52327e-05,2.73551e-05,-6.94994e-08
389,-1.7762e-05,1.68251e-05,3.43507e-05,5.57028e-05,2.0038e-05,4.97574e-06
390,1.65025e-06,1.66022e-05,5.02211e-05,5.2705e-05,1.85112e-05,1.071e-05
391,1.10579e-05,2.1412e-05,5.81837e-05,4.82082e-05,2.3678e-05,1.04602e-05
392,6.29729e-06,2.6877e-05,5.21988e-05,4.62169e-05,2.83441e-05,5.7062e-06
393,-9.66494e-06,2.63044e-05,3.65653e-05,4.81907e-05,2.95376e-05,1.08903e-06
394,-2.24797e-05,2.11768e-05,2.36612e-05,5.2382e-05,2.62745e-05,6.01776e-07
395,-1.63787e-05,1.76998e-05,2.50722e-05,5.6632e-05,1.7983e-05,6.18369e-06
396,1.45737e-06,1.65566e-05,3.70506e-05,5.69375e-05,1.2964e-05,1.53962e-05
397,1.01404e-05,1.5299e-05,4.59206e-05,5.15105e-05,1.84747e-05,2.23791e-05
398,4.2683e-06,1.48366e-05,4.45391e-05,4.58838e-05,2.88315e-05,2.37152e-05
399,-7.54385e-06,1.42959e-05,3.52677e-05,4.67775e-05,3.38326e-05,2.06221e-05
400,-1.54753e-05,1.12929e-05,2.48396e-05,5.22715e-05,3.06351e-05,1.64222e-05
401,-9.23768e-06,6.48396e-06,2.43821e-05,5.7162e-05,2.26325e-05,1.48455e-05
402,6.79012e-06,2.29299e-06,3.44007e-05,5.83986e-05,1.89855e-05,1.66255e-05
403,1.35159e-05,1.87134e-06,4.23842e-05,5.6136e-05,2.53878e-05,1.84252e-05
404,4.86266e-06,5.67214e-06,4.25081e-05,5.23156e-05,3.32053e-05,1.63113e-05
405,-1.25427e-05,9.43548e-06,3.53067e-05,5.05538e-05,3.45678e-05,9.13105e-06
406,-2.95983e-05,1.03524e-05,2.36415e-05,5.51887e-05,3.11913e-05,2.34277e-06
407,-2.68893e-05,9.39732e-06,2.25787e-05,6.34892e-05,2.19687e-05,4.13623e-06
408,-5.42792e-06,7.8797e-06,3.38801e-05,6.66705e-05,1.45847e-05,1.06391e-05
409,8.48239e-06,7.01468e-06,4.04567e-05,6.139e-05,1.85728e-05,1.32657e-05
410,1.02103e-05,7.1929e-06,4.22258e-05,5.57218e-05,2.84539e-05,1.45693e-05
411,1.1374e-05,7.03867e-06,4.5943e-05,5.58802e-05,3.54546e-05,1.6105e-05
412,1.23745e-05,7.15934e-06,4.82624e-05,5.63871e-05,3.55254e-05,1.70361e-05
413,6.01935e-06,8.03941e-06,4.52948e-05,5.26884e-05,3.22178e-05,1.72808e-05
414,-1.11873e-05,6.76145e-06,3.49245e-05,4.85782e-05,3.20285e-05,1.48518e-05
415,-2.21641e-05,2.43074e-06,2.64513e-05,4.89194e-05,3.07107e-05,1.14796e-05
416,-1.08209e-05,-8.60263e-07,3.01269e-05,5.36584e-05,2.32224e-05,1.07568e-05
417,9.58612e-06,-1.16064e-06,3.95392e-05,5.70267e-05,1.67611e-05,1.36211e-05
418,1.69606e-05,5.71737e-07,4.38043e-05,5.5079e-05,1.89613e-05,1.72031e-05
419,8.11881e-06,2.17524e-06,3.97267e-05,5.04933e-05,2.4415e-05,1.72825e-05
420,-8.94164e-06,2.5274e-06,2.76877e-05,4.87399e-05,2.60071e-05,1.08275e-05
421,-2.01148e-05,2.38455e-06,1.73655e-05,5.18035e-05,2.439e-05,4.54502e-06
422,-1.44817e-05,2.39785e-06,2.14605e-05,5.50414e-05,2.32563e-05,5.66316e-06
423,8.45203e-07,5.85758e-07,3.45909e-05,5.37315e-05,2.56871e-05,1.09452e-05
424,9.81167e-06,-1.66333e-06,4.03796e-05,4.91923e-05,3.1173e-05,1.37653e-05
425,6.17243e-06,3.49385e-08,3.49795e-05,4.58069e-05,3.67509e-05,1.28256e-05
426,-7.49214e-06,3.15114e-06,2.39506e-05,4.55696e-05,3.91355e-05,9.64526e-06
427,-2.08905e-05,2.39527e-06,1.40982e-05,4.87211e-05,3.6915e-05,6.07085e-06
428,-1.87447e-05,-2.01567e-06,1.61763e-05,5.34572e-05,3.14105e-05,5.29458e-06
429,-4.36089e-06,-5.65635e-06,3.11006e-05,5.55996e-05,2.90572e-05,7.59551e-06
430,4.57463e-06,-4.36927e-06,4.42604e-05,5.44125e-05,3.44233e-05,9.42415e-06
431,1.20417e-06,3.55147e-06,4.53423e-05,5.32317e-05,4.02194e-05,9.03063e-06
432,-1.30619e-05,1.23826e-05,3.37853e-05,5.47626e-05,3.87786e-05,8.182e-06
433,-3.03215e-05,1.29695e-05,1.97399e-05,5.84801e-05,3.0447e-05,5.93762e-06
434,-2.81614e-05,6.49216e-06,2.23152e-05,6.17941e-05,1.90416e-05,4.69194e-06
435,-9.07843e-06,3.63884e-06,3.7231e-05,6.35719e-05,1.59439e-05,6.82819e-06
436,-1.14753e-06,3.42487e-06,4.54539e-05,6.16293e-05,2.4853e-05,8.20332e-06
437,-3.74022e-06,-1.77977e-06,4.67836e-05,5.84597e-05,3.62364e-05,9.86163e-06
438,-2.8016e-06,-6.29675e-06,4.73518e-05,5.8342e-05,4.07779e-05,1.37069e-05
439,4.43169e-07,-7.01723e-07,4.48952e-05,5.6908e-05,3.85813e-05,1.65349e-05
440,-1.80172e-06,1.00819e-05,3.69745e-05,5.2272e-05,3.57185e-05,1.51055e-05
441,-1.49599e-05,1.74249e-05,2.5149e-05,4.90268e-05,3.46357e-05,1.04116e-05
442,-2.44741e-05,2.04182e-05,2.00458e-05,4.98799e-05,3.32151e-05,9.59186e-06
443,-1.57113e-05,2.21127e-05,2.9019e-05,5.32396e-05,2.93223e-05,1.42482e-05
444,2.37316e-07,2.13058e-05,4.17835e-05,5.69295e-05,2.83487e-05,2.00218e-05
445,7.77207e-06,1.70135e-05,4.65011e-05,5.75919e-05,3.25915e-05,2.25771e-05
446,6.05649e-06,1.29188e-05,4.3534e-05,5.37216e-05,3.68378e-05,2.0471e-05
447,-4.4092e-06,1.00638e-05,3.63571e-05,4.78903e-05,3.82717e-05,1.43701e-05
448,-1.51329e-05,7.60163e-06,3.20838e-05,4.42203e-05,3.68591e-05,9.95052e-06
449,-1.30837e-05,5.2488e-06,3.84261e-05,4.55311e-05,3.2047e-05,1.24366e-05
450,-1.22969e-06,4.27881e-06,5.05608e-05,5.17033e-05,2.79691e-05,1.77601e-05
451,7.49525e-06,6.61014e-06,5.74313e-05,5.9277e-05,2.97369e-05,2.00557e-05
452,7.57558e-06,1.23904e-05,5.57257e-05,6.18798e-05,3.47305e-05,1.99171e-05
453,-1.68345e-06,1.86155e-05,4.57709e-05,5.75586e-05,3.77842e-05,1.7964e-05
454,-1.49858e-05,2.18272e-05,3.33349e-05,5.27333e-05,3.56306e-05,1.38146e-05
455,-1.74575e-05,2.25527e-05,3.23379e-05,5.29278e-05,2.75265e-05,1.18422e-05
456,-7.11241e-06,2.31705e-05,4.40637e-05,5.43999e-05,2.08676e-05,1.39449e-05
457,4.83645e-06,2.40617e-05,5.34937e-05,5.2546e-05,2.55077e-05,1.53168e-05
458,9.63207e-06,2.43292e-05,5.12861e-05,4.85568e-05,3.76316e-05,1.28438e-05
459,-5.55532e-07,2.20806e-05,3.99769e-05,4.67913e-05,4.46303e-05,6.93077e-06
460,-2.10706e-05,1.75037e-05,2.60148e-05,4.76503e-05,4.0579e-05,4.78761e-07
461,-2.55486e-05,1.48199e-05,2.31609e-05,4.71424e-05,2.94552e-05,2.16049e-06
462,-1.00994e-05,1.48328e-05,3.53091e-05,4.66731e-05,2.18993e-05,1.03029e-05
463,6.66893e-07,1.60726e-05,4.48178e-05,4.75253e-05,2.57972e-05,1.33231e-05
464,4.27915e-06,1.73195e-05,4.38333e-05,4.73755e-05,3.37148e-05,1.27581e-05
465,7.86715e-06,1.56184e-05,4.04662e-05,4.6595e-05,3.77608e-05,1.52907e-05
466,8.09376e-06,1.65635e-05,3.86784e-05,4.28227e-05,3.88403e-05,1.91178e-05
467,3.41646e-06,2.25131e-05,3.73731e-05,3.68623e-05,3.77056e-05,2.1978e-05
468,-9.05475e-06,2.31139e-05,3.15575e-05,3.65306e-05,3.48594e-05,2.06437e-05
469,-1.76621e-05,1.49162e-05,2.623e-05,4.41117e-05,2.76762e-05,1.72987e-05
470,-9.49654e-06,8.89893e-06,3.2951e-05,5.27706e-05,1.95589e-05,1.54989e-05
471,7.55125e-06,8.71549e-06,4.74881e-05,5.43869e-05,1.92122e-05,1.65366e-05
472,1.73363e-05,9.58801e-06,5.48854e-05,4.99797e-05,2.58481e-05,1.86102e-05
473,1.37259e-05,9.93465e-06,4.86161e-05,4.83468e-05,3.19087e-05,1.72088e-05
474,-9.66144e-07,9.71401e-06,3.33819e-05,5.23689e-05,3.30045e-05,1.21121e-05
475,-1.2955e-05,9.93205e-06,2.23395e-05,5.66761e-05,2.7308e-05,8.29776e-06
476,-9.35195e-06,1.19183e-05,2.48627e-05,5.66989e-05,1.73613e-05,1.11658e-05
477,3.22578e-06,1.4868e-05,3.30239e-05,5.44738e-05,1.29503e-05,1.86905e-05
478,9.87964e-06,1.63691e-05,3.51228e-05,5.30361e-05,1.95383e-05,2.38631e-05
479,5.42133e-06,1.60032e-05,3.16754e-05,5.11081e-05,2.88436e-05,2.16924e-05
480,-7.76601e-06,1.36304e-05,2.67546e-05,4.74081e-05,3.20475e-05,1.47937e-05
481,-2.07065e-05,1.11226e-05,2.32015e-05,4.50259e-05,2.85903e-05,9.41903e-06
482,-1.83434e-05,1.07947e-05,2.71603e-05,4.64405e-05,2.24097e-05,1.11292e-05
483,-4.42211e-06,1.2232e-05,3.81393e-05,4.80215e-05,2.03424e-05,1.78579e-05
484,3.23053e-06,1.25975e-05,4.56255e-05,4.76805e-05,2.46299e-05,2.14901e-05
485,-1.16768e-06,1.23993e-05,4.4796e-05,4.85818e-05,2.94253e-05,1.79474e-05
486,-1.57748e-05,1.24114e-05,3.99789e-05,5.05571e-05,3.22791e-05,1.05368e-05
487,-3.33885e-05,9.14601e-06,3.65167e-05,5.16754e-05,3.09712e-05,4.74517e-06
488,-3.10264e-05,4.52944e-06,4.08273e-05,5.24749e-05,2.13702e-05,5.89002e-06
489,-1.18311e-05,5.63684e-06,4.65373e-05,5.12728e-05,1.25523e-05,1.21427e-05
490,-2.53367e-06,1.1849e-05,4.43622e-05,4.67934e-05,1.73149e-05,1.54462e-05
491,-2.85755e-06,1.68382e-05,4.19905e-05,4.33308e-05,2.91698e-05,1.56311e-05
492,-3.60028e-06,1.89481e-05,4.56253e-05,4.51326e-05,3.43972e-05,1.55997e-05
493,-4.23166e-06,2.15077e-05,5.07184e-05,4.73381e-05,3.3388e-05,1.5355e-05
494,-6.24477e-06,2.31787e-05,4.83833e-05,4.45034e-05,3.28483e-05,1.30592e-05
495,-1.5841e-05,1.98651e-05,3.37933e-05,4.21404e-05,3.53721e-05,7.60915e-06
496,-2.38118e-05,1.57045e-05,2.04372e-05,4.59138e-05,3.49877e-05,2.91651e-06
497,-1.48262e-05,1.64896e-05,2.33204e-05,5.04579e-05,3.00565e-05,2.20466e-06
498,2.99659e-06,2.0712e-05,3.56745e-05,5.23543e-05,2.84021e-05,6.00433e-06
499,1.05698e-05,2.55978e-05,4.18257e-05,5.25374e-05,3.38729e-05,1.191e-05
500,4.9216e-06,2.92913e-05,3.66674e-05,5.12878e-05,3.78087e-05,1.46576e-05
501,-7.18067e-06,2.8022e-05,2.41677e-05,4.92925e-05,3.47592e-05,1.13844e-05
502,-1.45906e-05,2.18585e-05,1.40617e-05,4.93356e-05,2.66529e-05,6.70518e-06
503,-8.78203e-06,1.6188e-05,1.68184e-05,5.19603e-05,1.80453e-05,8.41949e-06
504,3.81148e-06,1.30627e-05,3.04335e-05,5.32272e-05,1.55202e-05,1.57267e-05
505,9.05334e-06,1.19285e-05,4.15747e-05,5.1415e-05,2.11438e-05,2.07622e-05
506,1.87819e-06,1.30619e-05,4.20978e-05,4.84493e-05,2.96838e-05,2.01196e-05
507,-1.33229e-05,1.43997e-05,3.31021e-05,4.73463e-05,3.48805e-05,1.73846e-05
508,-2.60709e-05,1.44676e-05,2.42035e-05,4.72748e-05,3.43341e-05,1.67273e-05
509,-2.07896e-05,1.43586e-05,2.81728e-05,4.634e-05,2.77884e-05,1.95356e-05
510,-6.6506e-07,1.42538e-05,4.22231e-05,4.57941e-05,2.21127e-05,2.24108e-05
511,1.18556e-05,1.46681e-05,5.00613e-05,4.76631e-05,2.39807e-05,2.20098e-05
512,9.04991e-06,1.69436e-05,4.63082e-05,5.00794e-05,2.98136e-05,1.90755e-05
513,-2.27231e-06,1.81322e-05,3.68778e-05,5.07675e-05,3.28855e-05,1.40227e-05
514,-1.39864e-05,1.37083e-05,2.8955e-05,4.93728e-05,3.04738e-05,7.84127e-06
515,-1.04385e-05,6.56672e-06,3.14939e-05,4.84385e-05,2.32887e-05,6.89189e-06
516,7.62869e-07,4.4928e-06,4.16249e-05,4.96763e-05,2.01129e-05,1.19312e-05
517,2.69414e-07,7.54466e-06,4.64929e-05,4.99801e-05,2.54579e-05,1.41488e-05
518,-4.6599e-06,9.82212e-06,4.44119e-05,4.88375e-05,3.23111e-05,1.24281e-05
519,-5.99422e-06,1.08243e-05,4.12501e-05,4.94207e-05,3.52586e-05,1.07159e-05
520,-7.1376e-06,1.40669e-05,4.08839e-05,4.96239e-05,3.58569e-05,9.49147e-06
521,-1.22899e-05,1.80252e-05,4.1981e-05,4.74895e-05,3.4219e-05,9.3477e-06
522,-2.45154e-05,1.51129e-05,3.70481e-05,4.64434e-05,3.23546e-05,7.64249e-06
523,-3.24449e-05,5.83219e-06,2.99075e-05,4.77394e-05,2.89334e-05,4.47335e-06
524,-2.14027e-05,1.01674e-06,3.08209e-05,4.82558e-05,2.23367e-05,6.30336e-06
525,-1.41837e-07,3.88777e-06,3.76607e-05,4.71269e-05,1.93116e-05,1.36063e-05
526,1.14213e-05,9.33855e-06,4.17305e-05,4.6626e-05,2.44437e-05,1.81252e-05
527,7.11281e-06,1.23733e-05,3.87879e-05,4.56529e-05,3.16331e-05,1.54572e-05
528,-9.43482e-06,1.09578e-05,2.77055e-05,4.34228e-05,3.28595e-05,8.96969e-06
529,-2.33566e-05,6.68291e-06,1.86777e-05,4.27053e-05,2.7688e-05,3.35858e-06
530,-2.03339e-05,3.28462e-06,2.49992e-05,4.55157e-05,2.10595e-05,3.23259e-06
531,-4.30754e-06,1.30863e-06,4.09508e-05,4.8431e-05,1.89719e-05,9.22649e-06
532,7.75884e-06,8.70709e-07,5.00372e-05,4.8166e-05,2.21839e-05,1.64782e-05
533,7.48109e-06,2.74696e-06,4.68175e-05,4.59295e-05,2.65543e-05,1.93723e-05
534,-3.88045e-06,6.82676e-06,3.61563e-05,4.52016e-05,2.80138e-05,1.44726e-05
535,-1.82707e-05,1.12942e-05,2.68209e-05,4.75965e-05,2.5051e-05,5.06365e-06
536,-1.92889e-05,1.46177e-05,2.88451e-05,5.29513e-05,1.78067e-05,9.09032e-07
537,-4.69069e-06,1.71082e-05,4.01635e-05,5.92998e-05,1.34434e-05,4.98027e-06
538,7.30622e-06,1.90543e-05,4.91325e-05,6.14616e-05,2.06509e-05,8.72525e-06
539,5.65727e-06,2.19132e-05,5.04149e-05,5.63555e-05,3.36244e-05,6.9915e-06
540,-7.21685e-06,2.4102e-05,4.42523e-05,4.97075e-05,4.01705e-05,3.51585e-06
541,-2.35874e-05,2.14643e-05,3.48497e-05,4.80142e-05,3.68007e-05,1.13655e-06
542,-2.20071e-05,1.69724e-05,3.55002e-05,4.98009e-05,2.66086e-05,3.82843e-06
543,-3.48334e-06,1.61242e-05,4.5354e-05,5.38305e-05,1.98581e-05,1.1063e-05
544,7.1304e-06,1.73344e-05,4.97723e-05,5.85524e-05,2.32205e-05,1.34404e-05
545,8.65436e-06,1.45679e-05,4.93148e-05,6.00586e-05,3.20505e-05,1.36237e-05
546,8.30428e-06,8.41785e-06,4.97624e-05,5.76613e-05,3.97669e-05,1.82054e-05
547,5.88545e-06,7.12874e-06,5.01961e-05,5.62925e-05,4.3357e-05,2.37635e-05
548,3.70819e-07,1.05566e-05,4.68338e-05,5.5169e-05,4.11276e-05,2.56191e-05
549,-1.33824e-05,1.43366e-05,3.6242e-05,5.25052e-05,3.72118e-05,2.11931e-05
550,-2.34213e-05,1.46546e-05,2.86384e-05,5.19498e-05,3.35895e-05,1.42802e-05
551,-1.45723e-05,1.27942e-05,3.38267e-05,5.19831e-05,2.8032e-05,1.14145e-05
552,1.78236e-06,1.20078e-05,4.27958e-05,5.07117e-05,2.59961e-05,1.42891e-05
553,6.95382e-06,1.27915e-05,4.55061e-05,4.74387e-05,3.06531e-05,1.83091e-05
554,4.12402e-07,1.33411e-05,4.15258e-05,4.56879e-05,3.58534e-05,1.87729e-05
555,-1.24011e-05,1.154e-05,3.17243e-05,4.90275e-05,3.79482e-05,1.50599e-05
556,-2.14326e-05,8.58964e-06,2.43906e-05,5.41346e-05,3.6838e-05,1.14509e-05
557,-1.45357e-05,7.87986e-06,2.9871e-05,5.69772e-05,3.34623e-05,1.23793e-05
558,3.64174e-06,9.95549e-06,4.30464e-05,5.66504e-05,3.17853e-05,1.66982e-05
559,1.5012e-05,1.30538e-05,5.00304e-05,5.39092e-05,3.43454e-05,1.98043e-05
560,1.13596e-05,1.5846e-05,4.71171e-05,4.95597e-05,3.76695e-05,1.96579e-05
561,-2.0065e-06,1.58897e-05,3.74408e-05,4.73581e-05,3.78515e-05,1.69985e-05
562,-1.3008e-05,1.27187e-05,2.83302e-05,5.00435e-05,3.36039e-05,1.2541e-05
563,-9.03502e-06,9.58859e-06,3.15842e-05,5.36534e-05,2.48645e-05,9.43707e-06
564,4.78361e-06,9.04008e-06,4.44089e-05,5.36928e-05,1.87717e-05,1.06609e-05
565,1.19471e-05,1.19755e-05,5.0811e-05,5.29431e-05,2.19993e-05,1.57951e-05
566,8.04155e-06,1.91591e-05,4.57986e-05,5.3813e-05,2.91863e-05,1.99783e-05
567,-4.12056e-06,2.23288e-05,3.44815e-05,5.46164e-05,3.07664e-05,1.68939e-05
568,-2.05096e-05,1.67997e-05,2.41361e-05,5.42587e-05,2.6979e-05,9.13518e-06
569,-2.12028e-05,1.23466e-05,2.60328e-05,5.42911e-05,2.10487e-05,6.34261e-06
570,-3.05258e-06,1.12747e-05,3.5094e-05,5.48641e-05,1.73821e-05,9.12801e-06
571,1.03648e-05,9.2877e-06,3.70422e-05,5.48869e-05,2.11516e-05,1.08795e-05
572,1.23173e-05,7.30069e-06,3.65032e-05,5.22196e-05,2.84815e-05,1.32701e-05
573,9.32998e-06,5.21245e-06,4.12086e-05,4.7852e-05,3.37471e-05,1.62805e-05
574,5.42829e-06,7.68912e-06,4.73323e-05,4.57087e-05,3.51548e-05,1.47386e-05
575,3.53844e-07,1.3719e-05,4.85625e-05,4.46139e-05,3.31043e-05,9.07848e-06
576,-1.02489e-05,1.4432e-05,4.07876e-05,4.47278e-05,2.98246e-05,9.61216e-07
577,-1.92493e-05,1.07521e-05,3.30735e-05,4.63672e-05,2.48201e-05,-4.45122e-06
578,-1.50552e-05,9.42686e-06,3.5413e-05,4.76029e-05,1.94371e-05,-3.8455e-06
579,-1.86904e-06,9.61212e-06,4.11468e-05,4.72222e-05,2.0121e-05,2.72895e-07
580,5.22577e-06,9.60166e-06,4.20627e-05,4.57631e-05,2.74107e-05,4.41952e-06
581,4.7984e-07,9.23406e-06,3.94672e-05,4.34836e-05,3.38573e-05,6.39011e-06
582,-1.42439e-05,6.46884e-06,3.46499e-05,4.21146e-05,3.50903e-05,3.83167e-06
583,-2.63546e-05,2.48897e-06,3.07272e-05,4.2235e-05,2.86379e-05,-1.06556e-07
584,-2.24329e-05,3.30312e-06,3.37874e-05,4.28285e-05,1.66802e-05,-4.34634e-07
585,-8.71807e-06,9.9078e-06,4.18403e-05,4.51371e-05,9.72783e-06,2.0394e-06
586,-1.52417e-06,1.69029e-05,4.63744e-05,5.00401e-05,1.45961e-05,4.71077e-06
587,-3.99703e-06,2.05325e-05,4.29593e-05,5.38169e-05,2.53233e-05,6.49994e-06
588,-1.23888e-05,1.85782e-05,3.07924e-05,5.39107e-05,3.29626e-05,6.54751e-06
589,-2.17895e-05,1.08871e-05,1.94163e-05,5.46614e-05,3.29572e-05,5.42552e-06
590,-2.05407e-05,2.7314e-06,2.48115e-05,5.66554e-05,2.61156e-05,8.52935e-06
591,-8.54837e-06,-4.32528e-07,4.2009e-05,5.44054e-05,2.17135e-05,1.46004e-05
592,-3.85325e-07,1.4989e-06,5.13026e-05,4.74702e-05,2.56417e-05,1.67508e-05
593,-4.72609e-06,6.6037e-06,4.81011e-05,4.16958e-05,3.20042e-05,1.32296e-05
594,-1.86172e-05,1.03216e-05,3.99458e-05,4.1785e-05,3.63371e-05,7.23667e-06
595,-3.01934e-05,1.06492e-05,3.20524e-05,4.64639e-05,3.62568e-05,4.54909e-06
596,-2.05397e-05,1.07884e-05,3.15483e-05,4.92665e-05,2.99729e-05,1.03585e-05
597,8.71663e-07,1.36278e-05,3.7912e-05,4.69016e-05,2.36385e-05,1.83253e-05
598,5.91157e-06,1.43555e-05,4.13549e-05,4.29098e-05,2.55723e-05,1.76393e-05
599,2.30795e-07,1.20662e-05,4.14263e-05,4.17225e-05,3.2487e-05,1.33504e-05
600,4.92361e-08,1.27186e-05,4.10511e-05,4.47096e-05,3.54068e-05,1.34003e-05
601,3.93802e-06,1.63071e-05,4.02356e-05,4.93747e-05,3.57875e-05,1.47799e-05
602,3.08636e-06,1.85278e-05,3.89898e-05,5.13691e-05,3.5721e-05,1.49172e-05
603,-9.05795e-06,1.5993e-05,3.25924e-05,5.11782e-05,3.53912e-05,1.42484e-05
604,-1.84466e-05,1.01792e-05,2.537e-05,5.07145e-05,3.27967e-05,1.47708e-05
605,-1.08952e-05,7.084e-06,2.80806e-05,5.12755e-05,2.80809e-05,1.70934e-05
606,3.22194e-06,1.05784e-05,3.70517e-05,5.35755e-05,2.60788e-05,1.97746e-05
607,8.56733e-06,1.90964e-05,4.08486e-05,5.73309e-05,2.80129e-05,2.02217e-05
608,3.69043e-06,2.59549e-05,3.73066e-05,5.97691e-05,2.99083e-05,1.66223e-05
609,-8.58534e-06,2.57928e-05,2.84673e-05,5.93116e-05,2.9914e-05,9.36317e-06
610,-1.82986e-05,2.04793e-05,2.0622e-05,5.76865e-05,2.65988e-05,4.29031e-06
611,-1.46202e-05,1.59882e-05,2.28858e-05,5.66573e-05,2.05779e-05,7.74925e-06
612,-3.02342e-06,1.45262e-05,3.22469e-05,5.63113e-05,1.71745e-05,1.56526e-05
613,3.58993e-06,1.5041e-05,3.72317e-05,5.57049e-05,2.07574e-05,1.83888e-05
614,3.99275e-07,1.57987e-05,3.49253e-05,5.40531e-05,2.77463e-05,1.37037e-05
615,-1.19192e-05,1.4166e-05,2.81987e-05,5.18298e-05,3.11273e-05,6.15754e-06
616,-2.52619e-05,8.42629e-06,2.18437e-05,5.01101e-05,2.93923e-05,2.02185e-06
617,-2.38483e-05,1.98171e-06,2.43559e-05,4.94769e-05,2.51074e-05,7.60229e-06
618,-8.98716e-06,-5.94549e-07,3.45291e-05,4.95888e-05,2.43034e-05,1.8658e-05
619,1.17526e-06,2.3549e-06,4.22508e-05,4.89369e-05,2.89102e-05,2.43924e-05
620,-1.29269e-06,1.03253e-05,4.1742e-05,4.91858e-05,3.1889e-05,2.09965e-05
621,-1.42545e-05,1.51176e-05,3.29484e-05,5.29675e-05,3.03261e-05,1.40264e-05
622,-2.98453e-05,1.12149e-05,2.32012e-05,5.89402e-05,2.58605e-05,1.22118e-05
623,-2.73843e-05,4.49207e-06,2.68576e-05,6.34429e-05,1.78994e-05,1.89497e-05
624,-9.87382e-06,1.11769e-06,4.18824e-05,6.42602e-05,1.32481e-05,2.53744e-05
625,-1.68692e-06,1.97915e-06,4.81035e-05,6.31409e-05,1.72339e-05,2.59302e-05
626,1.27437e-06,4.00133e-06,4.6539e-05,6.35783e-05,2.45636e-05,2.59421e-05
627,6.76365e-06,6.6354e-06,4.80174e-05,6.19085e-05,3.08397e-05,2.55503e-05
628,9.76443e-06,1.281e-05,5.1043e-05,5.64671e-05,3.38319e-05,2.46266e-05
629,6.08461e-06,2.11282e-05,4.81056e-05,5.11851e-05,3.30836e-05,2.21627e-05
630,-9.30372e-06,2.39961e-05,3.50652e-05,4.99313e-05,3.41843e-05,1.85631e-05
631,-2.19551e-05,1.81161e-05,2.49226e-05,5.28431e-05,3.21982e-05,1.87293e-05
632,-1.5218e-05,1.10249e-05,2.74581e-05,5.64479e-05,2.22429e-05,2.07027e-05
633,1.94838e-06,7.3083e-06,3.57418e-05,5.75331e-05,1.46057e-05,2.13324e-05
634,1.23024e-05,8.07254e-06,3.92132e-05,5.54752e-05,2.03843e-05,2.04017e-05
635,1.18372e-05,1.13563e-05,3.74343e-05,5.3767e-05,3.24362e-05,1.81674e-05
636,1.54695e-06,1.21226e-05,3.07088e-05,5.4899e-05,3.91069e-05,1.43691e-05
637,-9.38913e-06,8.75667e-06,2.38866e-05,5.66551e-05,3.49392e-05,1.36662e-05
638,-7.3414e-06,5.44831e-06,2.66726e-05,5.65924e-05,2.4072e-05,1.76217e-05
639,4.46629e-06,4.77348e-06,3.70479e-05,5.57634e-05,1.86112e-05,2.08547e-05
640,1.07525e-05,6.10095e-06,4.40324e-05,5.56064e-05,2.36841e-05,1.94436e-05
641,4.84994e-06,8.47038e-06,4.25423e-05,5.51502e-05,3.27857e-05,1.47978e-05
642,-8.65061e-06,1.03225e-05,3.34628e-05,5.34964e-05,3.74492e-05,9.17388e-06
643,-2.03496e-05,1.04853e-05,2.34639e-05,5.11431e-05,3.48366e-05,7.32911e-06
644,-1.96045e-05,1.04987e-05,2.40761e-05,4.93856e-05,2.48937e-05,1.28396e-05
645,-9.57759e-06,1.18635e-05,3.33133e-05,5.06643e-05,1.48875e-05,1.84769e-05
646,-3.37911e-06,1.52149e-05,3.9898e-05,5.30283e-05,1.44649e-05,1.8321e-05
647,-5.32104e-06,2.03267e-05,3.92046e-05,5.29457e-05,2.22965e-05,1.61214e-05
648,-1.43625e-05,2.37729e-05,3.26316e-05,5.25722e-05,2.7161e-05,1.27498e-05
649,-2.50316e-05,2.32036e-05,2.39068e-05,5.39539e-05,2.53879e-05,7.33225e-06
650,-1.97085e-05,1.86786e-05,2.45369e-05,5.44845e-05,1.85805e-05,6.94258e-06
651,-1.23378e-06,1.50234e-05,3.50783e-05,5.22612e-05,1.53131e-05,1.26401e-05
652,6.79085e-06,1.35917e-05,4.32986e-05,4.9336e-05,2.41987e-05,1.73324e-05
653,4.28872e-06,1.13088e-05,4.73739e-05,4.99942e-05,3.75889e-05,1.80704e-05
654,2.85262e-06,1.03211e-05,4.6257e-05,5.45786e-05,4.08499e-05,1.73331e-05
655,3.86173e-06,1.48977e-05,3.98987e-05,5.9142e-05,3.56297e-05,1.58448e-05
656,2.04644e-06,2.18212e-05,3.35576e-05,6.03104e-05,3.34265e-05,1.30662e-05
657,-9.73567e-06,2.44284e-05,2.61149e-05,6.0652e-05,3.47736e-05,9.87114e-06
658,-1.94842e-05,2.03838e-05,2.25189e-05,6.04128e-05,3.19009e-05,1.06707e-05
659,-1.31463e-05,1.53449e-05,3.00042e-05,5.50755e-05,2.60759e-05,1.58786e-05
660,-4.0136e-09,1.2667e-05,4.30898e-05,4.87167e-05,2.55471e-05,2.03697e-05
661,4.16615e-06,1.28828e-05,4.92082e-05,4.77991e-05,3.08488e-05,2.00202e-05
662,-3.00387e-06,1.73904e-05,4.58445e-05,4.96674e-05,3.34302e-05,1.43012e-05
663,-1.59481e-05,2.14872e-05,3.62409e-05,5.15633e-05,2.93635e-05,6.10309e-06
664,-2.42899e-05,1.87378e-05,2.8232e-05,5.36771e-05,2.04397e-05,2.27533e-06
665,-1.94966e-05,9.99445e-06,3.17739e-05,5.336e-05,1.00656e-05,6.66509e-06
666,-7.32151e-06,1.56681e-06,4.40222e-05,5.01418e-05,5.67542e-06,1.36173e-05
667,6.80537e-07,3.07173e-07,5.36592e-05,4.7829e-05,1.17922e-05,1.51642e-05
668,-4.90244e-07,7.81654e-06,5.31308e-05,4.75519e-05,2.09508e-05,9.77047e-06
669,-1.11123e-05,1.54367e-05,4.08825e-05,4.75233e-05,2.42854e-05,1.70531e-06
670,-2.21145e-05,1.41052e-05,2.60372e-05,4.90355e-05,2.31104e-05,-2.57112e-06
671,-1.80787e-05,7.73691e-06,2.42043e-05,5.23719e-05,2.0241e-05,2.55703e-06
672,-3.56602e-06,7.22279e-06,3.49587e-05,5.33327e-05,1.89444e-05,1.34781e-05
673,4.57729e-06,1.31373e-05,4.46392e-05,5.02307e-05,2.19471e-05,1.96001e-05
674,3.42686e-06,1.86004e-05,4.65841e-05,4.73666e-05,2.59521e-05,1.6908e-05
675,-5.98139e-06,1.96217e-05,4.23461e-05,4.9093e-05,2.74115e-05,1.0885e-05
676,-2.16336e-05,1.57983e-05,3.48858e-05,5.30939e-05,2.54909e-05,8.39541e-06
677,-2.29074e-05,1.13917e-05,3.33533e-05,5.28892e-05,1.7418e-05,1.36988e-05
678,-7.30133e-06,1.12351e-05,3.8249e-05,4.94716e-05,9.00494e-06,2.00527e-05
679,1.27386e-07,1.3803e-05,3.97747e-05,4.73149e-05,1.17664e-05,1.96282e-05
680,2.83877e-07,1.68838e-05,3.88815e-05,4.87118e-05,2.44216e-05,1.81555e-05
681,4.35916e-06,1.93765e-05,3.95841e-05,5.16699e-05,3.65939e-05,2.02547e-05
682,6.50863e-06,2.11166e-05,4.10359e-05,5.28096e-05,4.17481e-05,2.07978e-05
683,8.57166e-07,2.25211e-05,3.9636e-05,5.22682e-05,4.09126e-05,1.78113e-05
684,-1.47443e-05,2.23904e-05,3.01124e-05,5.10389e-05,3.91385e-05,1.42678e-05
685,-2.63824e-05,2.24002e-05,2.26818e-05,5.00774e-05,3.45563e-05,1.34079e-05
686,-2.04139e-05,2.5086e-05,2.98909e-05,4.87027e-05,2.64113e-05,1.58733e-05
687,-5.94684e-06,2.58637e-05,4.56106e-05,4.82236e-05,2.28679e-05,1.84635e-05
688,2.54969e-06,2.34874e-05,5.54781e-05,4.81105e-05,2.80297e-05,1.8299e-05
689,1.25148e-06,2.17241e-05,5.28312e-05,4.64364e-05,3.30455e-05,1.60958e-05
690,-8.24055e-06,2.01513e-05,3.9491e-05,4.37219e-05,3.35669e-05,1.21368e-05
691,-1.72852e-05,1.63189e-05,2.76818e-05,4.38046e-05,3.00336e-05,7.30745e-06
692,-1.36556e-05,1.31361e-05,3.02192e-05,4.76872e-05,2.37949e-05,6.1688e-06
693,-5.89077e-07,1.4272e-05,4.28433e-05,5.0689e-05,2.20574e-05,9.81217e-06
694,6.65293e-06,1.71971e-05,5.13958e-05,4.98646e-05,2.95727e-05,1.43819e-05
695,1.29529e-06,1.76131e-05,4.83754e-05,4.80324e-05,4.01988e-05,1.52558e-05
696,-1.1474e-05,1.48358e-05,3.57089e-05,4.81105e-05,4.60281e-05,1.05221e-05
697,-1.98419e-05,1.05797e-05,2.42582e-05,4.90367e-05,4.47068e-05,3.52201e-06
698,-1.26995e-05,7.24363e-06,2.72785e-05,5.12114e-05,3.68924e-05,2.71594e-07
699,2.64731e-06,6.75182e-06,3.96524e-05,5.28658e-05,3.08893e-05,3.3358e-06
700,1.04419e-05,8.16758e-06,4.6129e-05,5.15599e-05,3.44865e-05,1.03576e-05
701,8.47738e-06,9.88107e-06,4.19251e-05,4.86584e-05,4.10961e-05,1.44147e-05
702,-9.10389e-07,1.22726e-05,2.99777e-05,4.62039e-05,4.17035e-05,1.07659e-05
703,-1.34751e-05,1.46732e-05,1.80315e-05,4.74595e-05,3.84799e-05,3.81594e-06
704,-9.58036e-06,1.50884e-05,1.97656e-05,5.18333e-05,3.19598e-05,3.40799e-06
705,8.69698e-06,1.55334e-05,3.21499e-05,5.15763e-05,2.71274e-05,8.33167e-06
706,1.50572e-05,1.50566e-05,3.77864e-05,4.7499e-05,3.15427e-05,9.26416e-06
707,1.24955e-05,1.04458e-05,3.72244e-05,4.76957e-05,3.86103e-05,9.99265e-06
708,1.10885e-05,5.91592e-06,3.91451e-05,5.03481e-05,3.87964e-05,1.02088e-05
709,8.87294e-06,8.72949e-06,4.28432e-05,4.98325e-05,3.47286e-05,8.57042e-06
710,3.03274e-06,1.45788e-05,4.31551e-05,4.76974e-05,3.20837e-05,7.30086e-06
711,-1.10231e-05,1.48498e-05,3.50264e-05,4.76782e-05,2.98622e-05,4.10004e-06
712,-2.05546e-05,1.0462e-05,2.78836e-05,5.04086e-05,2.29833e-05,3.99717e-06
713,-1.20779e-05,8.55423e-06,3.28713e-05,5.22475e-05,1.58687e-05,9.45268e-06
714,3.13536e-06,1.01003e-05,4.30706e-05,5.17669e-05,1.68361e-05,1.60175e-05
715,8.1936e-06,1.12309e-05,4.71795e-05,5.0281e-05,2.53484e-05,1.84347e-05
716,3.26898e-06,1.29579e-05,4.28969e-05,4.8473e-05,3.22444e-05,1.65538e-05
717,-7.42261e-06,1.56127e-05,3.09067e-05,4.7546e-05,3.25463e-05,1.13536e-05
718,-1.6818e-05,1.52004e-05,2.00652e-05,4.91215e-05,2.71451e-05,7.51048e-06
719,-1.60399e-05,1.06403e-05,2.29102e-05,5.29552e-05,1.90374e-05,9.26801e-06
720,-6.04589e-06,5.57445e-06,3.54793e-05,5.6019e-05,1.52915e-05,1.39047e-05
721,2.11264e-06,5.81339e-06,4.29082e-05,5.40577e-05,2.06485e-05,1.55904e-05
722,-2.86424e-07,1.13515e-05,3.9635e-05,4.80067e-05,3.00032e-05,1.28964e-05
723,-1.21347e-05,1.44535e-05,3.11634e-05,4.54476e-05,3.45842e-05,8.35566e-06
724,-2.19311e-05,1.20543e-05,2.62243e-05,4.78376e-05,3.26538e-05,4.63202e-06
725,-1.5189e-05,8.71433e-06,3.14788e-05,4.98394e-05,2.68496e-05,4.89112e-06
726,4.3381e-06,7.07768e-06,4.20456e-05,4.90008e-05,2.43886e-05,8.75192e-06
727,1.66443e-05,8.17834e-06,4.67282e-05,4.61274e-05,2.97697e-05,1.38541e-05
728,1.17989e-05,1.11891e-05,4.30104e-05,4.34071e-05,3.57155e-05,1.67191e-05
729,-4.06718e-06,1.11789e-05,3.57848e-05,4.40307e-05,3.63564e-05,1.40838e-05
730,-2.03093e-05,7.50142e-06,3.0964e-05,4.76087e-05,3.61801e-05,7.36525e-06
731,-1.75021e-05,3.98323e-06,3.38477e-05,5.09163e-05,3.44122e-05,6.11654e-06
732,1.02461e-06,4.07093e-06,3.82545e-05,5.15283e-05,3.08311e-05,1.28424e-05
733,9.64309e-06,6.32999e-06,3.84021e-05,5.09417e-05,3.44384e-05,1.7323e-05
734,8.88331e-06,7.69032e-06,3.94785e-05,5.18657e-05,4.20123e-05,1.89186e-05
735,6.99431e-06,1.05644e-05,4.15492e-05,5.433e-05,4.32852e-05,2.08346e-05
736,4.15029e-06,1.72402e-05,4.20499e-05,5.33069e-05,4.16317e-05,2.0242e-05
737,-3.67551e-07,2.14876e-05,4.08996e-05,4.77217e-05,4.05984e-05,1.8586e-05
738,-1.30515e-05,1.47474e-05,3.5415e-05,4.41903e-05,3.80928e-05,1.49261e-05
739,-2.37147e-05,7.36988e-07,3.14645e-05,4.50171e-05,3.01381e-05,1.26185e-05
740,-1.65137e-05,-5.95608e-06,3.50915e-05,4.6283e-05,2.04874e-05,1.49948e-05
741,1.3979e-06,-9.80307e-07,4.04712e-05,4.5445e-05,1.92851e-05,1.95565e-05
742,1.12022e-05,8.69727e-06,4.26257e-05,4.34784e-05,2.62501e-05,2.10434e-05
743,7.42836e-06,1.51963e-05,4.22145e-05,4.27728e-05,3.23567e-05,1.74816e-05
744,-5.92875e-06,1.54039e-05,3.78034e-05,4.55866e-05,3.54974e-05,1.21672e-05
745,-1.62995e-05,1.12707e-05,3.2955e-05,5.04519e-05,3.484e-05,1.06184e-05
746,-1.15903e-05,8.22785e-06,3.73265e-05,5.39744e-05,3.10905e-05,1.58183e-05
747,3.22603e-06,9.05326e-06,4.87987e-05,5.39055e-05,3.08105e-05,2.28802e-05
748,1.31307e-05,1.33953e-05,5.55776e-05,5.23144e-05,3.51732e-05,2.46855e-05
749,1.01204e-05,1.94506e-05,5.33779e-05,5.17755e-05,3.81843e-05,1.98667e-05
750,-3.62114e-06,2.38984e-05,4.42714e-05,5.23832e-05,3.60579e-05,1.25355e-05
751,-1.70783e-05,2.55479e-05,3.48154e-05,5.36805e-05,3.02784e-05,6.1638e-06
752,-1.42794e-05,2.55428e-05,3.6513e-05,5.60216e-05,2.38466e-05,4.39266e-06
753,9.80629e-07,2.38575e-05,4.7595e-05,5.82541e-05,2.30986e-05,8.88211e-06
754,8.91649e-06,1.98033e-05,5.4004e-05,5.93758e-05,3.02394e-05,1.65206e-05
755,3.96917e-06,1.73125e-05,5.13751e-05,6.03887e-05,3.6919e-05,1.94631e-05
756,-9.93419e-06,1.83356e-05,4.18019e-05,6.00345e-05,3.71845e-05,1.32203e-05
757,-2.71912e-05,1.72342e-05,2.98243e-05,5.66306e-05,3.1418e-05,2.29691e-06
758,-2.55693e-05,1.16503e-05,2.93957e-05,5.26447e-05,2.00923e-05,-1.91817e-06
759,-6.96933e-06,8.65782e-06,4.01451e-05,5.31792e-05,1.4043e-05,2.85095e-06
760,5.67321e-07,9.95035e-06,4.49264e-05,5.64715e-05,2.00533e-05,8.36481e-06
761,-9.64462e-07,1.04987e-05,4.43241e-05,5.72921e-05,3.00766e-05,9.38014e-06
762,7.81812e-07,9.78971e-06,4.59885e-05,5.53547e-05,3.63427e-05,6.57463e-06
763,1.60097e-06,1.21047e-05,4.76012e-05,5.38968e-05,3.73931e-05,4.53923e-06
764,-4.17553e-06,1.56992e-05,4.49099e-05,5.37963e-05,3.51833e-05,3.50646e-06
765,-1.81621e-05,1.62258e-05,3.33889e-05,5.20861e-05,3.45183e-05,7.45207e-07
766,-2.64091e-05,1.33024e-05,2.25309e-05,4.88521e-05,3.2205e-05,2.96716e-07
767,-1.68558e-05,9.92254e-06,2.55758e-05,4.67422e-05,2.44104e-05,5.91117e-06
768,-3.0752e-07,7.13246e-06,3.71999e-05,4.70098e-05,1.92788e-05,1.41648e-05
769,8.70677e-06,6.81333e-06,4.3558e-05,4.90079e-05,2.46473e-05,1.80476e-05
770,4.46092e-06,9.07836e-06,4.01982e-05,5.03894e-05,3.3935e-05,1.67493e-05
771,-9.59471e-06,7.96486e-06,3.09908e-05,5.02403e-05,3.65733e-05,1.25122e-05
772,-1.94337e-05,4.99657e-06,2.6158e-05,5.06233e-05,3.04508e-05,8.47118e-06
773,-1.46847e-05,7.02972e-06,3.2618e-05,5.21408e-05,2.0874e-05,9.52889e-06
774,-1.09034e-06,1.32125e-05,4.39201e-05,5.18198e-05,1.7401e-05,1.48659e-05
775,8.58177e-06,1.8074e-05,4.97325e-05,4.935e-05,2.20312e-05,1.92397e-05
776,8.08813e-06,1.95826e-05,4.69566e-05,4.74324e-05,2.80209e-05,1.98095e-05
777,-3.44049e-06,1.81644e-05,3.77712e-05,4.70879e-05,3.03323e-05,1.63099e-05
778,-1.75131e-05,1.43012e-05,2.96562e-05,4.74279e-05,2.91628e-05,1.15109e-05
779,-1.6343e-05,9.09064e-06,3.38888e-05,4.83753e-05,2.45516e-05,1.20584e-05
780,-1.45377e-06,5.77298e-06,4.7782e-05,4.95259e-05,2.02295e-05,1.64525e-05
781,6.72402e-06,6.88249e-06,5.61388e-05,5.15087e-05,2.26569e-05,1.79173e-05
782,2.32757e-07,1.2722e-05,5.36699e-05,5.39684e-05,2.86901e-05,1.60304e-05
783,-1.65023e-05,1.70656e-05,4.34861e-05,5.42775e-05,2.97928e-05,1.26821e-05
784,-3.25512e-05,1.34361e-05,2.95067e-05,5.18449e-05,2.56358e-05,9.56627e-06
785,-2.73198e-05,8.45922e-06,2.53158e-05,4.79309e-05,1.81479e-05,1.09606e-05
786,-7.3371e-06,8.13318e-06,3.28841e-05,4.65354e-05,1.21436e-05,1.5496e-05
787,-1.30671e-06,9.17527e-06,3.85286e-05,4.90949e-05,1.26472e-05,1.67843e-05
788,-4.08591e-06,9.43001e-06,4.09613e-05,5.01298e-05,1.73506e-05,1.5515e-05
789,-1.2801e-06,9.47191e-06,4.29239e-05,5.01753e-05,2.14712e-05,1.54755e-05
790,2.55434e-06,1.21379e-05,4.11338e-05,5.19282e-05,2.43652e-05,1.6447e-05
791,-1.52991e-06,1.52383e-05,3.57818e-05,5.21132e-05,2.71992e-05,1.49573e-05
792,-1.75609e-05,1.33027e-05,2.6466e-05,5.26387e-05,2.82281e-05,8.98128e-06
793,-2.91723e-05,8.58525e-06,2.10604e-05,5.41881e-05,2.40626e-05,5.40667e-06
794,-2.15086e-05,8.63636e-06,2.78448e-05,5.45915e-05,1.5801e-05,8.41568e-06
795,-4.1169e-06,1.29172e-05,3.9367e-05,5.40728e-05,1.40125e-05,1.27014e-05
796,5.1379e-06,1.54922e-05,4.59335e-05,5.38185e-05,2.07523e-05,1.28273e-05
797,3.10407e-06,1.71387e-05,4.41615e-05,5.43098e-05,2.72357e-05,1.00219e-05
798,-6.86394e-06,1.87883e-05,3.39607e-05,5.48355e-05,3.01987e-05,6.91275e-06
799,-1.54737e-05,1.83341e-05,2.45148e-05,5.5672e-05,2.74347e-05,5.51729e-06
800,-1.08952e-05,1.62896e-05,2.80076e-05,5.76812e-05,1.8404e-05,6.2942e-06
801,2.97544e-06,1.38955e-05,4.09236e-05,5.93707e-05,1.31375e-05,8.46192e-06
802,1.09712e-05,1.17848e-05,4.90458e-05,5.94682e-05,1.9659e-05,1.29484e-05
803,5.71973e-06,9.83774e-06,4.56473e-05,5.96568e-05,2.96151e-05,1.7569e-05
804,-9.25891e-06,6.82894e-06,3.38332e-05,6.07028e-05,3.25932e-05,1.69354e-05
805,-2.25287e-05,2.72249e-06,2.30576e-05,6.08523e-05,2.86981e-05,1.1563e-05
806,-1.91264e-05,-1.6491e-07,2.42886e-05,5.92734e-05,2.20013e-05,9.21959e-06
807,-2.24984e-06,1.19354e-07,3.51937e-05,5.76948e-05,1.91119e-05,1.3596e-05
808,9.11208e-06,5.73856e-06,4.26236e-05,5.75983e-05,2.49968e-05,2.08446e-05
809,4.69073e-06,1.65195e-05,4.02986e-05,5.76605e-05,3.16543e-05,2.40044e-05
810,-1.09703e-05,2.34591e-05,3.12674e-05,5.68243e-05,3.22229e-05,1.82735e-05
811,-2.59009e-05,2.01003e-05,2.14411e-05,5.65356e-05,3.00281e-05,7.15151e-06
812,-2.27461e-05,1.47721e-05,2.03832e-05,5.68152e-05,2.40488e-05,4.89133e-06
813,-5.0044e-06,1.53919e-05,2.67274e-05,5.66606e-05,1.81137e-05,1.37985e-05
814,3.81019e-06,1.70339e-05,3.05967e-05,5.48163e-05,2.11884e-05,1.92358e-05
815,5.3535e-06,1.5257e-05,3.32556e-05,5.28238e-05,2.94581e-05,1.81664e-05
816,8.77432e-06,1.27361e-05,3.73508e-05,5.381e-05,3.51619e-05,1.83615e-05
817,9.07279e-06,1.2604e-05,3.89484e-05,5.44317e-05,3.61756e-05,2.17929e-05
818,3.23679e-06,1.62871e-05,3.64252e-05,4.86799e-05,3.418e-05,2.47074e-05
819,-1.22083e-05,2.03143e-05,3.04215e-05,4.15276e-05,3.28761e-05,2.24623e-05
820,-2.41035e-05,2.00607e-05,2.68134e-05,4.10882e-05,2.99585e-05,1.73393e-05
821,-1.63011e-05,1.65596e-05,3.27858e-05,4.44681e-05,2.34691e-05,1.47411e-05
822,-1.58162e-07,1.32151e-05,4.2553e-05,4.49095e-05,2.21003e-05,1.59639e-05
823,6.81689e-06,1.46899e-05,4.63909e-05,4.1584e-05,2.8818e-05,1.83276e-05
824,3.2431e-06,1.96312e-05,4.22169e-05,3.83045e-05,3.27053e-05,1.86636e-05
825,-9.23519e-06,2.07863e-05,3.17899e-05,3.87199e-05,2.91794e-05,1.55151e-05
826,-2.26689e-05,1.62159e-05,2.32131e-05,4.25053e-05,2.28101e-05,1.3054e-05
827,-2.313e-05,1.18104e-05,2.75297e-05,4.48047e-05,1.88655e-05,1.6327e-05
828,-1.1541e-05,1.07599e-05,4.19376e-05,4.27297e-05,2.00187e-05,2.13473e-05
829,-3.24592e-06,1.23518e-05,5.22966e-05,3.91355e-05,2.69006e-05,2.07254e-05
830,-7.41709e-06,1.41515e-05,5.21562e-05,3.69727e-05,3.49067e-05,1.55127e-05
831,-2.15927e-05,1.15284e-05,4.48802e-05,3.72215e-05,3.85201e-05,1.05537e-05
832,-3.40841e-05,4.05048e-06,3.68415e-05,4.06909e-05,3.65563e-05,6.71913e-06
833,-2.9269e-05,-9.16308e-07,3.58835e-05,4.56813e-05,3.03815e-05,5.91993e-06
834,-1.04419e-05,9.31332e-07,4.34859e-05,4.9217e-05,2.64479e-05,9.96808e-06
835,2.14934e-06,5.90279e-06,4.93296e-05,5.04194e-05,3.11651e-05,1.55526e-05
836,-1.52496e-06,1.12608e-05,4.4753e-05,4.87143e-05,3.84085e-05,1.66098e-05
837,-1.61763e-05,1.43068e-05,3.29607e-05,4.54148e-05,3.90825e-05,1.06098e-05
838,-3.08276e-05,1.20983e-05,2.48423e-05,4.54278e-05,3.39349e-05,2.78165e-06
839,-2.80773e-05,7.15213e-06,3.09136e-05,4.91622e-05,2.51088e-05,4.50506e-06
840,-1.24762e-05,4.09295e-06,4.37002e-05,5.23817e-05,1.98039e-05,1.36991e-05
841,-5.18991e-06,4.55155e-06,4.62529e-05,5.33409e-05,2.5412e-05,1.70559e-05
842,-3.42859e-06,6.31945e-06,4.25313e-05,5.29932e-05,3.48641e-05,1.54714e-05
843,4.32301e-07,8.86188e-06,4.06137e-05,5.23716e-05,3.68383e-05,1.51461e-05
844,2.9631e-06,1.45808e-05,3.79582e-05,5.27474e-05,3.4482e-05,1.44842e-05
845,-3.65262e-07,1.95397e-05,3.40424e-05,5.3652e-05,3.56387e-05,1.19742e-05
846,-1.32055e-05,1.79777e-05,2.72952e-05,5.53179e-05,3.62158e-05,8.1562e-06
847,-2.31952e-05,1.16219e-05,2.28982e-05,5.86701e-05,2.84019e-05,6.22653e-06
848,-1.4334e-05,9.73879e-06,2.80689e-05,6.15661e-05,1.77216e-05,8.16092e-06
849,3.98219e-06,1.38014e-05,3.63412e-05,6.11875e-05,1.66202e-05,1.14399e-05
850,1.24317e-05,1.91246e-05,3.89201e-05,5.7437e-05,2.45858e-05,1.15164e-05
851,7.07646e-06,2.15377e-05,3.48654e-05,5.29592e-05,3.01685e-05,7.28522e-06
852,-7.26868e-06,1.85524e-05,2.59897e-05,5.07652e-05,2.93223e-05,1.79496e-06
853,-1.77959e-05,1.30919e-05,1.9936e-05,5.19147e-05,2.44546e-05,3.40949e-07
854,-1.37094e-05,1.10743e-05,2.53765e-05,5.49958e-05,1.87716e-05,4.81025e-06
855,-1.40171e-06,1.20866e-05,3.71599e-05,5.89014e-05,1.72543e-05,1.03232e-05
856,5.03201e-06,1.29365e-05,4.35128e-05,6.18712e-05,2.35668e-05,1.25335e-05
857,1.27302e-06,1.36408e-05,4.09093e-05,6.2625e-05,3.12587e-05,1.12757e-05
858,-8.59904e-06,1.39315e-05,3.23082e-05,6.16988e-05,3.2202e-05,8.0004e-06
859,-1.4549e-05,1.3648e-05,2.48687e-05,5.99883e-05,2.74159e-05,4.71627e-06
860,-4.2356e-06,1.49322e-05,2.89692e-05,5.76681e-05,2.1654e-05,4.309e-06
861,1.53671e-05,1.8273e-05,4.32876e-05,5.61273e-05,2.01914e-05,6.86303e-06
862,2.47613e-05,1.92015e-05,5.40364e-05,5.61755e-05,2.62881e-05,9.1847e-06
863,1.89878e-05,1.74683e-05,5.34107e-05,5.51971e-05,3.30654e-05,8.42837e-06
864,2.52968e-06,1.61754e-05,4.23541e-05,5.19804e-05,3.29255e-05,4.70581e-06
865,-1.60512e-05,1.37917e-05,2.86742e-05,5.03775e-05,2.61505e-05,2.9892e-07
866,-1.66014e-05,8.0494e-06,2.65591e-05,5.29663e-05,1.44063e-05,1.08715e-06
867,-2.23919e-06,3.96146e-06,3.59498e-05,5.39101e-05,6.66973e-06,7.5197e-06
868,4.84643e-06,6.13929e-06,4.21932e-05,4.90441e-05,1.31385e-05,1.18217e-05
869,6.02174e-06,1.03563e-05,4.39066e-05,4.40198e-05,2.64993e-05,1.30732e-05
870,1.0469e-05,9.76724e-06,4.6765e-05,4.26426e-05,3.34009e-05,1.19793e-05
871,1.56114e-05,6.50015e-06,4.94514e-05,4.14753e-05,3.37039e-05,1.03928e-05
872,1.28959e-05,6.98328e-06,4.84294e-05,3.93863e-05,3.12979e-05,1.04452e-05
873,-1.79593e-06,1.05536e-05,4.03556e-05,3.98793e-05,3.15607e-05,6.6373e-06
874,-1.46967e-05,1.13936e-05,3.18059e-05,4.42622e-05,3.2152e-05,4.06165e-07
875,-1.03135e-05,1.11342e-05,3.36506e-05,4.88076e-05,2.88617e-05,-1.2184e-06
876,4.65614e-06,1.30569e-05,4.40844e-05,4.9202e-05,2.95335e-05,1.75906e-06
877,1.40671e-05,1.78839e-05,5.15098e-05,4.48112e-05,3.94235e-05,4.78904e-06
878,1.14582e-05,2.26583e-05,4.88204e-05,4.04415e-05,4.65312e-05,7.2239e-06
879,-1.73166e-06,2.20839e-05,3.75322e-05,4.08515e-05,4.3342e-05,8.18412e-06
880,-1.32026e-05,1.59638e-05,2.80508e-05,4.60077e-05,3.48235e-05,7.13976e-06
881,-1.02885e-05,1.04406e-05,3.03165e-05,5.12628e-05,2.73878e-05,7.52853e-06
882,3.51555e-06,1.1171e-05,4.0436e-05,5.26036e-05,2.55558e-05,1.01706e-05
883,1.38879e-05,1.66136e-05,4.72159e-05,5.10514e-05,2.93357e-05,1.03848e-05
884,1.28735e-05,2.06533e-05,4.5964e-05,4.97206e-05,3.43315e-05,7.56038e-06
885,1.0482e-06,1.80223e-05,3.79147e-05,5.03316e-05,3.66218e-05,6.11382e-06
886,-1.35029e-05,9.84722e-06,2.97771e-05,5.15462e-05,3.54618e-05,7.80476e-06
887,-1.62454e-05,3.25561e-06,3.22869e-05,5.13607e-05,3.03558e-05,1.28771e-05
888,-6.20315e-06,2.26435e-06,4.2298e-05,5.03889e-05,2.76724e-05,1.88793e-05
889,2.81451e-06,4.96099e-06,4.69072e-05,4.99181e-05,3.25138e-05,2.05337e-05
890,2.6843e-06,8.56059e-06,4.48495e-05,4.89768e-05,3.87772e-05,1.74127e-05
891,-8.60612e-06,9.73706e-06,3.87309e-05,4.71688e-05,4.26788e-05,1.11611e-05
892,-2.28933e-05,8.06501e-06,3.03972e-05,4.70878e-05,4.41997e-05,4.33851e-06
893,-1.80511e-05,6.60242e-06,3.11683e-05,5.13774e-05,3.80902e-05,3.45618e-06
894,5.07864e-07,7.9357e-06,3.91653e-05,5.75161e-05,2.89582e-05,8.93616e-06
895,7.10091e-06,9.24137e-06,3.94837e-05,5.93804e-05,2.5978e-05,1.46596e-05
896,5.88272e-06,1.02148e-05,3.66551e-05,5.7604e-05,3.05576e-05,1.66775e-05
897,7.04793e-06,1.01279e-05,3.71615e-05,5.73759e-05,3.65671e-05,1.71268e-05
898,8.59529e-06,1.03135e-05,3.78579e-05,5.82851e-05,4.02167e-05,1.80603e-05
899,5.8442e-06,1.35852e-05,3.59304e-05,5.70706e-05,4.22276e-05,1.93096e-05
900,-7.76815e-06,1.50419e-05,2.78619e-05,5.41889e-05,4.14734e-05,1.5973e-05
901,-2.07081e-05,1.05379e-05,2.14453e-05,5.3709e-05,3.64329e-05,1.09094e-05
902,-1.76963e-05,3.07631e-06,2.7027e-05,5.40604e-05,2.97785e-05,1.16608e-05
903,-4.66929e-06,-4.33079e-07,3.98218e-05,5.25224e-05,2.73302e-05,1.74096e-05
904,4.81331e-06,3.65528e-06,4.74776e-05,5.14315e-05,2.92008e-05,2.27907e-05
905,4.73586e-06,1.23817e-05,4.53693e-05,5.25725e-05,3.15237e-05,2.24608e-05
906,-6.95571e-06,1.62847e-05,3.48992e-05,5.48008e-05,3.0739e-05,1.72405e-05
907,-2.03236e-05,1.24578e-05,2.65487e-05,5.67319e-05,2.44532e-05,1.24244e-05
908,-2.09392e-05,8.74846e-06,3.10093e-05,5.80294e-05,1.56929e-05,1.28027e-05
909,-1.05597e-05,9.06272e-06,4.3057e-05,5.78906e-05,1.3084e-05,1.84353e-05
910,-1.51281e-06,1.19506e-05,4.92935e-05,5.58342e-05,2.01698e-05,2.40505e-05
911,-6.69999e-07,1.66805e-05,4.54454e-05,5.34604e-05,2.83641e-05,2.32594e-05
912,-1.03454e-05,1.90275e-05,3.50393e-05,5.35094e-05,2.87227e-05,1.54623e-05
913,-2.34328e-05,1.3418e-05,2.57539e-05,5.59832e-05,2.09928e-05,6.9138e-06
914,-2.28805e-05,5.10723e-06,2.7068e-05,5.75513e-05,1.25447e-05,4.40474e-06
915,-9.18298e-06,2.99838e-06,3.7848e-05,5.62444e-05,1.29004e-05,8.30448e-06
916,-2.55347e-07,6.772e-06,4.7854e-05,5.41829e-05,2.29611e-05,1.3698e-05
917,-3.70387e-06,1.1802e-05,4.88208e-05,5.29617e-05,3.15084e-05,1.3617e-05
918,-1.59541e-05,1.31634e-05,3.79779e-05,5.2915e-05,3.22388e-05,6.43954e-06
919,-2.85547e-05,1.18162e-05,2.19289e-05,5.28761e-05,2.83513e-05,1.00923e-06
920,-2.38905e-05,1.40928e-05,2.02986e-05,5.1661e-05,1.93067e-05,5.5783e-06
921,-7.32117e-06,1.89584e-05,3.43451e-05,5.06996e-05,1.03515e-05,1.46787e-05
922,-2.78234e-06,2.19032e-05,4.45137e-05,5.16842e-05,1.29504e-05,1.91756e-05
923,-4.26212e-06,2.0265e-05,4.63488e-05,5.47102e-05,2.49651e-05,1.97433e-05
924,-1.78553e-06,1.70669e-05,4.56177e-05,5.73051e-05,3.27078e-05,2.0012e-05
925,1.05932e-07,1.94713e-05,4.39727e-05,5.78181e-05,3.27193e-05,2.05444e-05
926,-2.28572e-06,2.62203e-05,3.96839e-05,5.75196e-05,2.97071e-05,1.94723e-05
927,-1.42926e-05,2.86052e-05,2.94577e-05,5.81055e-05,2.56148e-05,1.36991e-05
928,-2.50054e-05,2.26562e-05,2.11169e-05,6.00401e-05,1.97421e-05,7.05761e-06
929,-1.79869e-05,1.55648e-05,2.52104e-05,6.03003e-05,1.24093e-05,5.01971e-06
930,-9.0713e-07,1.29885e-05,3.76808e-05,5.72102e-05,9.48538e-06,5.95967e-06
931,7.36271e-06,1.39244e-05,4.70242e-05,5.30109e-05,1.65188e-05,8.85926e-06
932,2.29827e-06,1.62325e-05,4.64178e-05,4.95336e-05,2.81077e-05,1.35323e-05
933,-1.03558e-05,1.89494e-05,3.51769e-05,4.6806e-05,3.55586e-05,1.50637e-05
934,-1.87885e-05,2.02617e-05,2.46209e-05,4.51071e-05,3.38412e-05,1.23365e-05
935,-1.25921e-05,1.91722e-05,2.62047e-05,4.54869e-05,2.6e-05,1.0505e-05
936,3.21037e-06,1.73113e-05,3.5758e-05,4.66792e-05,2.31053e-05,1.14007e-05
937,1.29972e-05,1.74391e-05,4.17603e-05,4.5668e-05,3.10842e-05,1.28317e-05
938,8.9627e-06,2.09955e-05,4.13319e-05,4.23149e-05,4.14196e-05,1.32134e-05
939,-5.68012e-06,2.55344e-05,3.50486e-05,4.00492e-05,4.50005e-05,1.09386e-05
940,-1.83982e-05,2.62356e-05,2.51349e-05,4.10186e-05,4.15295e-05,7.13221e-06
941,-1.51158e-05,2.2186e-05,2.28459e-05,4.37833e-05,3.33002e-05,8.64588e-06
942,-7.99964e-08,1.79921e-05,3.21229e-05,4.72714e-05,2.82022e-05,1.57175e-05
943,7.58882e-06,1.71044e-05,4.29882e-05,5.00099e-05,3.33909e-05,2.02828e-05
944,6.45754e-07,1.7854e-05,4.60446e-05,4.97613e-05,4.20251e-05,1.98434e-05
945,-1.39675e-05,1.81709e-05,3.84385e-05,4.91926e-05,4.49143e-05,1.41877e-05
946,-2.83801e-05,1.79817e-05,2.62678e-05,4.97189e-05,4.15734e-05,4.60105e-06
947,-2.65962e-05,1.93748e-05,2.60242e-05,4.87709e-05,3.17888e-05,2.5356e-06
948,-8.92226e-06,2.20217e-05,3.66223e-05,4.64253e-05,2.34385e-05,1.05556e-05
949,2.75517e-06,2.01567e-05,4.15138e-05,4.46925e-05,2.55074e-05,1.69739e-05
950,5.33645e-06,1.34695e-05,4.27007e-05,4.64698e-05,2.98091e-05,1.71467e-05
951,6.21993e-06,9.38323e-06,4.69316e-05,5.19682e-05,2.96321e-05,1.5382e-05
952,6.21481e-06,1.33087e-05,5.09819e-05,5.58598e-05,3.13549e-05,1.56076e-05
953,1.12886e-06,1.81066e-05,4.81732e-05,5.28152e-05,3.43279e-05,1.68819e-05
954,-1.3662e-05,1.60117e-05,3.53764e-05,4.6724e-05,3.31612e-05,1.38719e-05
955,-2.48568e-05,9.86754e-06,2.52791e-05,4.7379e-05,2.61645e-05,9.79761e-06
956,-1.8692e-05,7.60641e-06,2.94318e-05,5.38726e-05,1.72011e-05,1.19657e-05
957,-2.67488e-06,8.69087e-06,4.16926e-05,5.76035e-05,1.49415e-05,1.76107e-05
958,6.0786e-06,9.39667e-06,4.83851e-05,5.50939e-05,2.06505e-05,2.09325e-05
959,1.52374e-06,9.53816e-06,4.58501e-05,5.10591e-05,2.80065e-05,1.95956e-05
960,-1.28161e-05,7.51919e-06,3.51807e-05,5.01428e-05,3.2803e-05,1.54031e-05
961,-2.4221e-05,3.74293e-06,2.4573e-05,5.19452e-05,3.21821e-05,1.1002e-05
962,-2.01835e-05,2.35075e-06,2.60364e-05,5.48994e-05,2.55468e-05,1.07942e-05
963,-6.41724e-06,4.19516e-06,3.65384e-05,5.75862e-05,1.89196e-05,1.59494e-05
964,2.05309e-06,6.10006e-06,4.27137e-05,5.86814e-05,2.07513e-05,1.96216e-05
965,-4.74608e-07,7.06826e-06,4.04398e-05,5.76915e-05,2.92683e-05,1.70992e-05
966,-1.20975e-05,6.14337e-06,3.1915e-05,5.60331e-05,3.5897e-05,1.22698e-05
967,-2.29141e-05,2.7806e-06,2.37813e-05,5.62751e-05,3.54984e-05,1.07935e-05
968,-1.64336e-05,-1.65434e-06,2.7853e-05,5.69904e-05,2.9263e-05,1.31178e-05
969,3.54025e-06,-3.52386e-06,3.98477e-05,5.51453e-05,2.54934e-05,1.60581e-05
970,1.50104e-05,-1.06378e-06,4.55767e-05,5.39683e-05,3.10504e-05,1.74641e-05
971,9.39945e-06,3.03725e-06,4.38648e-05,5.57094e-05,3.86821e-05,1.7082e-05
972,-7.52823e-06,3.98292e-06,3.88068e-05,5.85712e-05,3.79991e-05,1.26644e-05
973,-2.60215e-05,2.83231e-07,3.16834e-05,6.1116e-05,3.01815e-05,4.72852e-06
974,-2.54871e-05,-2.40946e-06,3.2035e-05,6.07888e-05,1.91282e-05,1.5447e-06
975,-5.20227e-06,3.29488e-06,3.95984e-05,5.64028e-05,1.27693e-05,6.54585e-06
976,8.088e-06,1.31592e-05,4.09024e-05,5.48381e-05,1.68952e-05,1.16658e-05
977,8.52965e-06,1.8358e-05,3.81281e-05,5.86487e-05,2.49431e-05,1.28053e-05
978,8.23497e-06,1.8122e-05,3.97673e-05,6.02455e-05,2.98375e-05,1.28699e-05
979,9.00227e-06,1.84338e-05,4.15764e-05,5.72107e-05,3.20534e-05,1.35557e-05
980,4.25692e-06,2.13655e-05,4.0593e-05,5.36062e-05,3.29959e-05,1.26402e-05
981,-1.09505e-05,2.32467e-05,3.52554e-05,5.41265e-05,3.24799e-05,9.2465e-06
982,-2.22138e-05,2.21104e-05,2.75035e-05,5.8664e-05,2.82571e-05,7.87333e-06
983,-1.30469e-05,1.89228e-05,2.72683e-05,6.06041e-05,2.16823e-05,1.16059e-05
984,6.21145e-06,1.59536e-05,3.70257e-05,5.70676e-05,1.93531e-05,1.76393e-05
985,1.47642e-05,1.67602e-05,4.56219e-05,5.21858e-05,2.33211e-05,2.06605e-05
986,6.97664e-06,2.1405e-05,4.46225e-05,4.90096e-05,2.97276e-05,2.059e-05
987,-1.05256e-05,2.21488e-05,3.60353e-05,4.78848e-05,3.52267e-05,1.86921e-05
988,-2.23479e-05,1.72333e-05,2.89158e-05,4.66915e-05,3.43197e-05,1.56012e-05
989,-1.66341e-05,1.20141e-05,3.0722e-05,4.33151e-05,2.61379e-05,1.53776e-05
990,-2.07157e-06,9.72653e-06,3.92109e-05,4.02764e-05,2.07017e-05,1.78678e-05
991,3.36917e-06,1.13386e-05,4.63721e-05,4.0346e-05,2.59787e-05,1.82408e-05
992,-4.46638e-06,1.52097e-05,4.6972e-05,4.04582e-05,3.47119e-05,1.59011e-05
993,-1.97084e-05,1.72252e-05,4.14344e-05,3.81595e-05,3.68992e-05,1.20742e-05
994,-3.26152e-05,1.57561e-05,3.52338e-05,3.88697e-05,3.28953e-05,7.72028e-06
995,-2.93989e-05,1.38043e-05,3.73626e-05,4.56835e-05,2.76819e-05,7.4895e-06
996,-1.26188e-05,1.36929e-05,4.69669e-05,5.23241e-05,2.67463e-05,1.09463e-05
997,7.43835e-07,1.45479e-05,5.31028e-05,5.24727e-05,3.09851e-05,1.19158e-05
998,2.86599e-06,1.57257e-05,5.01376e-05,4.61353e-05,3.39348e-05,1.10874e-05
999,-6.22408e-06,1.40034e-05,3.84448e-05,3.98462e-05,3.42561e-05,8.79503e-06
1000,-2.03705e-05,8.2035e-06,2.61879e-05,4.19444e-05,3.50699e-05,4.02065e-06
1001,-1.85978e-05,3.4926e-06,2.86269e-05,4.92691e-05,3.06139e-05,4.99856e-06
1002,-2.85508e-07,3.988e-06,4.10359e-05,5.1878e-05,2.2869e-05,1.22985e-05
1003,1.05739e-05,9.36841e-06,4.43532e-05,4.9193e-05,2.3303e-05,1.7236e-05
1004,1.1307e-05,1.29817e-05,4.15321e-05,4.68776e-05,3.03639e-05,1.82375e-05
1005,1.03038e-05,1.34414e-05,4.14825e-05,4.70017e-05,3.6315e-05,1.72841e-05
1006,9.73219e-06,1.44666e-05,4.14124e-05,4.89021e-05,3.9688e-05,1.51798e-05
1007,7.00943e-06,1.50619e-05,3.74808e-05,5.14817e-05,3.98417e-05,1.20662e-05
1008,-4.06068e-06,1.09584e-05,2.73551e-05,5.18241e-05,3.69973e-05,9.81315e-06
1009,-1.22785e-05,4.41441e-06,1.93411e-05,5.04498e-05,3.11126e-05,1.10052e-05
1010,-2.48885e-06,4.50067e-06,2.16069e-05,4.99564e-05,2.55654e-05,1.53241e-05
1011,1.56512e-05,8.67836e-06,3.09179e-05,4.90137e-05,2.67733e-05,1.76012e-05
1012,2.28069e-05,1.08028e-05,3.84489e-05,4.71481e-05,3.37709e-05,1.51866e-05
1013,1.47779e-05,1.06027e-05,3.97863e-05,4.66139e-05,3.851e-05,1.04438e-05
1014,-3.54711e-06,6.2244e-06,3.27086e-05,4.80924e-05,3.81428e-05,6.38129e-06
1015,-1.89412e-05,-2.40127e-07,2.40596e-05,5.14318e-05,3.37603e-05,6.17502e-06
1016,-1.7911e-05,-5.59828e-07,2.63486e-05,5.60189e-05,2.78559e-05,1.04653e-05
1017,-3.56039e-06,5.33506e-06,3.6845e-05,5.8419e-05,2.65406e-05,1.3981e-05
1018,7.96811e-06,1.05062e-05,4.37422e-05,5.69202e-05,3.32255e-05,1.21829e-05
1019,6.03913e-06,1.26812e-05,4.32405e-05,5.32582e-05,4.17555e-05,7.93147e-06
1020,-8.39916e-06,1.26039e-05,3.65575e-05,5.05798e-05,4.30806e-05,4.63091e-06
1021,-2.23727e-05,8.47067e-06,2.75497e-05,5.10585e-05,3.66506e-05,2.49879e-06
1022,-1.96808e-05,1.36269e-06,2.78831e-05,5.41005e-05,2.81867e-05,3.86241e-06
1023,-4.43831e-06,-8.38047e-07,3.88154e-05,5.69314e-05,2.35359e-05,1.07081e-05
1024,4.17527e-06,6.08396e-06,4.71527e-05,5.67016e-05,2.66663e-05,1.69587e-05
1025,-4.76641e-07,1.62519e-05,4.63957e-05,5.23378e-05,3.52806e-05,1.67645e-05
1026,-1.21548e-05,1.97694e-05,3.80682e-05,4.71188e-05,4.23445e-05,1.17719e-05
1027,-2.10364e-05,1.447e-05,2.72804e-05,4.57927e-05,4.32225e-05,7.41304e-06
1028,-1.2526e-05,1.05137e-05,2.63729e-05,4.66285e-05,3.5607e-05,9.74238e-06
1029,5.50872e-06,1.44617e-05,3.57359e-05,4.60674e-05,2.64989e-05,1.63272e-05
1030,1.22801e-05,2.05051e-05,4.43562e-05,4.41562e-05,2.7332e-05,1.85267e-05
1031,1.29019e-05,2.07533e-05,4.88594e-05,4.35398e-05,3.37035e-05,1.95013e-05
1032,1.44585e-05,1.60496e-05,4.87258e-05,4.64604e-05,3.48787e-05,2.29569e-05
1033,1.13466e-05,1.66572e-05,4.57143e-05,4.94318e-05,3.05343e-05,2.50429e-05
1034,3.87432e-06,2.27325e-05,4.23554e-05,4.69233e-05,2.60145e-05,2.44363e-05
1035,-7.73842e-06,2.37504e-05,3.45213e-05,4.21423e-05,2.67651e-05,2.15963e-05
1036,-1.46584e-05,1.76089e-05,2.77306e-05,4.15412e-05,2.79371e-05,2.02734e-05
1037,-6.81631e-06,1.13766e-05,3.05882e-05,4.46973e-05,2.39034e-05,2.28086e-05
1038,3.92337e-06,8.93316e-06,3.81218e-05,4.81848e-05,2.09002e-05,2.49287e-05
1039,4.4808e-06,1.1052e-05,4.0219e-05,4.93725e-05,2.41229e-05,2.30682e-05
1040,-1.96898e-06,1.47527e-05,3.55787e-05,4.74555e-05,2.81236e-05,1.80912e-05
1041,-1.2046e-05,1.30567e-05,2.71282e-05,4.52958e-05,2.80868e-05,1.27788e-05
1042,-1.97039e-05,7.28261e-06,2.07409e-05,4.58049e-05,2.17422e-05,1.0853e-05
1043,-1.49394e-05,6.07803e-06,2.45061e-05,4.85739e-05,1.26511e-05,1.30158e-05
1044,-1.91933e-06,1.0741e-05,3.40503e-05,5.14501e-05,1.09653e-05,1.73912e-05
1045,2.93497e-06,1.47396e-05,3.89003e-05,5.31577e-05,1.93226e-05,2.05806e-05
1046,-4.45472e-06,1.37212e-05,3.78873e-05,5.36503e-05,2.89134e-05,1.99343e-05
1047,-1.78327e-05,8.42075e-06,3.36789e-05,5.37807e-05,3.19389e-05,1.48034e-05
1048,-2.79498e-05,3.22133e-06,2.81198e-05,5.50621e-05,2.85758e-05,8.51377e-06
1049,-2.18044e-05,2.82385e-06,3.00499e-05,5.82707e-05,2.12648e-05,5.99743e-06
1050,-3.90549e-06,6.79274e-06,4.1837e-05,5.87491e-05,1.72816e-05,7.0579e-06
1051,5.58163e-06,1.0745e-05,5.39355e-05,5.27455e-05,2.22643e-05,8.78707e-06
1052,-1.49107e-06,1.29049e-05,5.83496e-05,4.79836e-05,2.86907e-05,1.09075e-05
1053,-1.98163e-05,1.1947e-05,5.12822e-05,5.19173e-05,2.91127e-05,1.13629e-05
1054,-3.8042e-05,6.91164e-06,3.71598e-05,5.77774e-05,2.54854e-05,7.50335e-06
1055,-3.66249e-05,3.18914e-06,3.45334e-05,5.84782e-05,1.873e-05,4.61271e-06
1056,-2.06018e-05,6.09056e-06,4.36799e-05,5.6801e-05,1.24661e-05,5.70345e-06
1057,-1.51169e-05,1.18058e-05,4.697e-05,5.43262e-05,1.38126e-05,7.9796e-06
1058,-1.31755e-05,1.5166e-05,4.73169e-05,5.25885e-05,2.40015e-05,1.08038e-05
1059,-6.93578e-06,1.75508e-05,5.08713e-05,5.17699e-05,3.24079e-05,1.44729e-05
1060,-6.51653e-06,2.12685e-05,5.14685e-05,5.1098e-05,3.33337e-05,1.69644e-05
1061,-1.50326e-05,2.31956e-05,4.62964e-05,5.19546e-05,3.03664e-05,1.6262e-05
1062,-3.2859e-05,1.82681e-05,3.71299e-05,5.36493e-05,2.62756e-05,1.2271e-05
1063,-4.57074e-05,8.14054e-06,3.03133e-05,5.59307e-05,1.99969e-05,9.50003e-06
1064,-3.99798e-05,-1.05295e-07,3.27603e-05,5.85081e-05,1.33602e-05,1.08405e-05
1065,-2.49295e-05,-2.18293e-06,4.00203e-05,5.95132e-05,1.56202e-05,1.34024e-05
1066,-1.71727e-05,1.80625e-06,4.31322e-05,5.80456e-05,2.59278e-05,1.41581e-05
1067,-1.91876e-05,7.12157e-06,4.05352e-05,5.63181e-05,3.26432e-05,1.21512e-05
1068,-2.69644e-05,8.36148e-06,3.23617e-05,5.41137e-05,3.09365e-05,7.92008e-06
1069,-3.10911e-05,3.92824e-06,2.47739e-05,5.01204e-05,2.42223e-05,4.51892e-06
1070,-2.39514e-05,-5.60413e-07,2.76763e-05,4.62785e-05,1.5453e-05,6.23766e-06
1071,-1.14984e-05,4.4768e-07,3.82996e-05,4.38316e-05,1.09243e-05,9.69538e-06
1072,-4.26032e-06,6.57942e-06,4.66751e-05,4.23792e-05,1.53891e-05,8.96175e-06
1073,-5.97582e-06,1.40517e-05,4.76706e-05,4.05424e-05,2.27091e-05,5.42629e-06
1074,-1.68167e-05,1.78231e-05,3.8565e-05,3.91214e-05,2.49647e-05,3.24718e-06
1075,-3.01087e-05,1.70039e-05,2.52784e-05,3.96322e-05,2.16825e-05,2.62187e-06
1076,-2.89678e-05,1.54955e-05,2.29621e-05,4.15544e-05,1.54225e-05,3.66212e-06
1077,-1.15076e-05,1.40486e-05,3.26497e-05,4.36854e-05,1.16476e-05,6.21933e-06
1078,2.82975e-06,1.21575e-05,4.0396e-05,4.59976e-05,1.53841e-05,7.69933e-06
1079,7.72884e-07,1.39234e-05,4.03887e-05,4.90558e-05,2.21517e-05,7.62162e-06
1080,-1.29409e-05,1.78276e-05,3.37854e-05,5.25683e-05,2.73486e-05,6.27514e-06
1081,-2.61163e-05,1.88865e-05,2.3462e-05,5.59557e-05,2.93478e-05,2.7689e-06
1082,-1.99968e-05,2.01255e-05,2.19092e-05,5.90397e-05,2.32648e-05,1.2366e-06
1083,1.57122e-06,2.41757e-05,3.24695e-05,5.94246e-05,1.53617e-05,4.62041e-06
1084,1.22835e-05,2.67173e-05,4.23745e-05,5.73474e-05,1.84961e-05,5.65483e-06
1085,1.16669e-05,2.46849e-05,4.6231e-05,5.56993e-05,3.06392e-05,5.15156e-06
1086,1.39595e-05,1.83418e-05,4.69427e-05,5.38188e-05,3.78705e-05,8.90992e-06
1087,1.83365e-05,1.45183e-05,4.52517e-05,5.02837e-05,3.57311e-05,1.49637e-05
1088,1.60195e-05,1.6226e-05,3.95741e-05,4.61098e-05,3.32444e-05,1.79567e-05
1089,2.22545e-06,1.71265e-05,2.73687e-05,4.73773e-05,3.23932e-05,1.47529e-05
1090,-9.98514e-06,1.51988e-05,1.83733e-05,5.36173e-05,2.90984e-05,1.13656e-05
1091,-5.01524e-06,1.46147e-05,2.29193e-05,5.59285e-05,2.46802e-05,1.42872e-05
1092,9.35138e-06,1.5627e-05,3.40169e-05,5.18448e-05,2.63485e-05,1.89321e-05
1093,1.57354e-05,1.63583e-05,4.1449e-05,4.66307e-05,3.40177e-05,1.79702e-05
1094,9.50209e-06,1.88049e-05,4.0922e-05,4.51692e-05,3.92827e-05,1.25816e-05
1095,-5.91039e-06,2.01785e-05,3.12736e-05,4.81462e-05,4.04255e-05,5.79721e-06
1096,-1.61787e-05,1.65135e-05,2.06777e-05,5.20838e-05,3.83765e-05,2.00325e-06
1097,-8.69154e-06,1.09979e-05,2.19264e-05,5.2775e-05,3.3443e-05,5.5824e-06
1098,8.92213e-06,7.93345e-06,3.45959e-05,4.97182e-05,3.03635e-05,1.3826e-05
1099,1.85473e-05,8.75192e-06,4.65118e-05,4.72559e-05,3.48356e-05,1.89961e-05
1100,1.34301e-05,1.24624e-05,4.94845e-05,4.90523e-05,4.17959e-05,1.82621e-05
1101,-1.62902e-06,1.37849e-05,4.35955e-05,5.10838e-05,4.30285e-05,1.37843e-05
1102,-1.52232e-05,1.06178e-05,3.63919e-05,5.08311e-05,3.80276e-05,8.78202e-06
1103,-1.20793e-05,9.4214e-06,3.70921e-05,5.08239e-05,3.02832e-05,7.36931e-06
1104,3.30381e-06,1.46976e-05,4.26826e-05,5.04531e-05,2.6534e-05,9.50756e-06
1105,1.1503e-05,2.35062e-05,4.31173e-05,4.85732e-05,3.35917e-05,1.27529e-05
1106,6.19432e-06,3.04954e-05,3.74776e-05,4.87072e-05,4.49147e-05,1.68932e-05
1107,-8.04852e-06,3.18045e-05,2.97946e-05,5.25515e-05,4.77636e-05,1.72041e-05
1108,-2.2163e-05,2.67303e-05,2.46135e-05,5.57713e-05,4.20106e-05,9.59856e-06
1109,-1.7884e-05,2.12526e-05,2.95087e-05,5.56863e-05,3.18436e-05,5.72317e-06
1110,9.06712e-07,2.00334e-05,4.00663e-05,5.53529e-05,2.13352e-05,1.2077e-05
1111,8.87293e-06,1.91203e-05,4.49863e-05,5.7684e-05,1.93484e-05,1.71122e-05
1112,7.54682e-06,1.4344e-05,4.61648e-05,5.93047e-05,2.5669e-05,1.78439e-05
1113,7.29028e-06,8.19618e-06,4.72012e-05,5.57844e-05,3.21697e-05,1.92767e-05
1114,5.77727e-06,6.64427e-06,4.69019e-05,5.07344e-05,3.60324e-05,1.97404e-05
1115,8.81839e-07,9.04651e-06,4.4823e-05,5.00474e-05,3.80937e-05,1.79786e-05
1116,-1.12706e-05,8.92565e-06,3.78685e-05,5.25453e-05,3.87545e-05,1.2489e-05
1117,-1.93707e-05,6.38047e-06,3.16397e-05,5.50762e-05,3.46713e-05,7.00771e-06
1118,-1.22993e-05,7.52924e-06,3.53859e-05,5.47452e-05,2.77785e-05,9.00853e-06
1119,-2.61517e-07,1.16099e-05,4.65943e-05,5.17229e-05,2.58889e-05,1.62091e-05
1120,2.14501e-06,1.57687e-05,5.40198e-05,4.90013e-05,3.07104e-05,2.05684e-05
1121,-6.36586e-06,1.91824e-05,5.09059e-05,4.74907e-05,3.57763e-05,1.95109e-05
1122,-2.04e-05,1.81854e-05,3.92177e-05,4.79046e-05,3.71583e-05,1.3983e-05
1123,-2.88554e-05,1.2377e-05,2.82854e-05,5.12996e-05,3.47188e-05,7.8951e-06
1124,-2.12836e-05,7.4625e-06,2.85237e-05,5.4884e-05,3.01314e-05,6.92003e-06
1125,-3.59226e-06,5.70131e-06,3.74928e-05,5.2918e-05,2.8071e-05,1.20809e-05
1126,8.72591e-06,6.62147e-06,4.30049e-05,4.66454e-05,3.22908e-05,1.77363e-05
1127,8.79382e-06,1.12326e-05,3.94246e-05,4.32259e-05,3.90613e-05,1.69428e-05
1128,-1.02327e-06,1.68467e-05,2.89681e-05,4.52966e-05,4.03745e-05,8.46582e-06
1129,-1.16289e-05,1.81822e-05,1.84493e-05,4.77153e-05,3.34261e-05,8.57058e-07
1130,-8.7143e-06,1.49439e-05,1.93247e-05,4.74237e-05,2.25804e-05,3.68641e-06
1131,5.98854e-06,1.08638e-05,3.13127e-05,4.62245e-05,1.86212e-05,1.31505e-05
1132,1.49785e-05,9.11989e-06,4.10393e-05,4.55833e-05,2.69885e-05,1.94606e-05
1133,9.14696e-06,9.98708e-06,4.33292e-05,4.74496e-05,3.76509e-05,1.96533e-05
1134,-6.43342e-06,8.7356e-06,4.0223e-05,5.22493e-05,3.95534e-05,1.46555e-05
1135,-1.944e-05,3.20569e-06,3.50841e-05,5.58337e-05,3.28794e-05,7.11852e-06
1136,-1.49699e-05,1.25568e-06,3.67933e-05,5.46436e-05,2.2291e-05,5.40167e-06
1137,-1.54887e-06,7.70266e-06,4.23794e-05,5.19045e-05,1.44406e-05,9.04224e-06
1138,1.59283e-06,1.32203e-05,4.20549e-05,5.10387e-05,1.82951e-05,9.38882e-06
1139,-6.84887e-08,1.2296e-05,4.07731e-05,5.03888e-05,3.07518e-05,8.54348e-06
1140,-3.41364e-08,1.07497e-05,4.31299e-05,4.99004e-05,3.68837e-05,9.7947e-06
1141,-7.89731e-07,1.39701e-05,4.50555e-05,4.96889e-05,3.41661e-05,1.01304e-05
1142,-4.0528e-06,1.85218e-05,4.38064e-05,4.96885e-05,2.98222e-05,9.27879e-06
1143,-1.52972e-05,1.74438e-05,3.66589e-05,5.10329e-05,2.70622e-05,6.91391e-06
1144,-2.47366e-05,1.11521e-05,2.96846e-05,5.22452e-05,2.13983e-05,4.28873e-06
1145,-1.91105e-05,4.93515e-06,3.38333e-05,5.21924e-05,1.3452e-05,4.50385e-06
1146,-4.23494e-06,1.68783e-06,4.56668e-05,5.30282e-05,1.17107e-05,1.00896e-05
1147,6.22537e-06,3.94698e-06,5.36564e-05,5.63259e-05,1.77924e-05,1.84431e-05
1148,6.15341e-06,9.13224e-06,5.29307e-05,5.89372e-05,2.40401e-05,2.20411e-05
1149,-4.03855e-06,8.72107e-06,4.26429e-05,5.81304e-05,2.58789e-05,1.77267e-05
1150,-1.31749e-05,1.32832e-06,2.96875e-05,5.5496e-05,2.44685e-05,1.2618e-05
1151,-8.64197e-06,-4.98396e-06,2.7449e-05,5.34075e-05,2.10743e-05,1.37716e-05
1152,3.98644e-06,-4.33158e-06,3.76281e-05,5.15893e-05,2.0475e-05,1.83673e-05
1153,9.7353e-06,1.31621e-06,4.74223e-05,4.9249e-05,2.4619e-05,2.04904e-05
1154,4.29779e-06,7.35812e-06,4.73003e-05,4.53843e-05,2.87416e-05,1.84969e-05
1155,-7.74982e-06,1.05124e-05,3.80404e-05,4.25443e-05,3.00496e-05,1.36431e-05
1156,-1.71201e-05,9.61735e-06,2.93134e-05,4.42266e-05,2.87572e-05,8.92382e-06
1157,-1.16882e-05,8.36395e-06,3.21652e-05,4.94034e-05,2.33094e-05,1.04646e-05
1158,4.3309e-06,1.12312e-05,4.27827e-05,5.50911e-05,1.79672e-05,1.80951e-05
1159,1.44257e-05,1.62192e-05,4.98684e-05,5.8017e-05,2.11767e-05,2.4196e-05
1160,1.10164e-05,1.872e-05,4.79024e-05,5.70657e-05,2.92772e-05,2.39639e-05
1161,-4.61606e-06,1.67002e-05,3.69226e-05,5.5326e-05,3.39916e-05,1.75342e-05
1162,-2.2543e-05,1.23264e-05,2.35938e-05,5.63021e-05,3.30791e-05,9.27229e-06
1163,-2.22296e-05,1.15056e-05,2.35259e-05,5.76032e-05,2.54849e-05,7.61809e-06
1164,-5.40144e-06,1.52549e-05,3.70702e-05,5.55839e-05,2.00977e-05,1.34875e-05
1165,6.28713e-06,1.71367e-05,4.35077e-05,5.22907e-05,2.3609e-05,1.99655e-05
1166,1.05616e-05,1.45085e-05,4.0237e-05,5.08101e-05,2.74039e-05,2.12174e-05
1167,1.18511e-05,1.19887e-05,3.7692e-05,5.0679e-05,2.81511e-05,1.76966e-05
1168,8.03793e-06,1.5268e-05,3.93509e-05,5.09661e-05,2.95883e-05,1.41744e-05
1169,-1.02266e-06,2.17063e-05,4.18914e-05,5.16069e-05,3.19063e-05,1.25717e-05
1170,-1.54594e-05,2.29177e-05,3.55961e-05,5.16856e-05,3.4859e-05,1.15804e-05
1171,-2.22122e-05,1.69038e-05,2.62702e-05,5.03396e-05,3.33257e-05,1.09851e-05
1172,-9.5057e-06,1.086e-05,2.8357e-05,4.89146e-05,2.55352e-05,1.31367e-05
1173,8.9243e-06,1.05173e-05,3.86763e-05,5.00558e-05,2.33623e-05,1.60334e-05
1174,1.42785e-05,1.58237e-05,4.41027e-05,5.42865e-05,3.24259e-05,1.63575e-05
1175,6.03662e-06,2.10348e-05,3.97585e-05,5.83475e-05,4.33799e-05,1.47473e-05
1176,-8.78832e-06,2.10119e-05,2.81066e-05,5.88752e-05,4.83933e-05,1.15905e-05
1177,-1.91332e-05,1.80885e-05,2.02816e-05,5.59817e-05,4.53738e-05,9.70795e-06
1178,-1.45335e-05,1.61338e-05,2.70204e-05,5.30268e-05,3.79158e-05,1.35022e-05
1179,1.49909e-06,1.53143e-05,4.12072e-05,5.20103e-05,3.4474e-05,2.11425e-05
1180,1.42614e-05,1.5627e-05,4.6813e-05,5.36654e-05,3.83365e-05,2.47975e-05
1181,1.39958e-05,1.70125e-05,4.09831e-05,5.52354e-05,4.29158e-05,2.0622e-05
1182,8.95317e-07,1.74467e-05,3.02934e-05,5.2593e-05,4.17306e-05,1.18234e-05
1183,-1.4161e-05,1.57399e-05,2.15296e-05,4.80687e-05,3.55199e-05,5.5549e-06
1184,-1.3644e-05,1.31484e-05,2.32197e-05,4.69624e-05,2.79937e-05,7.16355e-06
1185,1.41663e-06,1.1958e-05,3.37689e-05,4.96032e-05,2.33526e-05,1.31972e-05
1186,1.33084e-05,1.32028e-05,4.09017e-05,5.05178e-05,2.48998e-05,1.7219e-05
1187,1.3086e-05,1.7184e-05,3.86251e-05,4.66087e-05,2.95002e-05,1.75893e-05
1188,5.80377e-07,2.07892e-05,2.93526e-05,4.2382e-05,3.15848e-05,1.37415e-05
1189,-1.60146e-05,1.85894e-05,2.01096e-05,4.34526e-05,2.87627e-05,6.62307e-06
1190,-1.46554e-05,1.2401e-05,2.28368e-05,4.88779e-05,2.03003e-05,4.21889e-06
1191,5.04183e-08,8.31493e-06,3.60033e-05,5.26239e-05,1.50853e-05,9.74103e-06
1192,3.60833e-06,5.89319e-06,4.36231e-05,5.35704e-05,2.14253e-05,1.4949e-05
1193,-9.94283e-07,5.66093e-06,4.33539e-05,5.59511e-05,2.95512e-05,1.64845e-05
1194,-3.84414e-06,8.8158e-06,4.34971e-05,5.75527e-05,2.82592e-05,1.6187e-05
1195,-5.03215e-06,1.33577e-05,4.52602e-05,5.42589e-05,2.53309e-05,1.628e-05
1196,-9.53657e-06,1.9751e-05,4.41142e-05,4.84254e-05,2.68367e-05,1.85864e-05
1197,-2.21902e-05,2.39852e-05,3.56491e-05,4.54488e-05,2.90393e-05,1.79682e-05
1198,-3.06564e-05,1.94163e-05,2.82753e-05,4.50017e-05,2.51831e-05,1.37594e-05
1199,-2.10278e-05,1.11731e-05,3.23736e-05,4.33988e-05,1.52508e-05,1.10475e-05
1200,-4.56752e-06,6.98488e-06,4.25912e-05,4.40886e-05,1.10375e-05,1.02589e-05
1201,-9.37601e-07,8.45313e-06,4.8119e-05,4.81177e-05,1.64657e-05,9.09651e-06
1202,-9.84461e-06,1.28241e-05,4.46938e-05,5.0509e-05,2.38909e-05,7.77324e-06
1203,-2.11863e-05,1.53122e-05,3.35394e-05,5.10697e-05,2.76486e-05,6.15478e-06
1204,-2.32143e-05,1.30593e-05,2.38423e-05,5.21199e-05,2.60498e-05,4.52817e-06
1205,-1.2201e-05,8.23208e-06,2.50217e-05,5.27105e-05,1.9704e-05,6.62048e-06
1206,1.06241e-06,4.10792e-06,3.46774e-05,5.33921e-05,1.69826e-05,1.24404e-05
1207,4.73608e-06,2.79539e-06,4.28879e-05,5.59566e-05,2.26946e-05,1.65078e-05
1208,-1.80032e-06,4.29344e-06,4.48177e-05,5.82657e-05,2.99689e-05,1.53406e-05
1209,-1.52017e-05,5.45184e-06,3.95125e-05,5.74935e-05,3.17274e-05,1.07153e-05
1210,-2.74097e-05,5.32732e-06,3.04586e-05,5.52162e-05,2.63026e-05,7.98014e-06
1211,-2.23006e-05,6.25192e-06,2.99949e-05,5.4535e-05,1.58933e-05,1.05957e-05
1212,-1.17264e-07,7.74048e-06,4.16103e-05,5.61251e-05,1.00112e-05,1.54233e-05
1213,1.74631e-05,8.99124e-06,5.21269e-05,5.86738e-05,1.6875e-05,1.62741e-05
1214,1.42114e-05,1.25697e-05,5.18191e-05,5.89064e-05,2.94424e-05,1.22487e-05
1215,-7.91544e-06,1.47005e-05,4.19409e-05,5.76958e-05,3.53719e-05,7.17575e-06
1216,-2.99178e-05,1.13159e-05,2.84147e-05,5.58337e-05,3.40617e-05,2.84494e-06
1217,-2.64808e-05,7.00343e-06,2.40785e-05,5.22134e-05,2.78574e-05,4.43224e-06
1218,-4.96837e-06,5.34191e-06,3.05175e-05,5.06518e-05,1.97466e-05,1.3973e-05
1219,5.1421e-06,6.08971e-06,3.71793e-05,5.44733e-05,1.85963e-05,1.99847e-05
1220,3.35012e-06,1.00539e-05,4.16376e-05,6.08982e-05,2.48132e-05,1.75238e-05
1221,2.05188e-06,1.44117e-05,4.06151e-05,6.09038e-05,3.03552e-05,1.19457e-05
1222,3.86948e-06,1.69616e-05,3.46236e-05,5.30012e-05,3.19509e-05,8.08942e-06
1223,4.18404e-06,1.84243e-05,2.88975e-05,4.82318e-05,3.05496e-05,8.2331e-06
1224,-7.58395e-06,1.77579e-05,2.23245e-05,5.15461e-05,2.90171e-05,1.09209e-05
1225,-2.03571e-05,1.61468e-05,1.98475e-05,5.67912e-05,2.6451e-05,1.57967e-05
1226,-1.70652e-05,1.60942e-05,2.63043e-05,5.76195e-05,2.04576e-05,2.1455e-05
1227,-2.13008e-06,1.56783e-05,3.54473e-05,5.45582e-05,1.86595e-05,2.56857e-05
1228,9.39834e-06,1.60098e-05,3.88676e-05,5.10886e-05,2.43283e-05,2.62738e-05
1229,9.56589e-06,1.97151e-05,3.50488e-05,4.90596e-05,2.99598e-05,2.24252e-05
1230,-2.75459e-06,2.31064e-05,2.63481e-05,4.91201e-05,2.96671e-05,1.58072e-05
1231,-1.48596e-05,2.083e-05,2.23784e-05,5.05906e-05,2.22711e-05,1.22351e-05
1232,-1.04944e-05,1.47952e-05,2.97091e-05,5.20103e-05,1.29024e-05,1.46423e-05
1233,5.75392e-06,1.05351e-05,4.06218e-05,5.1377e-05,1.07749e-05,1.8395e-05
1234,1.54343e-05,1.12776e-05,4.52843e-05,4.60755e-05,1.72061e-05,1.81493e-05
1235,1.03177e-05,1.6757e-05,4.34198e-05,3.77903e-05,2.39167e-05,1.49201e-05
1236,-3.89807e-06,2.03797e-05,3.70006e-05,3.32222e-05,2.49344e-05,1.22037e-05
1237,-1.61836e-05,1.5108e-05,3.08236e-05,3.63059e-05,1.96886e-05,1.22883e-05
1238,-1.42795e-05,5.35418e-06,3.47787e-05,4.21234e-05,1.11858e-05,1.76963e-05
1239,-8.16421e-07,2.52113e-06,4.59515e-05,4.47044e-05,7.55419e-06,2.49845e-05
1240,9.02903e-06,8.84762e-06,5.13504e-05,4.53523e-05,1.30043e-05,2.66259e-05
1241,5.75716e-06,1.66168e-05,5.01322e-05,4.6824e-05,1.97246e-05,2.14657e-05
1242,-1.04568e-05,1.80026e-05,4.77589e-05,4.86314e-05,2.21964e-05,1.47709e-05
1243,-2.94784e-05,1.27186e-05,4.26144e-05,4.93875e-05,2.20371e-05,9.68903e-06
1244,-2.86429e-05,9.46609e-06,4.1315e-05,4.89741e-05,2.00969e-05,1.00639e-05
1245,-1.04786e-05,1.30422e-05,4.37212e-05,5.00778e-05,1.88531e-05,1.46903e-05
1246,2.68783e-07,1.63613e-05,4.10459e-05,5.38873e-05,2.24821e-05,1.53307e-05
1247,3.18418e-06,1.67084e-05,3.94608e-05,5.5949e-05,2.93029e-05,1.295e-05
1248,4.361e-06,1.61842e-05,4.41268e-05,5.512e-05,3.54113e-05,1.21257e-05
1249,4.02008e-06,1.76929e-05,4.97168e-05,5.24956e-05,3.7471e-05,1.14058e-05
1250,8.30488e-07,2.27378e-05,4.925e-05,5.0599e-05,3.38997e-05,1.00646e-05
1251,-1.18319e-05,2.38761e-05,3.94721e-05,5.17406e-05,2.98265e-05,8.52545e-06
1252,-2.35321e-05,1.86751e-05,2.94219e-05,5.46215e-05,2.72643e-05,9.06752e-06
1253,-2.05817e-05,1.45394e-05,2.96781e-05,5.6812e-05,2.48321e-05,1.12694e-05
1254,-8.58863e-06,1.38571e-05,3.62155e-05,5.61251e-05,2.47811e-05,1.24382e-05
1255,-8.89017e-07,1.45159e-05,4.10603e-05,5.39606e-05,3.01126e-05,1.14336e-05
1256,-3.9339e-06,1.45137e-05,4.05982e-05,5.21295e-05,3.74969e-05,8.75375e-06
1257,-1.6303e-05,1.31072e-05,3.34814e-05,5.09637e-05,4.03775e-05,4.50605e-06
1258,-2.52967e-05,1.01019e-05,2.5556e-05,5.11884e-05,3.51211e-05,1.33612e-06
1259,-1.97735e-05,8.08213e-06,2.47202e-05,5.35914e-05,2.57578e-05,3.23221e-06
1260,-6.67373e-06,9.04836e-06,3.02966e-05,5.67983e-05,2.21276e-05,8.0838e-06
1261,1.39458e-06,1.13894e-05,3.59527e-05,5.93338e-05,2.858e-05,1.05501e-05
1262,1.3278e-06,1.19012e-05,3.84275e-05,5.97766e-05,3.8057e-05,8.56775e-06
1263,-6.19131e-06,9.15432e-06,3.50668e-05,5.75584e-05,4.16585e-05,3.6082e-06
1264,-1.50988e-05,4.42732e-06,2.86849e-05,5.52845e-05,3.76449e-05,-4.864e-07
1265,-1.22753e-05,1.55607e-06,2.96984e-05,5.40333e-05,2.96491e-05,4.80567e-07
1266,6.61429e-07,2.88144e-06,3.83003e-05,5.28907e-05,2.70543e-05,3.90699e-06
1267,7.76212e-06,6.66309e-06,4.20645e-05,5.09653e-05,3.44081e-05,6.28863e-06
1268,1.58579e-06,1.23145e-05,3.81199e-05,4.70554e-05,4.1944e-05,9.50379e-06
1269,-1.28991e-05,1.60778e-05,3.12516e-05,4.33931e-05,4.34339e-05,9.19424e-06
1270,-2.40476e-05,1.34919e-05,2.45114e-05,4.33239e-05,4.01954e-05,1.75417e-06
1271,-1.46868e-05,9.17451e-06,2.7163e-05,4.50382e-05,3.12011e-05,-6.56589e-07
1272,7.61359e-06,1.06191e-05,3.69497e-05,4.62733e-05,2.36525e-05,6.1898e-06
1273,1.54607e-05,1.43457e-05,3.98781e-05,4.71495e-05,2.62242e-05,1.13212e-05
1274,1.01163e-05,1.42152e-05,4.00938e-05,4.85764e-05,3.35284e-05,1.21971e-05
1275,4.91425e-06,1.27849e-05,4.27559e-05,5.14652e-05,3.68615e-05,1.3696e-05
1276,1.33082e-06,1.49918e-05,4.31547e-05,5.34581e-05,3.75589e-05,1.38721e-05
1277,-3.28954e-06,1.63737e-05,4.06467e-05,5.25381e-05,3.77477e-05,1.07369e-05
1278,-1.45408e-05,1.22092e-05,3.54594e-05,5.01179e-05,3.57098e-05,6.59746e-06
1279,-2.31902e-05,6.6644e-06,3.20141e-05,4.7558e-05,2.96478e-05,3.33218e-06
1280,-1.62245e-05,5.62403e-06,3.4681e-05,4.63802e-05,2.33769e-05,3.27635e-06
1281,-2.21042e-07,9.27733e-06,4.14626e-05,4.70341e-05,2.36051e-05,7.38227e-06
1282,7.71188e-06,1.49301e-05,4.54422e-05,4.76458e-05,2.95663e-05,1.24943e-05
1283,1.53744e-06,1.98489e-05,4.03737e-05,4.71152e-05,3.49917e-05,1.31662e-05
1284,-1.41325e-05,1.99835e-05,2.63695e-05,4.63798e-05,3.55024e-05,6.97226e-06
1285,-2.40068e-05,1.64272e-05,1.58479e-05,4.63596e-05,2.96593e-05,1.26061e-06
1286,-1.68966e-05,1.44524e-05,1.96344e-05,4.6862e-05,2.17095e-05,4.62386e-06
1287,-3.1184e-06,1.49022e-05,3.203e-05,4.69251e-05,1.92285e-05,1.36598e-05
1288,1.41258e-06,1.68546e-05,3.9484e-05,4.6908e-05,2.47507e-05,1.73038e-05
1289,-5.15197e-06,1.83154e-05,3.78556e-05,4.82006e-05,3.1966e-05,1.29207e-05
1290,-1.63666e-05,1.44382e-05,3.05602e-05,5.09804e-05,3.33221e-05,6.69659e-06
1291,-2.49361e-05,7.05591e-06,2.31916e-05,5.3568e-05,2.82372e-05,5.48178e-06
1292,-2.15567e-05,4.62696e-06,2.48915e-05,5.41398e-05,2.14098e-05,1.24019e-05
1293,-8.96207e-06,7.9125e-06,3.56903e-05,5.39124e-05,2.08816e-05,2.10466e-05
1294,7.5216e-07,1.22267e-05,4.52065e-05,5.46038e-05,2.85504e-05,2.2441e-05
1295,1.78628e-06,1.7041e-05,4.88703e-05,5.49335e-05,3.54404e-05,1.63733e-05
1296,-7.82087e-06,1.97137e-05,4.5441e-05,5.45973e-05,3.63282e-05,8.88241e-06
1297,-2.33502e-05,1.51383e-05,3.71386e-05,5.47761e-05,3.30242e-05,4.44204e-06
1298,-2.23681e-05,6.87431e-06,3.80604e-05,5.50091e-05,2.4712e-05,7.20414e-06
1299,-4.26363e-06,2.48466e-06,4.76551e-05,5.27311e-05,1.86094e-05,1.39856e-05
1300,5.95074e-06,2.8284e-06,5.004e-05,4.8591e-05,2.45109e-05,1.60466e-05
1301,7.05502e-06,4.46491e-06,4.57937e-05,4.83676e-05,3.47864e-05,1.46034e-05
1302,9.82657e-06,4.76056e-06,4.36315e-05,5.05787e-05,3.77477e-05,1.49477e-05
1303,1.31978e-05,5.70642e-06,4.46987e-05,4.86957e-05,3.49598e-05,1.70656e-05
1304,1.03253e-05,8.75512e-06,4.42797e-05,4.29021e-05,3.23193e-05,1.86252e-05
1305,-2.97977e-06,1.05258e-05,3.76783e-05,4.03194e-05,3.15949e-05,1.65647e-05
1306,-1.48358e-05,9.64241e-06,3.10459e-05,4.38627e-05,2.91649e-05,1.41405e-05
1307,-1.01058e-05,8.67086e-06,3.15571e-05,4.86353e-05,2.42331e-05,1.67446e-05
1308,5.64166e-06,8.83956e-06,3.83435e-05,4.99003e-05,2.23828e-05,2.20736e-05
1309,1.47685e-05,1.14981e-05,4.41987e-05,4.77323e-05,2.68647e-05,2.57962e-05
1310,1.02564e-05,1.3494e-05,4.29087e-05,4.64802e-05,3.19829e-05,2.55019e-05
1311,-4.83323e-06,1.05038e-05,3.29447e-05,4.98498e-05,3.25599e-05,1.90519e-05
1312,-1.71129e-05,5.66308e-06,2.37708e-05,5.61741e-05,2.88393e-05,1.10359e-05
1313,-1.40436e-05,6.48114e-06,2.65757e-05,5.97121e-05,2.3798e-05,1.12973e-05
1314,-1.09248e-06,1.25464e-05,3.65783e-05,5.88736e-05,2.09093e-05,1.93671e-05
1315,5.55865e-06,1.75248e-05,4.35288e-05,5.70272e-05,2.07893e-05,2.57295e-05
1316,-4.95493e-07,1.87864e-05,4.50918e-05,5.76038e-05,2.06856e-05,2.48638e-05
1317,-1.50197e-05,1.7091e-05,4.06529e-05,6.03752e-05,1.81242e-05,1.77784e-05
1318,-2.70265e-05,1.41017e-05,3.30112e-05,6.29649e-05,1.45167e-05,1.12577e-05
1319,-2.39802e-05,1.07401e-05,3.33199e-05,6.32359e-05,1.24292e-05,1.30748e-05
1320,-1.12141e-05,8.25061e-06,4.23442e-05,6.10037e-05,1.57589e-05,2.02368e-05
1321,-3.34385e-06,8.98779e-06,4.83097e-05,5.73314e-05,2.45146e-05,2.32518e-05
1322,-3.12993e-06,1.25924e-05,4.65023e-05,5.28753e-05,3.06168e-05,1.96467e-05
1323,-1.15053e-05,1.46268e-05,3.87832e-05,4.95517e-05,2.84663e-05,1.3847e-05
1324,-2.57099e-05,1.34476e-05,3.10816e-05,5.0816e-05,2.31692e-05,1.09822e-05
1325,-2.49096e-05,1.23245e-05,3.4893e-05,5.48593e-05,1.89878e-05,1.39714e-05
1326,-1.03666e-05,1.37348e-05,4.30045e-05,5.42928e-05,2.01886e-05,1.93176e-05
1327,-5.42489e-06,1.57099e-05,4.37767e-05,5.00565e-05,2.90919e-05,2.07801e-05
1328,-8.01264e-06,1.41e-05,4.70697e-05,4.75611e-05,3.77031e-05,2.17246e-05
1329,-7.21129e-06,1.13816e-05,5.40351e-05,4.64059e-05,4.14661e-05,2.29201e-05
1330,-2.80471e-06,1.56763e-05,5.70399e-05,4.54846e-05,4.27112e-05,2.10643e-05
1331,1.39392e-06,2.47687e-05,5.42751e-05,4.66313e-05,4.13753e-05,1.95271e-05
1332,-4.48869e-06,2.95021e-05,4.25642e-05,5.14382e-05,3.80744e-05,1.74297e-05
1333,-1.3912e-05,2.62729e-05,2.96034e-05,5.68443e-05,3.17184e-05,1.28417e-05
1334,-1.06364e-05,2.18971e-05,2.88128e-05,5.81788e-05,2.20505e-05,1.01706e-05
1335,2.15464e-06,2.17714e-05,3.72356e-05,5.63672e-05,1.87252e-05,1.28586e-05
1336,9.92816e-06,2.47033e-05,4.11615e-05,5.52376e-05,2.62414e-05,1.73867e-05
1337,6.40617e-06,2.46606e-05,3.79013e-05,5.60739e-05,3.5378e-05,1.86221e-05
1338,-6.24663e-06,1.88149e-05,2.8969e-05,5.7972e-05,3.86418e-05,1.53012e-05
1339,-1.58797e-05,1.20481e-05,2.17972e-05,5.90517e-05,3.48802e-05,1.29677e-05
1340,-9.84381e-06,1.09518e-05,2.53057e-05,5.71747e-05,2.88747e-05,1.62204e-05
1341,6.08401e-06,1.42605e-05,3.64401e-05,5.37382e-05,2.86272e-05,1.90201e-05
1342,1.54691e-05,1.61656e-05,4.47484e-05,5.20322e-05,3.40973e-05,1.59066e-05
1343,1.17237e-05,1.56989e-05,4.44475e-05,5.30853e-05,3.74544e-05,1.16691e-05
1344,-1.89676e-06,1.38935e-05,3.61352e-05,5.65892e-05,3.6315e-05,9.18373e-06
1345,-1.51826e-05,1.10622e-05,2.80942e-05,5.9759e-05,3.21751e-05,7.02246e-06
1346,-1.36269e-05,9.3569e-06,3.15664e-05,5.85463e-05,2.43403e-05,9.01703e-06
1347,7.56354e-07,1.07981e-05,4.17084e-05,5.41134e-05,1.95021e-05,1.58807e-05
1348,1.10344e-05,1.28626e-05,4.6841e-05,5.11982e-05,2.45326e-05,2.10095e-05
1349,8.93376e-06,1.40536e-05,4.44263e-05,4.99773e-05,3.24181e-05,2.07757e-05
1350,-3.37303e-06,1.19515e-05,3.40604e-05,4.87915e-05,3.4913e-05,1.48109e-05
1351,-1.74863e-05,8.93038e-06,2.03601e-05,4.99613e-05,3.24814e-05,4.23484e-06
1352,-1.45097e-05,1.03834e-05,2.08151e-05,5.48726e-05,2.76321e-05,-3.91726e-07
1353,1.46296e-06,1.27785e-05,3.18459e-05,5.92968e-05,2.39666e-05,5.8427e-06
1354,5.58297e-06,1.14703e-05,3.39932e-05,6.00886e-05,2.5003e-05,1.20552e-05
1355,1.91553e-06,9.15272e-06,3.04119e-05,5.7629e-05,2.95017e-05,1.31601e-05
1356,1.7243e-06,7.68612e-06,3.22544e-05,5.48748e-05,3.34834e-05,1.27525e-05
1357,1.20761e-06,1.02398e-05,3.6979e-05,5.43501e-05,3.46e-05,1.44177e-05
1358,-2.43116e-06,1.53758e-05,3.77886e-05,5.1718e-05,3.52421e-05,1.62903e-05
1359,-1.18268e-05,1.54578e-05,3.26349e-05,4.85946e-05,3.7336e-05,1.42488e-05
1360,-1.82792e-05,1.06461e-05,2.89699e-05,4.98519e-05,3.63017e-05,1.21694e-05
1361,-1.14723e-05,6.90883e-06,3.30855e-05,5.22295e-05,2.95705e-05,1.50272e-05
1362,1.04543e-06,6.11437e-06,3.9307e-05,5.18033e-05,2.34659e-05,1.9322e-05
1363,5.82915e-06,9.1894e-06,4.12056e-05,4.85539e-05,2.48907e-05,1.80995e-05
1364,4.81615e-07,1.43103e-05,3.8524e-05,4.55006e-05,2.9827e-05,1.24002e-05
1365,-1.06388e-05,1.52318e-05,3.12738e-05,4.44505e-05,3.19155e-05,6.47323e-06
1366,-1.87523e-05,1.07246e-05,2.58874e-05,4.55578e-05,2.88592e-05,3.33618e-06
1367,-1.64974e-05,6.77624e-06,3.09514e-05,4.63927e-05,2.39898e-05,6.02644e-06
1368,-7.54154e-06,7.15151e-06,4.28485e-05,4.62221e-05,2.52836e-05,1.27209e-05
1369,-3.92897e-07,8.81722e-06,5.09479e-05,4.64525e-05,3.38079e-05,1.7051e-05
1370,-2.84167e-07,9.25329e-06,5.12593e-05,4.68147e-05,4.09025e-05,1.4419e-05
1371,-9.56213e-06,8.69318e-06,4.41442e-05,4.61383e-05,4.12808e-05,6.50102e-06
1372,-2.26257e-05,8.15868e-06,3.56783e-05,4.49236e-05,3.63082e-05,4.76403e-07
1373,-2.37223e-05,8.38363e-06,3.74493e-05,4.55508e-05,2.94955e-05,2.00169e-06
1374,-1.03522e-05,8.26952e-06,4.73718e-05,4.7636e-05,2.70689e-05,9.04812e-06
1375,1.28914e-06,8.27408e-06,5.35402e-05,4.79894e-05,3.13238e-05,1.48942e-05
1376,7.86677e-07,1.04628e-05,5.21639e-05,4.5239e-05,3.70294e-05,1.56949e-05
1377,-1.26744e-05,1.17397e-05,4.50564e-05,4.11396e-05,3.87437e-05,1.20198e-05
1378,-3.06066e-05,1.03243e-05,3.54125e-05,3.98303e-05,3.47102e-05,6.44344e-06
1379,-3.02256e-05,1.03678e-05,3.41373e-05,4.18953e-05,2.6202e-05,5.28314e-06
1380,-1.30595e-05,1.21737e-05,4.08498e-05,4.5286e-05,1.96391e-05,8.70567e-06
1381,-4.10779e-06,1.18221e-05,4.16467e-05,4.88479e-05,2.17658e-05,8.07234e-06
1382,-3.10459e-06,9.45733e-06,3.8766e-05,4.89374e-05,3.0355e-05,4.78572e-06
1383,-2.80432e-06,6.24509e-06,3.97411e-05,4.70922e-05,3.92255e-05,6.42303e-06
1384,-4.02611e-06,5.1805e-06,4.23734e-05,4.852e-05,4.34444e-05,1.13033e-05
1385,-5.99254e-06,5.84388e-06,4.05923e-05,5.0847e-05,4.24647e-05,1.29154e-05
1386,-1.48455e-05,3.23242e-06,2.9914e-05,4.91149e-05,3.94797e-05,9.47625e-06
1387,-2.30313e-05,-1.65505e-06,2.28562e-05,4.57306e-05,3.39037e-05,6.48581e-06
1388,-1.48301e-05,-1.26764e-06,3.04972e-05,4.43243e-05,2.78935e-05,7.73132e-06
1389,2.91604e-06,4.44362e-06,4.23295e-05,4.59517e-05,2.68218e-05,1.12728e-05
1390,1.17772e-05,8.23351e-06,4.55123e-05,4.88211e-05,3.307e-05,1.45564e-05
1391,6.13775e-06,7.93775e-06,4.05122e-05,5.01442e-05,3.87331e-05,1.64657e-05
1392,-9.32454e-06,6.24078e-06,3.14437e-05,4.95721e-05,3.77766e-05,1.44475e-05
1393,-1.95727e-05,6.2175e-06,2.55121e-05,5.11499e-05,3.06756e-05,9.33581e-06
1394,-1.25695e-05,7.90637e-06,2.97493e-05,5.68961e-05,2.23238e-05,6.66985e-06
1395,2.12778e-06,9.99168e-06,4.0088e-05,6.07052e-05,2.01635e-05,9.24927e-06
1396,8.41159e-06,1.24023e-05,4.53835e-05,5.85556e-05,2.49939e-05,1.33593e-05
1397,3.95649e-06,1.44288e-05,4.11928e-05,5.35188e-05,2.81568e-05,1.29075e-05
1398,-5.89678e-06,1.34226e-05,3.0703e-05,5.01438e-05,2.52117e-05,7.14413e-06
1399,-1.38697e-05,7.83019e-06,2.28438e-05,4.96431e-05,2.02702e-05,1.66588e-06
1400,-9.65426e-06,1.26149e-06,2.72298e-05,5.09818e-05,1.49271e-05,3.0439e-06
1401,3.76159e-06,2.25616e-08,3.7249e-05,5.18967e-05,1.3526e-05,1.02791e-05
1402,1.09581e-05,4.77776e-06,3.88628e-05,5.22942e-05,1.93313e-05,1.57307e-05
1403,5.46614e-06,1.19653e-05,3.16298e-05,5.25718e-05,2.93389e-05,1.39639e-05
1404,-8.86578e-06,1.69378e-05,2.29536e-05,5.24918e-05,3.74625e-05,6.89861e-06
1405,-2.44633e-05,1.88012e-05,1.68468e-05,5.23129e-05,3.46039e-05,1.61335e-06
1406,-2.20898e-05,2.05535e-05,2.23729e-05,5.20773e-05,2.13042e-05,4.50732e-06
1407,-4.88652e-06,2.05207e-05,3.74666e-05,5.32194e-05,1.20469e-05,1.25037e-05
1408,1.8088e-06,1.7612e-05,4.34691e-05,5.42686e-05,1.46377e-05,1.68514e-05
1409,2.7227e-07,1.38762e-05,3.92776e-05,5.28454e-05,2.46279e-05,1.61472e-05
1410,-2.36726e-07,1.17083e-05,3.4749e-05,5.11606e-05,3.19484e-05,1.25566e-05
1411,4.31413e-08,1.36178e-05,3.38721e-05,5.0193e-05,3.14427e-05,9.98708e-06
1412,-1.92587e-06,1.81006e-05,3.3636e-05,4.90186e-05,2.62817e-05,9.9492e-06
1413,-1.24586e-05,2.09178e-05,2.73632e-05,4.90919e-05,2.32746e-05,6.65197e-06
1414,-2.18802e-05,1.86694e-05,2.30579e-05,5.00113e-05,2.02573e-05,2.09948e-06
1415,-1.62142e-05,1.45963e-05,2.93656e-05,4.98036e-05,1.52147e-05,2.8751e-06
1416,-2.08114e-06,1.28448e-05,4.06596e-05,5.00919e-05,1.49253e-05,7.33869e-06
1417,4.73409e-06,1.41557e-05,4.53152e-05,5.10097e-05,2.10274e-05,9.33437e-06
1418,6.71183e-07,1.66394e-05,3.9573e-05,5.14064e-05,2.58875e-05,8.65409e-06
1419,-1.08532e-05,1.62811e-05,2.73127e-05,5.1326e-05,2.6385e-05,8.13033e-06
1420,-1.94554e-05,1.33693e-05,1.85467e-05,5.03951e-05,2.36122e-05,9.16609e-06
1421,-1.41212e-05,1.05829e-05,2.28834e-05,4.91977e-05,1.76932e-05,1.27065e-05
1422,2.16467e-07,9.11976e-06,3.57048e-05,4.91002e-05,1.46497e-05,1.64117e-05
1423,8.85496e-06,1.07657e-05,4.41133e-05,5.07344e-05,1.92985e-05,1.70337e-05
1424,4.58726e-06,1.45103e-05,4.3525e-05,5.27208e-05,2.66336e-05,1.47813e-05
1425,-1.08486e-05,1.57136e-05,3.61884e-05,5.43293e-05,2.97389e-05,1.18528e-05
1426,-2.48823e-05,1.34318e-05,2.72392e-05,5.67006e-05,2.69177e-05,9.09006e-06
1427,-2.11899e-05,9.97292e-06,2.74132e-05,5.84258e-05,2.00267e-05,9.34564e-06
1428,-5.03633e-06,8.9243e-06,3.67962e-05,5.65458e-05,1.62874e-05,1.30676e-05
1429,4.04012e-06,1.33204e-05,4.20469e-05,5.16822e-05,2.09462e-05,1.54636e-05
1430,1.78909e-07,2.02332e-05,3.88827e-05,4.63377e-05,2.92946e-05,1.49942e-05
1431,-1.05655e-05,2.13364e-05,3.18453e-05,4.36193e-05,3.4809e-05,1.32977e-05
1432,-2.01019e-05,1.53273e-05,2.61239e-05,4.45095e-05,3.56558e-05,9.59346e-06
1433,-1.49731e-05,1.05141e-05,3.01694e-05,4.75994e-05,2.86045e-05,9.15115e-06
1434,-1.26749e-06,1.12329e-05,4.05328e-05,4.96628e-05,2.12442e-05,1.42835e-05
1435,2.74326e-06,1.3589e-05,4.65647e-05,4.92241e-05,2.46617e-05,1.5536e-05
1436,3.62846e-06,1.41034e-05,5.14073e-05,4.99952e-05,3.27387e-05,1.42278e-05
1437,6.59884e-06,1.27277e-05,5.48107e-05,5.17932e-05,3.63842e-05,1.74884e-05
1438,6.98977e-06,1.14118e-05,5.0859e-05,5.10159e-05,3.61728e-05,2.1695e-05
1439,2.81933e-06,1.26381e-05,4.37153e-05,4.84858e-05,3.54197e-05,2.14086e-05
1440,-1.00124e-05,1.3328e-05,3.44672e-05,4.77715e-05,3.39227e-05,1.45608e-05
1441,-1.90971e-05,1.13961e-05,2.89606e-05,4.79648e-05,3.02777e-05,8.25307e-06
1442,-1.10148e-05,9.90643e-06,3.36755e-05,4.6572e-05,2.65301e-05,9.89513e-06
1443,3.43422e-06,1.12208e-05,4.38376e-05,4.69815e-05,2.79578e-05,1.5168e-05
1444,8.13124e-06,1.59158e-05,4.95704e-05,4.98117e-05,3.47823e-05,1.7405e-05
1445,2.67482e-06,2.0064e-05,4.66912e-05,5.13822e-05,3.89573e-05,1.54055e-05
1446,-9.06813e-06,1.89418e-05,3.68792e-05,5.04709e-05,3.73994e-05,1.19173e-05
1447,-1.73893e-05,1.32993e-05,2.77263e-05,4.94896e-05,3.09825e-05,9.37071e-06
1448,-1.20359e-05,8.92286e-06,2.9408e-05,5.01185e-05,2.28393e-05,9.39653e-06
1449,1.46057e-06,9.62305e-06,4.05165e-05,5.10001e-05,1.95633e-05,1.12685e-05
1450,8.06888e-06,1.53364e-05,5.06558e-05,5.16998e-05,2.31353e-05,1.33332e-05
1451,2.73228e-06,2.1798e-05,5.17954e-05,5.20258e-05,2.7774e-05,1.39916e-05
1452,-1.0273e-05,2.39071e-05,4.22606e-05,5.085e-05,2.84372e-05,1.162e-05
1453,-2.22363e-05,2.16542e-05,2.90362e-05,4.93001e-05,2.35453e-05,8.60318e-06
1454,-2.01147e-05,1.87435e-05,2.80892e-05,5.1069e-05,1.62387e-05,9.40419e-06
1455,-5.12567e-06,1.77485e-05,4.08248e-05,5.52261e-05,1.44071e-05,1.29427e-05
1456,6.55548e-06,1.85568e-05,5.09685e-05,5.63931e-05,1.98162e-05,1.57516e-05
1457,5.56238e-06,1.89323e-05,4.89684e-05,5.32285e-05,2.59684e-05,1.73276e-05
1458,-7.47455e-06,1.64633e-05,3.99447e-05,5.09513e-05,2.91502e-05,1.62533e-05
1459,-2.36865e-05,1.28812e-05,3.25915e-05,5.10785e-05,2.77218e-05,9.83445e-06
1460,-2.07443e-05,1.1636e-05,3.56176e-05,5.02201e-05,2.0395e-05,5.03758e-06
1461,-2.88474e-06,1.35876e-05,4.49544e-05,4.89331e-05,1.50282e-05,8.31567e-06
1462,2.57201e-06,1.54535e-05,4.74772e-05,4.98675e-05,1.62553e-05,1.43266e-05
1463,-1.71444e-06,1.38761e-05,4.68724e-05,5.40523e-05,2.21958e-05,1.81111e-05
1464,-8.75538e-07,1.04374e-05,4.66588e-05,5.74432e-05,2.71751e-05,1.88832e-05
1465,4.26993e-06,1.07929e-05,4.35583e-05,5.44147e-05,2.82855e-05,1.92205e-05
1466,3.08942e-06,1.68541e-05,3.92031e-05,4.86854e-05,2.76117e-05,1.67645e-05
1467,-1.2921e-05,2.12743e-05,3.21654e-05,4.74023e-05,2.80444e-05,1.06984e-05
1468,-2.82197e-05,1.81139e-05,2.72643e-05,5.02527e-05,3.05083e-05,7.59797e-06
1469,-2.22168e-05,1.31319e-05,3.18805e-05,5.28378e-05,3.08755e-05,1.04613e-05
1470,-2.21226e-06,1.21769e-05,4.02351e-05,5.38164e-05,3.1014e-05,1.58749e-05
1471,9.35246e-06,1.52815e-05,4.3019e-05,5.31821e-05,3.61057e-05,1.90683e-05
1472,4.81918e-06,2.00519e-05,3.88939e-05,5.06427e-05,4.16075e-05,1.73746e-05
1473,-8.07548e-06,2.07216e-05,3.08754e-05,4.72137e-05,4.0754e-05,1.06726e-05
1474,-1.57852e-05,1.58624e-05,2.54065e-05,4.47691e-05,3.31937e-05,5.13171e-06
1475,-1.04865e-05,1.09453e-05,2.94568e-05,4.50787e-05,2.54288e-05,7.26598e-06
1476,2.17497e-06,1.0645e-05,4.02416e-05,4.81554e-05,2.4854e-05,1.38833e-05
1477,8.99196e-06,1.564e-05,4.73534e-05,5.22676e-05,3.22528e-05,1.72564e-05
1478,3.73741e-06,2.07977e-05,4.48182e-05,5.38326e-05,3.85498e-05,1.5661e-05
1479,-9.29709e-06,1.80866e-05,3.24907e-05,5.29842e-05,3.6887e-05,1.16423e-05
1480,-2.00854e-05,9.01358e-06,1.88621e-05,5.29133e-05,3.03814e-05,9.57679e-06
1481,-1.72676e-05,4.73952e-06,1.94786e-05,5.40058e-05,2.39531e-05,1.21919e-05
1482,-3.39463e-06,8.9019e-06,3.35065e-05,5.6361e-05,2.05009e-05,1.73304e-05
1483,6.9074e-06,1.56249e-05,4.28631e-05,6.05669e-05,2.15858e-05,2.06152e-05
1484,7.03935e-06,2.09166e-05,4.04841e-05,6.286e-05,2.57896e-05,2.00283e-05
1485,-3.18735e-06,2.12472e-05,3.36533e-05,6.03284e-05,2.97373e-05,1.55763e-05
1486,-1.79639e-05,1.47159e-05,2.86631e-05,5.66224e-05,2.94597e-05,9.25641e-06
1487,-1.8184e-05,7.37964e-06,3.1972e-05,5.62541e-05,2.25316e-05,8.52349e-06
1488,-4.4554e-06,4.83418e-06,3.91924e-05,6.02102e-05,1.70378e-05,1.25844e-05
1489,3.65435e-06,7.72827e-06,4.01548e-05,6.45998e-05,2.2385e-05,1.39674e-05
1490,4.80899e-06,1.17806e-05,4.12752e-05,6.50747e-05,3.39877e-05,1.40584e-05
1491,5.1493e-06,1.47181e-05,4.52274e-05,6.11753e-05,3.81729e-05,1.45729e-05
1492,4.24414e-06,2.04069e-05,4.54469e-05,5.64646e-05,3.39659e-05,1.38033e-05
1493,-4.7507e-08,2.53768e-05,4.15616e-05,5.4236e-05,3.15885e-05,1.1333e-05
1494,-1.12112e-05,2.40109e-05,3.45747e-05,5.50445e-05,3.24841e-05,7.78485e-06
1495,-2.07991e-05,1.79872e-05,2.90089e-05,5.69126e-05,2.99898e-05,5.96914e-06
1496,-1.62393e-05,1.25814e-05,3.2226e-05,5.74636e-05,2.39082e-05,1.14739e-05
1497,-2.88251e-06,9.66329e-06,4.29647e-05,5.7862e-05,2.21842e-05,2.06216e-05
1498,4.9881e-06,9.11197e-06,5.08106e-05,5.84667e-05,2.75183e-05,2.35116e-05
1499,3.0519e-06,1.14228e-05,4.88975e-05,5.81552e-05,3.16045e-05,1.90831e-05
1500,-7.37513e-06,1.33762e-05,3.69957e-05,5.58284e-05,2.99121e-05,1.17288e-05
1501,-1.66385e-05,1.30403e-05,2.48701e-05,5.27681e-05,2.55464e-05,7.5103e-06
1502,-1.33156e-05,1.09858e-05,2.54289e-05,5.1095e-05,2.2023e-05,9.85138e-06
1503,-3.25116e-07,8.38357e-06,3.64376e-05,4.95225e-05,2.34439e-05,1.58845e-05
1504,7.48932e-06,7.10503e-06,4.30655e-05,4.65093e-05,3.13954e-05,1.99368e-05
1505,1.21577e-06,9.04908e-06,3.97323e-05,4.47426e-05,3.88247e-05,1.92955e-05
1506,-1.53843e-05,1.1717e-05,3.1469e-05,4.83549e-05,3.98113e-05,1.37501e-05
1507,-2.75678e-05,1.00485e-05,2.58041e-05,5.61868e-05,3.47897e-05,8.16178e-06
1508,-2.11194e-05,5.42843e-06,2.97197e-05,6.17449e-05,2.57937e-05,1.06528e-05
1509,-4.21151e-06,1.8707e-06,3.9874e-05,6.05041e-05,2.09408e-05,2.00096e-05
1510,3.83518e-06,1.38557e-06,4.42879e-05,5.53257e-05,2.59957e-05,2.59813e-05
1511,-1.07239e-06,5.37002e-06,4.03797e-05,5.15534e-05,3.06304e-05,2.4303e-05
1512,-1.40819e-05,8.71013e-06,3.31508e-05,5.09046e-05,2.80315e-05,1.90495e-05
1513,-2.87843e-05,5.6711e-06,2.40215e-05,5.06016e-05,2.42217e-05,1.45178e-05
1514,-2.55995e-05,1.4591e-06,2.23887e-05,4.97674e-05,1.89922e-05,1.39006e-05
1515,-5.98689e-06,1.76079e-06,2.92281e-05,5.03277e-05,1.59865e-05,1.48703e-05
1516,4.29815e-06,5.03762e-06,3.37187e-05,5.00847e-05,2.20783e-05,1.20656e-05
1517,2.33996e-06,8.25061e-06,3.72818e-05,4.60084e-05,3.10758e-05,9.15959e-06
1518,-6.67019e-07,1.1483e-05,4.08056e-05,3.943e-05,3.40409e-05,1.01377e-05
1519,-1.20237e-06,1.50794e-05,4.20136e-05,3.64839e-05,3.29143e-05,1.22824e-05
1520,-4.03114e-06,1.85618e-05,4.03062e-05,3.91431e-05,3.34851e-05,1.23278e-05
1521,-1.46575e-05,1.84082e-05,3.3028e-05,4.28398e-05,3.43328e-05,9.01502e-06
1522,-2.12271e-05,1.23184e-05,2.78705e-05,4.61831e-05,3.09853e-05,6.08245e-06
1523,-1.14716e-05,5.149e-06,3.41942e-05,4.72811e-05,2.55593e-05,7.42185e-06
1524,4.42778e-06,2.11383e-06,4.671e-05,4.56996e-05,2.58139e-05,1.1275e-05
1525,9.84579e-06,4.49463e-06,5.33651e-05,4.29548e-05,3.28445e-05,1.32757e-05
1526,1.72859e-06,1.02385e-05,5.0084e-05,4.1944e-05,3.93143e-05,1.28182e-05
1527,-1.41445e-05,1.26164e-05,3.97427e-05,4.34521e-05,4.08939e-05,1.07353e-05
1528,-2.29066e-05,7.39555e-06,3.12133e-05,4.49509e-05,3.57132e-05,8.2768e-06
1529,-1.45637e-05,-1.71535e-07,3.31172e-05,4.45166e-05,2.64029e-05,7.31729e-06
1530,1.16564e-06,-4.98991e-06,4.27925e-05,4.31288e-05,2.18737e-05,7.9237e-06
1531,9.85743e-06,-5.53576e-06,4.97682e-05,4.36155e-05,2.69088e-05,9.12153e-06
1532,9.45134e-06,-2.97338e-06,4.89746e-05,4.64424e-05,3.34536e-05,8.55817e-06
1533,2.23039e-06,-2.39657e-07,3.95112e-05,5.04665e-05,3.40548e-05,3.23815e-06
1534,-5.58647e-06,4.63362e-07,2.8103e-05,5.38516e-05,3.02941e-05,-3.43753e-06
1535,-1.59401e-06,1.65718e-06,2.88201e-05,5.56268e-05,2.52048e-05,-4.26454e-06
1536,1.10514e-05,4.7674e-06,3.99754e-05,5.52464e-05,2.29149e-05,6.70415e-07
1537,1.62506e-05,8.46549e-06,4.73844e-05,5.44349e-05,2.65673e-05,5.84117e-06
1538,7.03593e-06,1.38519e-05,4.63371e-05,5.40232e-05,3.0364e-05,7.55489e-06
1539,-1.39287e-05,1.89771e-05,3.76418e-05,5.36393e-05,2.87268e-05,5.15513e-06
1540,-3.38763e-05,1.84513e-05,2.59973e-05,5.29609e-05,2.39938e-05,9.88708e-07
1541,-2.99598e-05,1.47498e-05,2.54112e-05,5.31081e-05,1.69501e-05,2.32387e-08
1542,-8.34057e-06,1.43797e-05,3.33612e-05,5.42107e-05,1.03126e-05,2.43552e-06
1543,2.44991e-06,1.64279e-05,3.58093e-05,5.46104e-05,1.20418e-05,4.03762e-06
1544,3.19758e-06,1.8949e-05,3.68517e-05,5.41226e-05,2.22132e-05,2.66511e-06
1545,3.45915e-06,2.12033e-05,3.93672e-05,5.31256e-05,3.13613e-05,1.63459e-07
1546,1.36568e-06,2.29655e-05,3.79371e-05,5.24558e-05,3.49076e-05,1.09834e-06
1547,-4.42894e-06,2.24759e-05,3.34536e-05,5.38559e-05,3.33921e-05,4.2499e-06
1548,-1.75485e-05,1.89457e-05,2.67496e-05,5.65876e-05,3.03492e-05,5.01513e-06
1549,-2.78526e-05,1.47157e-05,2.32348e-05,5.75393e-05,2.58437e-05,4.05685e-06
1550,-2.08016e-05,1.30162e-05,2.92702e-05,5.57007e-05,2.16378e-05,4.95588e-06
1551,-2.58171e-06,1.49081e-05,3.88687e-05,5.15175e-05,2.56981e-05,8.59605e-06
1552,9.91894e-06,1.97002e-05,4.12408e-05,4.71483e-05,3.50783e-05,1.35036e-05
1553,9.99325e-06,2.44929e-05,3.49996e-05,4.60695e-05,3.95909e-05,1.61466e-05
1554,-2.10511e-06,2.30777e-05,2.42006e-05,4.8739e-05,3.87384e-05,1.36728e-05
1555,-1.43881e-05,1.38297e-05,1.89987e-05,5.36321e-05,3.47062e-05,1.14634e-05
1556,-1.17521e-05,4.81227e-06,2.82548e-05,5.92376e-05,2.9814e-05,1.50802e-05
1557,2.80465e-06,4.48478e-06,4.48369e-05,6.37029e-05,2.91627e-05,1.98199e-05
1558,1.33502e-05,1.13727e-05,5.45642e-05,6.40036e-05,3.36423e-05,2.00411e-05
1559,1.22671e-05,1.73398e-05,5.32353e-05,5.90978e-05,3.73652e-05,1.75485e-05
1560,1.0644e-06,1.69969e-05,4.32753e-05,5.29013e-05,3.86703e-05,1.40715e-05
1561,-1.13539e-05,1.20133e-05,3.15176e-05,4.91371e-05,3.86453e-05,9.5221e-06
1562,-1.12044e-05,8.01089e-06,3.01879e-05,4.78496e-05,3.31365e-05,7.08857e-06
1563,1.32765e-06,7.7143e-06,3.93801e-05,4.8525e-05,2.58781e-05,8.58502e-06
1564,1.34101e-05,1.07706e-05,4.6514e-05,5.14094e-05,2.71153e-05,1.13553e-05
1565,1.3696e-05,1.72557e-05,4.71104e-05,5.43559e-05,3.37876e-05,1.43241e-05
1566,-1.77558e-06,2.04582e-05,4.26758e-05,5.36911e-05,3.68267e-05,1.58416e-05
1567,-2.1602e-05,1.45555e-05,3.50782e-05,4.86577e-05,3.38485e-05,1.41985e-05
1568,-2.15119e-05,8.42603e-06,3.30561e-05,4.33206e-05,2.5796e-05,1.40618e-05
1569,-7.27677e-06,6.52414e-06,3.77682e-05,4.22666e-05,2.18129e-05,1.77e-05
1570,-2.43936e-06,5.69223e-06,3.94269e-05,4.46804e-05,2.84412e-05,1.89526e-05
