Time_Index,DELTOID_Affected,DELTOID_NonAffected,BICEPS_Affected,BICEPS_NonAffected,FOREARM_Affected,FOREARM_NonAffected
1,1.80962e-05,-1.56693e-05,4.5923e-05,4.84345e-05,1.14485e-05,-1.30602e-05
2,1.61715e-05,-8.75576e-06,5.14862e-05,3.04836e-05,1.83304e-05,-1.10323e-05
3,1.52412e-05,9.75784e-06,7.58387e-05,9.67072e-06,1.27393e-05,-1.43391e-05
4,1.55735e-05,2.12732e-05,9.03575e-05,8.23053e-06,-7.00395e-07,-2.1322e-05
5,1.447e-05,1.79539e-05,8.0894e-05,2.68298e-05,-2.08517e-05,-2.74522e-05
6,1.11929e-05,1.20235e-06,6.93347e-05,5.0439e-05,-5.84578e-05,-2.69756e-05
7,1.17278e-05,-1.60441e-05,7.91008e-05,5.62337e-05,-0.00011085,-1.87036e-05
8,1.55226e-05,-1.42137e-05,9.05768e-05,3.66519e-05,-0.000141736,-8.17056e-06
9,1.74095e-05,4.79592e-06,8.20728e-05,1.64847e-05,-0.000127631,-1.46105e-06
10,1.48263e-05,1.94396e-05,7.31493e-05,1.57817e-05,-7.81697e-05,2.22299e-07
11,7.93002e-06,1.62769e-05,8.25281e-05,2.68222e-05,-4.49333e-06,-2.28614e-08
12,1.0598e-06,-7.208e-06,9.55025e-05,4.08049e-05,7.69716e-05,7.69584e-08
13,-1.5597e-06,-3.20706e-05,9.92195e-05,4.92313e-05,0.000129965,-1.23323e-06
14,1.47016e-06,-2.31821e-05,9.25283e-05,4.30829e-05,0.000121752,-2.97592e-06
15,7.37882e-06,5.59779e-06,8.08282e-05,3.67881e-05,5.4102e-05,-3.18258e-06
16,1.11922e-05,1.51026e-05,7.63537e-05,4.04355e-05,-2.77418e-05,-2.36346e-06
17,1.13759e-05,9.91872e-06,8.44003e-05,4.36159e-05,-7.03357e-05,-8.96577e-07
18,1.15285e-05,4.62838e-06,9.04999e-05,4.43687e-05,-5.07718e-05,-4.38548e-06
19,1.30442e-05,9.83009e-07,8.3579e-05,4.33779e-05,9.22085e-06,-1.47807e-05
20,1.44152e-05,-7.98994e-06,7.24433e-05,4.58075e-05,6.37496e-05,-2.31862e-05
21,1.54642e-05,-2.85787e-05,6.41798e-05,5.51869e-05,8.4021e-05,-2.45057e-05
22,1.59579e-05,-3.93445e-05,6.19675e-05,5.3648e-05,7.6144e-05,-2.10871e-05
23,1.44763e-05,-2.29558e-05,7.08428e-05,3.82466e-05,6.10858e-05,-1.55648e-05
24,1.26821e-05,5.24328e-07,8.82383e-05,3.18691e-05,4.09616e-05,-9.87292e-06
25,1.29253e-05,7.33701e-06,9.68316e-05,4.13344e-05,8.01259e-06,-7.38201e-06
26,1.48928e-05,-3.96008e-06,8.8673e-05,5.69832e-05,-1.92066e-05,-8.00738e-06
27,1.62399e-05,-2.35602e-05,6.97786e-05,7.06037e-05,-1.01403e-05,-9.52144e-06
28,1.52413e-05,-3.32925e-05,5.61504e-05,7.10631e-05,3.05758e-05,-1.13797e-05
29,1.40373e-05,-2.17932e-05,5.85699e-05,5.55184e-05,5.66986e-05,-1.17315e-05
30,1.27065e-05,-4.98701e-07,7.03421e-05,4.01357e-05,4.54936e-05,-9.73528e-06
31,1.09838e-05,1.1063e-05,7.3911e-05,3.80621e-05,2.53479e-05,-8.26647e-06
32,1.02788e-05,6.29049e-06,6.3021e-05,4.75979e-05,2.17367e-05,-8.75594e-06
33,1.18192e-05,-9.65268e-06,5.48667e-05,6.27957e-05,2.92032e-05,-7.96508e-06
34,1.45268e-05,-2.12287e-05,6.23098e-05,6.71513e-05,3.7347e-05,-3.07753e-06
35,1.64492e-05,-1.22716e-05,6.60867e-05,4.79059e-05,4.41819e-05,2.1784e-06
36,1.57271e-05,6.81077e-06,5.30621e-05,2.40543e-05,4.65339e-05,-3.45965e-07
37,1.40468e-05,1.2177e-05,3.9868e-05,1.77429e-05,4.13086e-05,-1.12764e-05
38,1.17423e-05,3.57997e-07,5.1252e-05,2.67134e-05,2.95248e-05,-2.00492e-05
39,1.00017e-05,-2.17898e-05,7.56622e-05,4.31746e-05,2.22903e-05,-1.82999e-05
40,1.09014e-05,-4.07113e-05,8.77118e-05,5.4437e-05,2.16258e-05,-1.10399e-05
41,1.37243e-05,-3.01251e-05,7.78707e-05,4.5917e-05,2.33648e-05,-7.60881e-06
42,1.74988e-05,-3.46946e-06,5.52194e-05,3.20638e-05,3.31002e-05,-1.02782e-05
43,2.03446e-05,3.98524e-06,3.74883e-05,3.08462e-05,5.91838e-05,-1.35726e-05
44,1.91356e-05,2.36174e-06,3.52797e-05,3.33992e-05,9.25802e-05,-1.20054e-05
45,1.5652e-05,6.08914e-06,4.18534e-05,3.48948e-05,0.000108157,-8.62268e-06
46,1.36854e-05,7.68464e-06,4.58033e-05,3.51158e-05,9.5803e-05,-8.78466e-06
47,1.20075e-05,-1.36623e-06,4.51466e-05,3.48894e-05,7.4811e-05,-1.04565e-05
48,1.03604e-05,-2.23446e-05,3.60585e-05,3.69465e-05,6.6728e-05,-9.20844e-06
49,1.00739e-05,-3.3832e-05,2.40415e-05,3.08619e-05,6.41656e-05,-6.26174e-06
50,9.09302e-06,-1.90656e-05,2.42122e-05,1.5673e-05,5.40054e-05,-5.47104e-06
51,5.70449e-06,4.73181e-06,3.72401e-05,7.81261e-06,4.91841e-05,-7.50003e-06
52,2.54326e-06,1.51907e-05,4.28295e-05,1.35765e-05,6.19075e-05,-1.17499e-05
53,1.52117e-06,7.80757e-06,3.23914e-05,2.78633e-05,5.95949e-05,-1.77717e-05
54,4.03488e-06,-1.19397e-05,1.52725e-05,4.39924e-05,2.20381e-05,-2.30898e-05
55,8.73493e-06,-2.60667e-05,2.7409e-06,4.71114e-05,-1.3349e-05,-2.60275e-05
56,8.07939e-06,-1.93796e-05,-1.29036e-06,3.29059e-05,-1.82939e-05,-2.69588e-05
57,2.34979e-06,-3.93857e-07,4.22237e-06,2.0864e-05,-1.51033e-05,-2.49428e-05
58,2.11304e-07,1.12935e-05,1.31413e-05,2.37496e-05,-3.40316e-05,-2.06685e-05
59,4.76613e-06,7.02388e-06,1.89857e-05,3.41081e-05,-6.62183e-05,-1.94722e-05
60,8.7723e-06,-1.17272e-05,2.40088e-05,4.48046e-05,-7.96485e-05,-2.29035e-05
61,6.05335e-06,-2.89868e-05,2.73427e-05,4.86957e-05,-6.49168e-05,-2.45799e-05
62,4.56019e-06,-2.37571e-05,2.27957e-05,3.88707e-05,-3.19416e-05,-1.98829e-05
63,7.85816e-06,-3.69185e-06,8.55522e-06,2.62216e-05,3.0959e-07,-1.21748e-05
64,1.16786e-05,6.75815e-06,-9.49836e-06,2.33978e-05,1.30371e-05,-6.99016e-06
65,1.06448e-05,4.88046e-07,-1.22925e-05,2.95679e-05,6.27399e-06,-6.78614e-06
66,7.87544e-06,-2.05965e-05,-7.6034e-06,4.195e-05,-5.42356e-06,-1.01503e-05
67,6.54699e-06,-4.31224e-05,-5.40672e-06,4.85629e-05,-9.84665e-06,-1.29698e-05
68,6.0648e-06,-3.46716e-05,-4.34443e-06,3.91886e-05,-5.02113e-06,-1.27323e-05
69,7.87197e-06,-4.49405e-06,-5.56667e-06,3.00747e-05,4.43099e-06,-1.06691e-05
70,1.25393e-05,7.1161e-06,-4.81215e-06,2.95394e-05,1.20739e-05,-9.25842e-06
71,1.5693e-05,3.62618e-06,4.19736e-06,2.78157e-05,1.51877e-05,-7.38734e-06
72,1.38891e-05,4.2536e-06,1.6113e-05,2.60035e-05,1.65304e-05,-2.25734e-06
73,1.06868e-05,9.59649e-06,1.9582e-05,2.69211e-05,1.79611e-05,5.17008e-06
74,9.87664e-06,8.19789e-06,1.70987e-05,3.14882e-05,1.69897e-05,9.12094e-06
75,1.15289e-05,-9.56874e-06,1.42951e-05,3.65299e-05,1.20772e-05,6.41966e-06
76,1.48586e-05,-2.34031e-05,1.48463e-05,3.09072e-05,4.13848e-06,-1.79328e-06
77,1.79927e-05,-1.10226e-05,2.01547e-05,1.60733e-05,-2.69575e-06,-1.50325e-05
78,1.71951e-05,1.35921e-05,2.9878e-05,6.7811e-06,4.35405e-07,-3.06413e-05
79,1.29459e-05,2.48237e-05,3.85044e-05,8.52149e-06,1.55977e-05,-4.21707e-05
80,1.08277e-05,1.66008e-05,4.44053e-05,2.0196e-05,3.34977e-05,-4.28333e-05
81,1.34e-05,-4.26645e-06,4.24656e-05,3.85362e-05,4.54209e-05,-3.4077e-05
82,1.5284e-05,-1.93406e-05,3.6251e-05,4.60793e-05,4.85467e-05,-2.46408e-05
83,1.57814e-05,-1.36151e-05,4.23188e-05,3.31872e-05,4.52277e-05,-2.11708e-05
84,1.4224e-05,4.41989e-06,5.59965e-05,1.75516e-05,4.50222e-05,-2.34445e-05
85,1.11145e-05,1.67828e-05,6.11598e-05,1.63857e-05,5.86459e-05,-2.65232e-05
86,9.17577e-06,1.58859e-05,6.1836e-05,2.8884e-05,6.84696e-05,-2.6001e-05
87,1.15717e-05,2.52761e-06,5.84216e-05,4.71417e-05,5.51199e-05,-2.22128e-05
88,1.36866e-05,-1.00831e-05,4.90588e-05,5.34674e-05,3.56187e-05,-1.74384e-05
89,1.18027e-05,-3.53901e-06,3.64142e-05,3.66748e-05,3.96587e-05,-1.29202e-05
90,9.63098e-06,1.50755e-05,2.64168e-05,1.67717e-05,9.07087e-05,-9.78693e-06
91,1.06152e-05,2.41913e-05,2.9596e-05,1.43474e-05,0.000158933,-8.69323e-06
92,1.34486e-05,1.75243e-05,4.34811e-05,2.56487e-05,0.000186456,-8.58977e-06
93,1.42882e-05,-3.39608e-06,4.815e-05,4.41576e-05,0.000188141,-6.72029e-06
94,1.14485e-05,-2.5911e-05,4.71543e-05,5.78169e-05,0.000186499,-1.95898e-06
95,7.38227e-06,-2.10119e-05,4.91636e-05,5.11376e-05,9.71021e-05,5.91109e-06
96,7.57275e-06,4.00082e-06,5.0189e-05,3.91309e-05,-0.000122944,1.31622e-05
97,1.2574e-05,1.22373e-05,5.08274e-05,3.80714e-05,-0.000321355,1.38783e-05
98,1.69877e-05,3.8359e-06,5.99522e-05,4.04238e-05,-0.00034394,9.08306e-06
99,1.80764e-05,-1.35701e-06,7.25641e-05,4.06212e-05,-0.000238974,4.50378e-06
100,1.87375e-05,-6.88775e-07,7.29651e-05,3.72571e-05,-0.000159571,3.92832e-06
101,2.14211e-05,-4.4891e-06,6.02073e-05,4.00638e-05,-0.000135365,6.37302e-06
102,2.56072e-05,-2.07203e-05,4.15777e-05,5.4864e-05,-9.15594e-05,7.87207e-06
103,2.91982e-05,-3.36594e-05,2.98445e-05,6.12169e-05,-1.6004e-05,5.38845e-06
104,3.11617e-05,-2.91787e-05,3.55724e-05,4.73061e-05,3.45065e-05,5.41574e-07
105,3.00392e-05,-1.83837e-05,5.1816e-05,3.05201e-05,3.80765e-05,-1.39075e-06
106,2.73955e-05,-1.47253e-05,5.84402e-05,2.67886e-05,2.08381e-05,2.2877e-07
107,2.3478e-05,-2.02618e-05,5.36909e-05,3.70939e-05,1.16255e-05,1.83985e-06
108,1.84046e-05,-3.31981e-05,4.55533e-05,5.30541e-05,2.66742e-05,4.54191e-06
109,1.63181e-05,-4.203e-05,4.01197e-05,5.77172e-05,4.90548e-05,1.27e-05
110,1.55895e-05,-3.33742e-05,4.00091e-05,4.58053e-05,4.67037e-05,2.27371e-05
111,1.1593e-05,-1.38649e-05,4.97838e-05,3.32682e-05,2.46605e-05,2.69252e-05
112,8.35838e-06,-2.6752e-06,6.32535e-05,3.14342e-05,1.06234e-05,2.32769e-05
113,5.40609e-06,-8.1537e-06,6.64214e-05,3.64953e-05,-1.07287e-05,1.54421e-05
114,1.16184e-06,-2.5509e-05,5.84268e-05,4.53625e-05,-2.43889e-05,6.95904e-06
115,4.39485e-07,-3.88189e-05,5.20121e-05,4.79392e-05,2.80478e-05,-7.67931e-07
116,5.56053e-06,-3.19808e-05,4.88263e-05,3.54531e-05,0.000116446,-7.61962e-06
117,1.10554e-05,-1.30688e-05,4.23134e-05,2.37124e-05,0.000148031,-1.29147e-05
118,1.21968e-05,-2.91591e-06,3.51801e-05,2.5185e-05,0.000103191,-1.3883e-05
119,1.10527e-05,-8.08184e-06,4.21395e-05,3.28221e-05,3.13361e-05,-1.0989e-05
120,1.16444e-05,-2.49487e-05,5.74619e-05,4.4451e-05,-2.61501e-05,-7.73765e-06
121,1.26677e-05,-4.09587e-05,6.59136e-05,5.10817e-05,-5.56491e-05,-6.38193e-06
122,1.27031e-05,-3.20553e-05,6.28537e-05,4.01252e-05,-5.81143e-05,-7.14164e-06
123,1.6004e-05,-7.52037e-06,5.18355e-05,2.87938e-05,-4.2679e-05,-6.85562e-06
124,2.11305e-05,4.00827e-06,5.25073e-05,2.83743e-05,-2.71586e-05,-2.67572e-06
125,2.22952e-05,4.86429e-06,7.40932e-05,2.91949e-05,-2.17256e-05,6.2104e-08
126,1.85741e-05,2.06459e-06,9.57165e-05,3.36565e-05,-1.71292e-05,-2.36295e-06
127,1.41478e-05,-3.15091e-06,9.9264e-05,4.03926e-05,-1.17214e-06,-4.3751e-06
128,1.31201e-05,-1.43938e-05,9.27406e-05,4.76424e-05,2.02759e-05,-2.11079e-06
129,1.42561e-05,-3.62643e-05,8.43673e-05,5.6705e-05,2.91503e-05,8.21579e-07
130,1.36272e-05,-4.72415e-05,7.99319e-05,5.39386e-05,2.25263e-05,5.24407e-07
131,9.99993e-06,-2.84822e-05,8.70138e-05,3.84358e-05,1.51554e-05,-1.1103e-06
132,6.69713e-06,3.06934e-07,0.000102344,2.76167e-05,1.58721e-05,-1.23965e-06
133,7.07141e-06,1.15534e-05,0.000113263,2.71356e-05,1.80837e-05,-9.88895e-07
134,7.55769e-06,8.49144e-07,0.000112353,3.40402e-05,1.55904e-05,-8.82668e-07
135,6.63553e-06,-2.21498e-05,9.56077e-05,4.6962e-05,1.76952e-05,-1.7811e-06
136,6.01661e-06,-3.62909e-05,7.42057e-05,5.44327e-05,4.24465e-05,-5.25723e-06
137,2.92409e-06,-2.58209e-05,6.95085e-05,4.66605e-05,8.63225e-05,-8.31679e-06
138,-1.67739e-06,-2.48722e-06,8.25542e-05,3.26884e-05,0.000119504,-8.91935e-06
139,-2.51831e-06,1.0991e-05,9.49219e-05,2.62855e-05,0.000115563,-9.15699e-06
140,-9.13387e-07,6.7829e-06,8.98858e-05,3.12272e-05,7.07627e-05,-9.79375e-06
141,3.18846e-06,-9.44278e-06,7.4851e-05,4.49564e-05,1.14523e-05,-9.49833e-06
142,7.51708e-06,-2.10542e-05,6.50687e-05,5.43553e-05,-2.70143e-05,-8.59156e-06
143,8.81598e-06,-1.12548e-05,5.76075e-05,4.58304e-05,-2.7774e-05,-6.48526e-06
144,1.27168e-05,1.10076e-05,4.68446e-05,2.97154e-05,-5.8765e-06,-4.59704e-06
145,1.85401e-05,2.20322e-05,3.8781e-05,2.44609e-05,1.74632e-05,-7.361e-06
146,2.10548e-05,1.33173e-05,4.63077e-05,3.36744e-05,4.21493e-05,-1.11341e-05
147,2.06478e-05,-9.34687e-06,5.3652e-05,5.13846e-05,7.05296e-05,-8.51971e-06
148,1.89273e-05,-2.87959e-05,5.09422e-05,6.01902e-05,9.13204e-05,-2.16122e-06
149,1.76397e-05,-2.06651e-05,4.36489e-05,4.47352e-05,9.60534e-05,-7.00544e-07
150,1.74449e-05,3.05566e-06,3.55819e-05,2.58092e-05,9.55416e-05,-5.33314e-06
151,1.70917e-05,1.27257e-05,3.0097e-05,2.34804e-05,9.84055e-05,-9.63296e-06
152,1.56569e-05,1.22215e-05,3.48679e-05,2.74212e-05,9.65096e-05,-1.23261e-05
153,1.33786e-05,1.19452e-05,4.68701e-05,3.20493e-05,7.64733e-05,-1.61976e-05
154,1.0454e-05,1.1586e-05,5.50177e-05,3.54631e-05,3.25669e-05,-1.87083e-05
155,9.25409e-06,4.35013e-06,5.57766e-05,3.95086e-05,-3.22802e-05,-1.80229e-05
156,1.1144e-05,-1.52792e-05,4.88023e-05,4.84312e-05,-0.000111511,-1.61555e-05
157,1.30353e-05,-2.89452e-05,4.55318e-05,4.91192e-05,-0.000196356,-1.46188e-05
158,1.06961e-05,-1.81007e-05,5.47787e-05,3.57749e-05,-0.000252391,-1.353e-05
159,6.11976e-06,2.96131e-06,6.56172e-05,2.51065e-05,-0.000229379,-1.33824e-05
160,2.59425e-06,1.1548e-05,6.32635e-05,2.4387e-05,-0.000131541,-1.45092e-05
161,1.05606e-06,4.73283e-06,5.76812e-05,2.69441e-05,-2.6438e-05,-1.40188e-05
162,2.84117e-06,-1.16412e-05,5.47784e-05,3.06372e-05,2.78565e-05,-9.67417e-06
163,8.61787e-06,-2.18052e-05,5.31855e-05,3.05898e-05,3.1882e-05,-4.65201e-06
164,1.20319e-05,-1.21508e-05,5.65598e-05,2.32943e-05,1.9053e-05,-2.00694e-06
165,8.5542e-06,6.32128e-06,6.1741e-05,1.8187e-05,1.39551e-05,-1.29951e-06
166,3.72557e-06,1.32133e-05,6.62816e-05,2.22043e-05,2.28395e-05,-1.64899e-06
167,2.56094e-06,2.48582e-06,6.91275e-05,3.25404e-05,3.54294e-05,-3.67388e-06
168,7.15888e-06,-1.97255e-05,6.92928e-05,4.72538e-05,4.21321e-05,-7.14725e-06
169,1.37272e-05,-3.60873e-05,7.59418e-05,5.3145e-05,4.42948e-05,-1.12875e-05
170,1.73195e-05,-2.77978e-05,7.68653e-05,3.76105e-05,4.15714e-05,-1.63222e-05
171,1.5137e-05,-4.58446e-06,5.96507e-05,1.87568e-05,3.78807e-05,-2.10398e-05
172,1.11416e-05,8.15729e-06,4.1655e-05,1.70145e-05,3.06939e-05,-2.31802e-05
173,1.00657e-05,2.37567e-06,4.50869e-05,2.9078e-05,1.80199e-05,-2.22716e-05
174,1.23993e-05,-2.02344e-05,6.06869e-05,4.55133e-05,1.14067e-05,-1.82664e-05
175,1.48359e-05,-4.51045e-05,6.91872e-05,5.16265e-05,1.9948e-05,-1.3542e-05
176,1.58358e-05,-4.12644e-05,6.23668e-05,3.72492e-05,3.58432e-05,-1.12433e-05
177,1.52465e-05,-1.50249e-05,4.21712e-05,2.23384e-05,4.38893e-05,-1.11765e-05
178,1.37508e-05,-8.10577e-08,2.59074e-05,2.14061e-05,3.93175e-05,-1.27837e-05
179,1.06982e-05,1.99804e-06,3.31804e-05,2.65021e-05,3.23665e-05,-1.51055e-05
180,6.91688e-06,3.11314e-06,5.27028e-05,3.6582e-05,3.73259e-05,-2.04789e-05
181,6.13475e-06,4.41315e-06,6.24588e-05,4.62037e-05,5.42701e-05,-2.73796e-05
182,8.36162e-06,-3.26488e-06,5.714e-05,5.17548e-05,6.8249e-05,-2.8546e-05
183,1.2505e-05,-2.54726e-05,4.20611e-05,5.72352e-05,6.85105e-05,-2.12905e-05
184,1.71617e-05,-3.92107e-05,3.24569e-05,5.38689e-05,6.61602e-05,-8.66975e-06
185,1.96815e-05,-2.74477e-05,4.12651e-05,3.75588e-05,7.7319e-05,1.95437e-06
186,1.85547e-05,-9.30732e-06,5.92492e-05,2.49857e-05,8.94338e-05,4.38692e-06
187,1.67517e-05,-3.90846e-06,6.33076e-05,2.705e-05,7.30164e-05,-7.29962e-07
188,1.42846e-05,-1.03399e-05,5.36194e-05,3.968e-05,3.8717e-05,-7.75178e-06
189,1.59821e-05,-2.52941e-05,3.78601e-05,5.50703e-05,2.23006e-05,-1.35597e-05
190,2.34128e-05,-3.64742e-05,2.5534e-05,5.89506e-05,2.13484e-05,-1.69024e-05
191,2.8331e-05,-2.8988e-05,3.01585e-05,4.5604e-05,4.74231e-06,-1.69946e-05
192,2.74832e-05,-1.07308e-05,5.03098e-05,2.92131e-05,-2.51227e-05,-1.92387e-05
193,2.86006e-05,-1.90275e-06,6.66981e-05,2.51673e-05,-3.94999e-05,-2.87621e-05
194,3.14326e-05,-1.0112e-05,6.51204e-05,3.57385e-05,-2.96496e-05,-3.84594e-05
195,3.13424e-05,-2.95278e-05,5.47746e-05,5.5229e-05,-1.53397e-06,-3.77147e-05
196,2.79245e-05,-4.2914e-05,4.91607e-05,6.69462e-05,-3.44404e-06,-2.82359e-05
197,2.24536e-05,-3.18266e-05,4.45664e-05,5.59034e-05,-5.38062e-05,-1.87271e-05
198,2.02588e-05,-5.21913e-06,3.39475e-05,3.34285e-05,-6.24826e-05,-1.31219e-05
199,1.87209e-05,1.0828e-05,2.63913e-05,2.07493e-05,-5.99757e-08,-1.02289e-05
200,1.4686e-05,6.73372e-06,4.07173e-05,2.48813e-05,6.30258e-05,-7.94904e-06
201,9.31404e-06,-1.36643e-05,5.96983e-05,4.26261e-05,7.29722e-05,-7.6e-06
202,3.54485e-06,-3.49899e-05,6.39913e-05,5.53877e-05,3.95775e-05,-1.53411e-05
203,-3.05359e-06,-2.84774e-05,5.25244e-05,4.70404e-05,3.13229e-06,-3.08362e-05
204,-5.60836e-06,-3.00425e-06,4.0227e-05,3.49518e-05,-1.88201e-05,-4.43476e-05
205,-3.65593e-06,5.23879e-06,3.90687e-05,3.29146e-05,-2.92899e-05,-4.60695e-05
206,-3.62409e-06,4.55546e-07,4.96421e-05,3.24951e-05,-3.06854e-05,-3.4464e-05
207,-6.28529e-06,2.85363e-06,6.32915e-05,3.26125e-05,-1.0434e-05,-1.65446e-05
208,-6.85443e-06,1.07564e-05,6.90131e-05,3.48809e-05,2.50597e-05,1.90208e-06
209,-2.24124e-06,8.76952e-06,6.69452e-05,4.11243e-05,4.81882e-05,1.47888e-05
210,3.25247e-06,-9.62199e-06,6.25698e-05,5.21667e-05,5.40595e-05,1.81388e-05
211,5.057e-06,-2.11084e-05,6.27438e-05,5.30844e-05,6.55847e-05,1.49331e-05
212,2.96698e-06,-7.56932e-06,7.25533e-05,4.00605e-05,8.15912e-05,1.17154e-05
213,5.40975e-07,1.33805e-05,8.9024e-05,3.14085e-05,7.97297e-05,1.15298e-05
214,-1.45971e-07,2.08474e-05,9.69207e-05,3.41191e-05,5.48193e-05,9.96335e-06
215,3.21092e-06,1.33937e-05,9.53782e-05,4.2838e-05,1.50055e-05,1.74003e-06
216,1.06371e-05,-4.17394e-06,8.61725e-05,5.27508e-05,-3.04826e-05,-1.12651e-05
217,1.90908e-05,-1.75173e-05,7.33456e-05,5.29756e-05,-6.10776e-05,-2.18955e-05
218,2.42046e-05,-1.19891e-05,6.67252e-05,4.00317e-05,-4.98123e-05,-2.82061e-05
219,2.3231e-05,6.63966e-06,6.83503e-05,2.98896e-05,3.04154e-06,-3.19154e-05
220,2.13758e-05,1.96103e-05,6.82961e-05,3.22121e-05,5.65805e-05,-3.23065e-05
221,2.1198e-05,1.60835e-05,6.20322e-05,4.1006e-05,5.29458e-05,-3.09292e-05
222,1.91524e-05,-2.54281e-06,5.59424e-05,5.26906e-05,-4.48172e-06,-3.14832e-05
223,1.53061e-05,-1.96083e-05,5.64078e-05,5.93506e-05,-5.10999e-05,-3.25022e-05
224,1.47551e-05,-1.33824e-05,5.65963e-05,4.80202e-05,-4.8839e-05,-3.06096e-05
225,1.9583e-05,8.4403e-06,4.68466e-05,2.86822e-05,-1.79802e-05,-2.65952e-05
226,2.38405e-05,1.95843e-05,3.47836e-05,2.357e-05,4.05527e-06,-2.07491e-05
227,2.2054e-05,1.0172e-05,3.75013e-05,3.544e-05,9.06114e-06,-1.29139e-05
228,1.74904e-05,-1.55904e-05,4.90674e-05,5.2599e-05,1.25871e-05,-7.73567e-06
229,1.57011e-05,-3.78215e-05,5.92191e-05,5.68354e-05,2.52984e-05,-9.66729e-06
230,1.63334e-05,-2.73858e-05,6.12673e-05,4.12919e-05,4.32766e-05,-1.47967e-05
231,1.67418e-05,1.85508e-06,5.81107e-05,2.984e-05,5.92851e-05,-1.52085e-05
232,1.46753e-05,1.48997e-05,5.7896e-05,3.37975e-05,6.01049e-05,-9.76211e-06
233,1.19428e-05,1.46158e-05,6.70779e-05,3.61652e-05,4.22874e-05,-2.80606e-06
234,1.31933e-05,1.62206e-05,7.78418e-05,3.22224e-05,3.52919e-05,3.28626e-06
235,1.72158e-05,2.17251e-05,7.91641e-05,2.9886e-05,6.6662e-05,7.98379e-06
236,1.87446e-05,2.06301e-05,6.91028e-05,3.58458e-05,0.000110426,8.87719e-06
237,1.69764e-05,3.79404e-06,5.15042e-05,4.50714e-05,0.000118123,6.16329e-06
238,1.36805e-05,-1.12232e-05,3.98224e-05,4.22671e-05,8.52172e-05,3.49529e-06
239,7.46761e-06,-4.08981e-06,4.45353e-05,2.85205e-05,3.5651e-05,2.37182e-06
240,3.29487e-07,1.50747e-05,5.98158e-05,2.21496e-05,-3.24364e-05,6.56631e-07
241,-6.03845e-06,2.46194e-05,6.73446e-05,2.79502e-05,-0.000116486,-3.16811e-06
242,-1.14187e-05,1.80047e-05,6.16003e-05,4.04234e-05,-0.000142992,-5.86899e-06
243,-1.30294e-05,1.5592e-06,4.5365e-05,5.42508e-05,-5.96606e-05,-6.09743e-06
244,-1.10661e-05,-7.33906e-06,3.00501e-05,5.48712e-05,5.49193e-05,-5.89443e-06
245,-7.87052e-06,4.04989e-06,2.73762e-05,3.96657e-05,8.34041e-05,-6.14315e-06
246,-6.42873e-06,2.4605e-05,3.52541e-05,3.01447e-05,2.5773e-05,-4.91901e-06
247,-4.57262e-06,3.40878e-05,4.27823e-05,3.71653e-05,-2.96122e-05,-1.74468e-06
248,6.25956e-07,2.67916e-05,4.20553e-05,4.9792e-05,-2.94397e-05,-8.31518e-07
249,4.23298e-06,7.98055e-06,3.84036e-05,5.94935e-05,3.84314e-06,-4.89114e-06
250,3.74255e-06,-7.50252e-06,4.62134e-05,5.85415e-05,2.99592e-05,-1.0383e-05
251,2.95891e-06,-2.59096e-06,5.51724e-05,4.14148e-05,3.64653e-05,-1.18098e-05
252,7.31287e-06,1.46014e-05,5.29527e-05,2.23216e-05,2.78958e-05,-8.30502e-06
253,1.25503e-05,2.09825e-05,4.50225e-05,1.84827e-05,1.90146e-05,-4.08228e-06
254,1.17535e-05,1.00097e-05,4.99412e-05,2.76271e-05,1.26847e-05,-3.51985e-06
255,9.40276e-06,-1.44824e-05,6.18507e-05,4.0248e-05,1.19953e-05,-5.31348e-06
256,1.08788e-05,-3.79365e-05,6.69654e-05,4.43827e-05,1.34649e-05,-4.95428e-06
257,1.42978e-05,-3.36074e-05,6.03849e-05,3.185e-05,1.05651e-05,-7.90457e-07
258,1.77192e-05,-1.31081e-05,4.26105e-05,1.98091e-05,5.0233e-06,4.40986e-06
259,1.94515e-05,-5.23217e-06,2.85074e-05,2.044e-05,2.95909e-06,6.22658e-06
260,1.65355e-05,-4.66368e-06,3.43895e-05,2.46539e-05,2.89553e-06,4.27799e-06
261,1.00796e-05,-1.77747e-06,4.98209e-05,2.99813e-05,4.28965e-07,3.85512e-06
262,4.07194e-06,3.29133e-06,5.53443e-05,3.33201e-05,-1.43161e-06,7.17102e-06
263,2.38611e-06,3.33834e-06,5.17262e-05,3.82845e-05,6.53432e-07,8.92859e-06
264,6.26531e-06,-8.7588e-06,4.47407e-05,4.8777e-05,1.01939e-05,6.43912e-06
265,1.10878e-05,-1.75359e-05,3.88136e-05,4.97038e-05,2.17816e-05,3.52448e-06
266,1.0149e-05,-5.77161e-06,4.0851e-05,3.62498e-05,2.46639e-05,2.47927e-06
267,4.85219e-06,1.44719e-05,5.49332e-05,2.4311e-05,1.89521e-05,2.34921e-06
268,2.30234e-06,2.2928e-05,6.53759e-05,2.37529e-05,1.60081e-05,1.74377e-06
269,5.04309e-06,1.46496e-05,6.3335e-05,3.4399e-05,1.67189e-05,3.09852e-07
270,1.04289e-05,-5.06825e-06,5.30249e-05,4.92768e-05,1.5808e-05,-9.12598e-07
271,1.58897e-05,-1.85469e-05,4.32715e-05,5.14079e-05,1.06487e-05,-2.56248e-06
272,1.79495e-05,-1.15105e-05,4.27494e-05,3.60564e-05,1.27112e-05,-4.75417e-06
273,1.68245e-05,4.91531e-06,5.08349e-05,2.0063e-05,3.37882e-05,-4.71048e-06
274,1.59456e-05,8.46916e-06,5.60727e-05,1.65196e-05,5.37688e-05,-3.27002e-06
275,1.66611e-05,-7.10235e-06,5.51476e-05,2.31348e-05,3.94097e-05,-6.31e-06
276,1.72148e-05,-3.35759e-05,5.68142e-05,3.349e-05,1.48543e-05,-1.50673e-05
277,1.76587e-05,-5.10861e-05,5.92002e-05,3.56191e-05,-7.58519e-07,-2.1964e-05
278,1.82288e-05,-3.89056e-05,5.11362e-05,2.33947e-05,-3.07187e-05,-2.09678e-05
279,1.57378e-05,-7.91143e-06,3.78292e-05,1.30573e-05,-6.99575e-05,-1.45836e-05
280,1.07047e-05,1.09736e-05,3.23336e-05,1.75012e-05,-9.36414e-05,-7.62522e-06
281,3.5372e-06,7.52061e-06,4.11989e-05,2.84266e-05,-8.25763e-05,-2.63899e-06
282,-8.38024e-07,-1.34709e-05,5.17477e-05,3.83976e-05,-3.83308e-05,-1.77477e-06
283,3.55917e-07,-3.5914e-05,5.70602e-05,4.01685e-05,9.21081e-06,-6.08023e-06
284,3.23451e-06,-3.02147e-05,5.5904e-05,2.80771e-05,1.65298e-05,-1.19768e-05
285,5.97476e-06,-5.49457e-06,4.35594e-05,2.12641e-05,-1.44988e-05,-1.46181e-05
286,7.46679e-06,4.47077e-06,2.75362e-05,2.86783e-05,-3.35941e-05,-1.45947e-05
287,7.25322e-06,2.42414e-06,2.81752e-05,3.24737e-05,-1.01295e-05,-1.52881e-05
288,6.28071e-06,1.22907e-06,4.30026e-05,2.88382e-05,2.98463e-05,-1.70892e-05
289,6.32013e-06,1.75089e-09,5.29148e-05,2.56006e-05,4.85201e-05,-1.82226e-05
290,8.57138e-06,-6.42678e-06,4.90172e-05,3.27496e-05,4.4297e-05,-1.67659e-05
291,1.24847e-05,-2.11775e-05,3.06964e-05,4.91523e-05,3.53735e-05,-1.40728e-05
292,1.46183e-05,-2.8958e-05,8.45616e-06,5.11879e-05,1.92518e-05,-1.37349e-05
293,1.42201e-05,-1.64822e-05,3.09224e-06,3.42903e-05,-1.34103e-05,-1.56838e-05
294,1.52731e-05,1.33607e-06,1.52806e-05,2.24198e-05,-3.90978e-05,-1.72024e-05
295,1.95665e-05,7.20962e-06,2.22739e-05,2.62722e-05,-2.96558e-05,-1.63707e-05
296,2.30037e-05,-8.39726e-07,2.1076e-05,3.90728e-05,1.92079e-06,-1.34578e-05
297,2.42015e-05,-2.05543e-05,1.61643e-05,5.29028e-05,2.59773e-05,-1.05637e-05
298,2.54019e-05,-3.50081e-05,1.28029e-05,5.56063e-05,2.87574e-05,-9.39999e-06
299,2.53037e-05,-2.50112e-05,1.66451e-05,4.29969e-05,1.50917e-05,-8.82722e-06
300,2.33749e-05,2.95006e-07,2.75348e-05,3.02932e-05,1.41416e-05,-6.30251e-06
301,2.34636e-05,1.64986e-05,3.72599e-05,2.9822e-05,3.6119e-05,-2.61812e-06
302,2.73507e-05,1.37216e-05,3.58933e-05,3.74507e-05,5.30747e-05,-1.48674e-06
303,3.1879e-05,-5.59742e-06,2.83673e-05,4.72853e-05,4.69206e-05,-2.87516e-06
304,3.51173e-05,-2.62193e-05,2.86488e-05,5.0914e-05,2.65832e-05,-5.78878e-06
305,3.62833e-05,-2.60248e-05,2.85321e-05,4.16142e-05,1.28396e-05,-1.31155e-05
306,3.57924e-05,-8.2254e-06,1.89872e-05,3.16679e-05,1.86153e-05,-2.20219e-05
307,3.4188e-05,4.95374e-06,1.35922e-05,3.32913e-05,3.84149e-05,-2.49318e-05
308,3.18593e-05,2.83821e-06,2.83825e-05,4.17617e-05,6.16727e-05,-2.22896e-05
309,3.08678e-05,-1.52875e-05,4.84934e-05,5.44762e-05,7.62787e-05,-1.97313e-05
310,2.83507e-05,-3.52566e-05,5.83019e-05,6.37452e-05,7.24423e-05,-2.13668e-05
311,2.40484e-05,-3.03459e-05,5.30394e-05,5.4521e-05,5.23048e-05,-2.72374e-05
312,2.19402e-05,-1.11534e-05,3.60432e-05,4.08152e-05,3.07677e-05,-3.28681e-05
313,2.14191e-05,-5.67019e-06,2.60323e-05,3.92623e-05,1.04679e-05,-3.28727e-05
314,1.88173e-05,-6.80483e-06,3.9821e-05,3.89563e-05,-8.71864e-06,-2.52785e-05
315,1.46225e-05,-4.46188e-06,6.73486e-05,3.62627e-05,-9.49247e-06,-1.25564e-05
316,1.221e-05,-1.15833e-06,8.51493e-05,3.47788e-05,1.63373e-05,-1.90054e-06
317,1.36813e-05,-4.50911e-06,8.6009e-05,4.0194e-05,5.12709e-05,-1.23849e-06
318,1.73601e-05,-2.34233e-05,7.09071e-05,5.2695e-05,7.454e-05,-5.50519e-06
319,1.86898e-05,-3.88722e-05,5.3238e-05,5.41214e-05,8.08433e-05,-4.69145e-06
320,1.65073e-05,-2.83808e-05,5.52153e-05,4.12056e-05,6.98475e-05,1.50986e-06
321,1.41615e-05,-6.53226e-06,7.30639e-05,3.24186e-05,4.46809e-05,7.61334e-06
322,1.40344e-05,2.31791e-06,8.1959e-05,3.35792e-05,1.50879e-05,9.18926e-06
323,1.52371e-05,-6.38359e-06,7.80089e-05,3.96396e-05,-1.84594e-05,6.17971e-06
324,1.62093e-05,-2.54131e-05,6.42051e-05,4.84969e-05,-6.00638e-05,1.16383e-06
325,1.38592e-05,-3.57517e-05,4.96235e-05,4.83077e-05,-8.43617e-05,-2.40566e-06
326,9.46303e-06,-2.2356e-05,5.17206e-05,3.41603e-05,-7.20271e-05,-1.27351e-06
327,7.26895e-06,2.35322e-06,6.68933e-05,2.20705e-05,-4.25805e-05,3.22621e-06
328,7.55946e-06,1.49324e-05,7.47382e-05,2.36865e-05,-1.6376e-05,4.67708e-06
329,9.99111e-06,8.48488e-06,6.86814e-05,3.3767e-05,9.44275e-07,-2.66987e-08
330,1.56009e-05,-1.07508e-05,6.25197e-05,4.65481e-05,1.84341e-05,-6.90905e-06
331,1.85449e-05,-2.51313e-05,6.75694e-05,5.29547e-05,4.97165e-05,-1.11443e-05
332,1.64375e-05,-1.58266e-05,6.8885e-05,4.30981e-05,9.27316e-05,-1.1134e-05
333,1.28715e-05,6.57295e-06,5.76908e-05,2.82561e-05,0.000129083,-8.63466e-06
334,9.47734e-06,1.54923e-05,4.56018e-05,2.41806e-05,0.000138966,-9.50576e-06
335,6.80174e-06,3.13801e-06,5.03325e-05,3.11883e-05,0.000127252,-1.57949e-05
336,4.78833e-06,-2.39658e-05,6.54916e-05,4.46489e-05,0.00010132,-1.95024e-05
337,3.82745e-06,-4.73273e-05,7.36801e-05,5.03397e-05,4.2679e-05,-1.60315e-05
338,2.34065e-06,-3.93452e-05,6.54988e-05,3.60295e-05,-5.3445e-05,-1.02617e-05
339,2.01965e-06,-1.34129e-05,4.68187e-05,2.22308e-05,-0.000132135,-5.62281e-06
340,4.42924e-06,-3.68553e-06,3.74768e-05,2.47924e-05,-0.000141753,-3.04802e-06
341,6.6508e-06,-4.99715e-06,4.73672e-05,3.14891e-05,-9.7212e-05,-2.7808e-06
342,5.48389e-06,-5.23274e-06,6.38562e-05,3.81306e-05,-4.32335e-05,-4.1105e-06
343,2.49365e-06,-3.84336e-06,6.94437e-05,4.31344e-05,-5.45223e-06,-6.91696e-06
344,1.63716e-06,-7.08933e-06,6.39033e-05,4.52696e-05,1.25951e-05,-9.95278e-06
345,3.13453e-06,-2.34753e-05,5.15192e-05,4.73224e-05,1.55549e-05,-1.28776e-05
346,4.25582e-06,-3.50711e-05,4.08571e-05,4.17192e-05,1.30469e-05,-1.46824e-05
347,1.60883e-06,-2.27412e-05,4.19974e-05,2.93115e-05,1.34744e-05,-1.35662e-05
348,-3.71696e-06,-8.19618e-07,5.45484e-05,2.26239e-05,2.02084e-05,-1.24089e-05
349,-7.19268e-06,9.93991e-06,6.28506e-05,2.57767e-05,2.66506e-05,-1.24012e-05
350,-5.54406e-06,6.26825e-06,5.92001e-05,3.59094e-05,2.29067e-05,-1.0862e-05
351,-5.00709e-07,-8.81274e-06,4.84164e-05,4.9214e-05,4.88367e-06,-7.53924e-06
352,1.7396e-06,-2.0322e-05,4.10398e-05,5.26743e-05,-1.29716e-05,-3.32521e-06
353,9.90987e-07,-1.18843e-05,4.82847e-05,4.047e-05,-1.77961e-05,3.04716e-06
354,1.13557e-06,7.927e-06,5.95756e-05,2.87283e-05,-1.27615e-05,1.12182e-05
355,2.10603e-06,1.64716e-05,5.82681e-05,3.1713e-05,-5.66455e-06,1.77636e-05
356,1.92206e-06,6.90341e-06,4.98534e-05,4.33124e-05,-2.28912e-06,1.88042e-05
357,4.6526e-06,-1.14135e-05,4.14849e-05,5.31567e-05,6.77091e-06,1.26103e-05
358,9.9731e-06,-2.15361e-05,3.93409e-05,5.52365e-05,2.28107e-05,-1.20478e-06
359,1.20323e-05,-1.12587e-05,4.13333e-05,4.82491e-05,3.43374e-05,-2.07206e-05
360,1.35614e-05,8.53728e-06,3.59479e-05,4.22746e-05,3.58852e-05,-3.62928e-05
361,1.33388e-05,1.76893e-05,2.69618e-05,4.32117e-05,1.84089e-05,-3.96509e-05
362,1.06414e-05,9.95345e-06,3.06024e-05,4.65767e-05,-2.02184e-05,-3.40449e-05
363,8.93825e-06,-1.10379e-05,4.37258e-05,5.11114e-05,-5.73985e-05,-2.74891e-05
364,9.96365e-06,-3.09499e-05,5.40086e-05,5.17855e-05,-5.84234e-05,-2.39895e-05
365,1.44003e-05,-2.41855e-05,5.05404e-05,3.99857e-05,-1.96742e-05,-2.09441e-05
366,1.91519e-05,-7.94051e-07,3.39158e-05,3.03883e-05,2.6135e-05,-1.51534e-05
367,2.06065e-05,8.37445e-06,2.35467e-05,3.416e-05,4.76176e-05,-9.71961e-06
368,1.82185e-05,7.00324e-06,3.57399e-05,3.79905e-05,4.55596e-05,-8.2843e-06
369,1.58946e-05,5.53326e-06,5.78361e-05,3.75924e-05,3.81314e-05,-1.00588e-05
370,1.66631e-05,2.94191e-06,6.63544e-05,3.6718e-05,3.56088e-05,-1.25733e-05
371,1.94208e-05,-6.14498e-06,5.68608e-05,4.10825e-05,3.67821e-05,-1.4018e-05
372,2.02418e-05,-2.63983e-05,3.89661e-05,4.96503e-05,3.74216e-05,-1.45577e-05
373,1.7965e-05,-4.11966e-05,2.82359e-05,4.83092e-05,3.9257e-05,-1.455e-05
374,1.50926e-05,-3.38567e-05,3.48424e-05,3.75775e-05,4.19577e-05,-1.2899e-05
375,1.42474e-05,-1.51787e-05,5.27763e-05,3.15454e-05,3.98094e-05,-1.11321e-05
376,1.34398e-05,-2.48822e-06,6.45456e-05,3.40962e-05,2.4974e-05,-1.15319e-05
377,1.08085e-05,-2.70421e-06,6.42628e-05,4.33328e-05,3.15791e-07,-1.24066e-05
378,9.12874e-06,-1.70616e-05,4.93348e-05,5.67089e-05,-1.23255e-05,-1.06805e-05
379,1.10966e-05,-3.05963e-05,3.03929e-05,5.77483e-05,1.47352e-06,-6.13271e-06
380,1.39714e-05,-2.5833e-05,3.00902e-05,4.02855e-05,2.33909e-05,3.77938e-07
381,1.49066e-05,-8.66419e-06,4.28464e-05,2.38317e-05,3.0553e-05,7.96257e-06
382,1.58608e-05,8.11167e-07,5.04111e-05,2.21438e-05,2.08513e-05,1.34154e-05
383,1.90705e-05,-6.65751e-06,5.31894e-05,3.12911e-05,4.52717e-07,1.28963e-05
384,2.50346e-05,-2.57253e-05,5.49792e-05,4.48558e-05,-1.98777e-05,7.58881e-06
385,2.83144e-05,-3.88066e-05,5.79325e-05,5.07071e-05,-3.10489e-05,2.90318e-06
386,2.69656e-05,-2.7958e-05,5.52476e-05,3.75672e-05,-4.00065e-05,1.54798e-06
387,2.43367e-05,-1.45761e-06,4.57339e-05,1.87605e-05,-4.13177e-05,1.35055e-06
388,2.12248e-05,1.52037e-05,4.06537e-05,1.34127e-05,-3.0084e-05,-2.30465e-06
389,1.8168e-05,1.04939e-05,4.83154e-05,2.23259e-05,-1.73446e-05,-1.2386e-05
390,1.72577e-05,-1.28132e-05,5.89312e-05,3.79234e-05,-4.31823e-06,-2.51955e-05
391,1.86863e-05,-3.77228e-05,6.30712e-05,4.68082e-05,9.81947e-06,-3.36566e-05
392,2.0416e-05,-3.56902e-05,6.22967e-05,3.65846e-05,2.08816e-05,-3.56047e-05
393,2.31396e-05,-1.43673e-05,6.0801e-05,2.43013e-05,2.40588e-05,-3.11552e-05
394,2.52596e-05,-5.31144e-06,6.3601e-05,2.73783e-05,1.3427e-05,-2.12865e-05
395,2.31229e-05,-8.91457e-06,7.25387e-05,3.44197e-05,-9.89474e-06,-1.33144e-05
396,2.08231e-05,-1.08768e-05,7.97921e-05,3.6848e-05,-2.60185e-05,-1.21104e-05
397,2.09562e-05,-9.30754e-06,7.7055e-05,3.58074e-05,-1.89885e-05,-1.29088e-05
398,2.02274e-05,-1.38729e-05,6.48827e-05,3.78606e-05,-1.41528e-06,-1.52054e-05
399,1.84496e-05,-3.06307e-05,4.57018e-05,4.35155e-05,7.76219e-06,-2.06565e-05
400,1.87712e-05,-4.14051e-05,3.3183e-05,3.94906e-05,7.3733e-06,-2.43625e-05
401,1.97648e-05,-2.8198e-05,4.19462e-05,2.56588e-05,7.24897e-06,-2.24337e-05
402,1.86091e-05,-5.02074e-06,6.30288e-05,1.49366e-05,1.78318e-05,-1.68747e-05
403,1.71267e-05,5.70632e-06,7.74442e-05,1.32525e-05,3.672e-05,-1.18914e-05
404,1.58993e-05,-5.64483e-07,7.55972e-05,2.2017e-05,3.50702e-05,-1.1173e-05
405,1.41431e-05,-1.796e-05,5.54172e-05,3.76517e-05,2.90052e-06,-1.44583e-05
406,9.77697e-06,-3.00093e-05,3.18528e-05,4.26226e-05,-1.55035e-05,-1.62277e-05
407,3.09033e-06,-2.27674e-05,3.04753e-05,2.96871e-05,1.08571e-05,-1.34635e-05
408,8.67165e-07,-5.58389e-06,4.94948e-05,1.81515e-05,4.78713e-05,-8.86647e-06
409,2.81827e-06,2.84339e-06,6.62213e-05,2.30667e-05,5.15597e-05,-6.18052e-06
410,3.37571e-06,-1.81171e-06,7.13951e-05,3.77244e-05,3.21066e-05,-5.37036e-06
411,1.18278e-06,-1.62921e-05,6.29643e-05,5.03047e-05,2.87319e-05,-4.4123e-06
412,-1.5888e-06,-2.8427e-05,5.95313e-05,4.7884e-05,4.69372e-05,-1.5606e-06
413,-6.71349e-07,-1.84628e-05,6.02249e-05,2.77569e-05,6.43324e-05,4.68892e-06
414,1.87485e-06,6.51473e-06,5.28057e-05,1.15467e-05,8.48738e-05,1.23729e-05
415,3.84451e-06,1.88388e-05,4.73201e-05,1.41812e-05,0.000113266,1.56131e-05
416,4.66017e-06,1.21315e-05,5.83106e-05,2.78526e-05,0.000132637,1.26895e-05
417,4.6634e-06,-4.9788e-06,7.5003e-05,4.3612e-05,0.000140493,7.17054e-06
418,3.02077e-06,-1.97715e-05,7.93891e-05,5.2088e-05,0.000143618,2.33628e-06
419,5.91478e-07,-1.05636e-05,7.44323e-05,4.13123e-05,0.00010651,-1.72279e-07
420,2.18537e-06,1.31635e-05,6.53037e-05,2.43775e-05,-6.69488e-06,-1.22751e-06
421,6.02054e-06,2.3759e-05,6.14737e-05,2.19697e-05,-0.000128678,-2.72712e-09
422,7.74577e-06,2.41675e-05,7.07402e-05,2.73863e-05,-0.000163011,5.2187e-06
423,7.59992e-06,2.26493e-05,8.51377e-05,3.06242e-05,-0.000108853,1.06943e-05
424,8.51051e-06,1.68362e-05,8.90016e-05,3.06964e-05,-3.94213e-05,1.17929e-05
425,1.17497e-05,4.10986e-06,7.89172e-05,3.34314e-05,-4.91126e-06,8.18256e-06
426,1.73784e-05,-1.43417e-05,6.06583e-05,4.18449e-05,4.21952e-06,2.41239e-06
427,2.24937e-05,-2.27312e-05,4.48891e-05,4.29781e-05,1.553e-05,-3.42712e-06
428,2.31049e-05,-1.06568e-05,4.30537e-05,3.30211e-05,3.85493e-05,-8.31972e-06
429,2.00657e-05,6.83214e-06,5.49858e-05,2.6434e-05,7.03274e-05,-1.0987e-05
430,1.70376e-05,1.31258e-05,6.63053e-05,2.95364e-05,0.000100147,-1.29152e-05
431,1.71488e-05,5.29146e-06,6.59399e-05,3.94959e-05,0.000111253,-1.67923e-05
432,1.95701e-05,-1.29426e-05,5.63351e-05,5.46271e-05,9.93327e-05,-2.26038e-05
433,2.17471e-05,-2.62158e-05,5.00829e-05,6.21909e-05,6.21563e-05,-2.71349e-05
434,2.14784e-05,-2.15081e-05,5.86795e-05,5.20491e-05,2.97013e-06,-2.72701e-05
435,1.90403e-05,-7.49639e-06,7.23174e-05,3.60392e-05,-4.28061e-05,-2.29398e-05
436,2.09961e-05,-1.10899e-06,7.45987e-05,3.0165e-05,-3.52115e-05,-1.54951e-05
437,2.4473e-05,-6.39978e-06,6.79987e-05,3.71547e-05,-1.80242e-05,-7.77124e-06
438,2.33744e-05,-2.02785e-05,6.03764e-05,5.05417e-05,-5.42678e-05,-2.72204e-06
439,2.05547e-05,-3.0752e-05,6.04169e-05,5.36029e-05,-9.97944e-05,-1.15658e-06
440,2.12619e-05,-1.93822e-05,6.20865e-05,3.7427e-05,-9.34853e-05,-1.99951e-06
441,2.33591e-05,6.76672e-06,5.13377e-05,2.21538e-05,-3.96473e-05,-4.40338e-06
442,2.07654e-05,2.22696e-05,3.51845e-05,2.4048e-05,1.66818e-05,-8.32119e-06
443,1.32718e-05,2.04854e-05,3.48799e-05,3.51726e-05,4.08408e-05,-1.36089e-05
444,5.95682e-06,4.74099e-06,4.61281e-05,4.83692e-05,3.86246e-05,-2.05635e-05
445,3.72585e-06,-1.40536e-05,5.36997e-05,5.35904e-05,3.60482e-05,-2.52952e-05
446,3.02047e-06,-7.21435e-06,4.5797e-05,3.9698e-05,4.74631e-05,-2.28009e-05
447,8.09327e-07,1.98309e-05,2.39765e-05,2.53105e-05,6.80753e-05,-1.86761e-05
448,-2.12452e-06,3.5092e-05,6.5722e-06,2.73402e-05,8.44145e-05,-1.87713e-05
449,-2.51368e-06,3.7553e-05,9.23976e-06,3.40184e-05,8.28145e-05,-2.01716e-05
450,-4.11525e-07,3.49564e-05,2.114e-05,3.64446e-05,6.17119e-05,-1.84944e-05
451,2.38875e-06,2.92295e-05,2.38546e-05,3.33996e-05,3.08974e-05,-1.35725e-05
452,5.35264e-06,1.92307e-05,2.04982e-05,3.16373e-05,2.76412e-06,-9.50649e-06
453,8.71332e-06,8.58676e-07,1.5585e-05,3.62879e-05,-1.19892e-05,-9.49202e-06
454,1.30134e-05,-1.01334e-05,1.21259e-05,3.48491e-05,-8.98662e-06,-1.36311e-05
455,1.5656e-05,-4.15436e-07,1.73629e-05,2.41508e-05,5.60719e-06,-1.88878e-05
456,1.47281e-05,1.52444e-05,3.11356e-05,1.68446e-05,2.36469e-05,-2.38856e-05
457,1.19567e-05,1.95984e-05,4.39723e-05,1.6803e-05,3.53138e-05,-2.89782e-05
458,1.12882e-05,1.10244e-05,5.00754e-05,2.13284e-05,3.74216e-05,-3.14397e-05
459,1.5368e-05,-6.27153e-06,4.05448e-05,3.05548e-05,3.81371e-05,-2.91399e-05
460,2.04734e-05,-1.68103e-05,2.3779e-05,3.40949e-05,3.89453e-05,-2.48015e-05
461,1.99086e-05,-6.01768e-06,2.72784e-05,2.44047e-05,3.58785e-05,-2.10399e-05
462,1.56402e-05,1.65272e-05,5.00928e-05,1.44484e-05,3.70784e-05,-1.77025e-05
463,1.14897e-05,2.9485e-05,6.87058e-05,1.75188e-05,4.84182e-05,-1.4208e-05
464,9.3505e-06,2.36627e-05,6.95935e-05,3.20723e-05,6.54008e-05,-1.13382e-05
465,8.03878e-06,3.17429e-06,5.74535e-05,4.95685e-05,7.17477e-05,-1.0505e-05
466,7.07399e-06,-1.3424e-05,6.12139e-05,5.64826e-05,4.90636e-05,-1.16715e-05
467,7.9384e-06,-5.07399e-06,7.15334e-05,4.68735e-05,2.75074e-06,-1.33075e-05
468,9.10518e-06,1.7639e-05,6.26918e-05,3.52746e-05,-3.08748e-05,-1.37762e-05
469,7.19858e-06,2.69711e-05,4.66619e-05,3.48737e-05,-2.37289e-05,-1.18134e-05
470,3.33102e-06,1.75384e-05,4.8901e-05,4.44015e-05,6.80967e-06,-8.44301e-06
471,3.08164e-06,-5.71716e-06,5.99204e-05,6.0248e-05,2.95548e-05,-7.41973e-06
472,3.88932e-06,-2.92836e-05,6.34009e-05,7.12761e-05,3.34911e-05,-9.58327e-06
473,3.86068e-06,-2.26275e-05,5.64561e-05,6.17141e-05,2.6856e-05,-1.11861e-05
474,7.60312e-06,6.0009e-06,4.32865e-05,4.61418e-05,2.02264e-05,-8.76241e-06
475,1.53954e-05,2.08458e-05,3.70979e-05,4.1062e-05,1.54154e-05,-5.862e-06
476,1.88946e-05,2.20406e-05,4.84993e-05,4.00638e-05,1.73352e-05,-7.26062e-06
477,1.53278e-05,2.1176e-05,6.57082e-05,4.37054e-05,4.71573e-05,-1.06631e-05
478,1.14397e-05,1.87806e-05,6.99443e-05,4.80833e-05,0.000107571,-1.22424e-05
479,1.16892e-05,7.36086e-06,6.10255e-05,5.20125e-05,0.000154553,-1.26074e-05
480,1.35019e-05,-1.74977e-05,4.60832e-05,5.90881e-05,0.00014761,-1.2807e-05
481,1.42666e-05,-3.42519e-05,3.65914e-05,5.59151e-05,9.95723e-05,-1.14616e-05
482,1.54967e-05,-2.64878e-05,4.07305e-05,3.96666e-05,3.50246e-05,-7.40721e-06
483,1.81805e-05,-9.58171e-06,5.53074e-05,2.80384e-05,-5.41762e-05,-2.73182e-06
484,2.27419e-05,-2.41521e-06,6.35253e-05,2.82937e-05,-0.000150112,-1.87386e-06
485,2.77216e-05,-9.0892e-06,5.98473e-05,3.41548e-05,-0.000176706,-3.77594e-06
486,3.07337e-05,-2.76865e-05,4.49178e-05,4.10825e-05,-0.000114426,-2.58581e-06
487,3.09349e-05,-4.31945e-05,3.08018e-05,4.1036e-05,-3.61731e-05,3.39266e-06
488,2.82313e-05,-3.69434e-05,2.97914e-05,2.99652e-05,-1.25768e-06,1.0009e-05
489,2.34414e-05,-1.55975e-05,4.16154e-05,1.93468e-05,1.30213e-06,1.24877e-05
490,2.13038e-05,-2.70895e-06,5.69878e-05,2.0129e-05,1.20218e-05,1.0704e-05
491,2.12081e-05,-8.40631e-06,6.12589e-05,3.00317e-05,3.50842e-05,7.60457e-06
492,2.02382e-05,-2.6389e-05,5.5758e-05,4.32553e-05,5.09683e-05,5.34987e-06
493,1.91702e-05,-3.86169e-05,5.36586e-05,4.99126e-05,5.66445e-05,5.28825e-06
494,1.84053e-05,-2.89519e-05,5.03216e-05,4.06644e-05,5.97e-05,7.39082e-06
495,1.94627e-05,-8.11764e-06,4.28859e-05,2.61182e-05,6.79041e-05,9.48705e-06
496,2.12132e-05,1.22688e-06,3.83102e-05,2.23808e-05,8.07247e-05,1.06962e-05
497,1.80988e-05,-6.99404e-06,4.61619e-05,3.15215e-05,8.32683e-05,1.23654e-05
498,1.15568e-05,-2.98884e-05,5.46813e-05,4.80194e-05,6.2829e-05,1.4174e-05
499,8.63151e-06,-5.16085e-05,5.86006e-05,5.51708e-05,2.88271e-05,1.68781e-05
500,1.00047e-05,-4.47017e-05,5.71337e-05,4.17753e-05,9.96621e-06,2.22767e-05
501,1.27534e-05,-2.23196e-05,4.668e-05,2.86436e-05,5.84369e-06,2.46989e-05
502,1.4119e-05,-1.3002e-05,3.97089e-05,2.8138e-05,-1.31764e-05,2.047e-05
503,1.2169e-05,-9.09736e-06,4.62891e-05,2.92346e-05,-5.30593e-05,1.4551e-05
504,9.14234e-06,-3.96449e-06,5.70417e-05,3.0701e-05,-7.95366e-05,6.3713e-06
505,8.38918e-06,-3.24348e-06,6.03317e-05,3.33593e-05,-6.29399e-05,-1.99564e-06
506,8.97731e-06,-1.12798e-05,5.86962e-05,3.75958e-05,-1.30771e-05,-3.66921e-06
507,9.28498e-06,-2.91134e-05,5.22384e-05,4.39752e-05,3.75701e-05,-4.3111e-07
508,9.78137e-06,-3.70953e-05,4.55719e-05,4.39852e-05,5.9445e-05,1.49017e-06
509,8.55138e-06,-1.90755e-05,4.8679e-05,3.60969e-05,5.05663e-05,1.31202e-06
510,5.24365e-06,7.26746e-06,6.21418e-05,3.04291e-05,3.44703e-05,2.37958e-06
511,2.96812e-06,1.85426e-05,7.32241e-05,3.08459e-05,2.86759e-05,4.02945e-06
512,2.81042e-06,1.02477e-05,7.75342e-05,3.66815e-05,1.9132e-05,4.01157e-06
513,3.2387e-06,-9.4001e-06,6.93671e-05,4.71298e-05,-1.6742e-05,2.42845e-06
514,4.24323e-06,-2.0391e-05,5.07076e-05,5.01922e-05,-6.99966e-05,1.81696e-06
515,7.09587e-06,-9.22714e-06,4.00436e-05,3.91382e-05,-0.00010173,2.11817e-06
516,6.71456e-06,1.07864e-05,4.54867e-05,2.74376e-05,-9.06312e-05,2.34964e-06
517,3.73514e-06,1.88352e-05,5.23502e-05,2.79183e-05,-4.90004e-05,2.40259e-06
518,3.21216e-06,1.10502e-05,4.93487e-05,3.96421e-05,-1.06055e-05,2.03071e-06
519,3.61867e-06,-7.81289e-06,4.19786e-05,5.53014e-05,8.30189e-06,-5.44004e-07
520,3.87277e-06,-2.33496e-05,4.09562e-05,6.00895e-05,1.38401e-05,-5.90014e-06
521,2.47207e-06,-1.51583e-05,4.10655e-05,4.63954e-05,8.88603e-06,-9.69421e-06
522,-4.96636e-08,1.07297e-05,3.22495e-05,3.02712e-05,1.61235e-06,-9.61761e-06
523,-2.14525e-06,2.75806e-05,2.26147e-05,2.55898e-05,-2.04459e-06,-9.95553e-06
524,-3.86269e-06,2.38818e-05,2.9693e-05,3.20517e-05,-1.19545e-06,-1.33678e-05
525,-4.25257e-06,6.39102e-08,4.51862e-05,4.73881e-05,4.29368e-06,-1.69674e-05
526,-3.31933e-06,-2.92446e-05,5.70283e-05,5.62527e-05,1.49975e-05,-1.93234e-05
527,-2.1739e-07,-3.17096e-05,5.43648e-05,4.25251e-05,2.30896e-05,-1.85091e-05
528,2.82036e-06,-1.32463e-05,3.89533e-05,2.58123e-05,2.20562e-05,-1.31466e-05
529,3.7972e-06,-3.93592e-06,3.0493e-05,2.56129e-05,1.54049e-05,-8.4227e-06
530,3.8202e-06,-2.57319e-07,3.88567e-05,3.17283e-05,1.20739e-05,-7.81212e-06
531,5.24878e-06,4.60116e-06,4.95968e-05,3.77933e-05,1.88934e-05,-8.50188e-06
532,7.12722e-06,4.38967e-06,4.94858e-05,4.14255e-05,3.00509e-05,-9.01782e-06
533,7.10961e-06,-7.44257e-06,4.34974e-05,4.71446e-05,3.45716e-05,-9.24902e-06
534,6.28243e-06,-3.07056e-05,3.35578e-05,5.72559e-05,3.21777e-05,-9.82955e-06
535,6.96042e-06,-4.30345e-05,2.68485e-05,5.46692e-05,3.14702e-05,-1.05579e-05
536,9.25671e-06,-2.90088e-05,3.41311e-05,3.84081e-05,3.27108e-05,-1.09582e-05
537,1.21397e-05,-7.89897e-06,5.00121e-05,2.8344e-05,3.36881e-05,-1.1123e-05
538,1.31779e-05,-2.64966e-06,5.70856e-05,3.05413e-05,3.74788e-05,-1.25188e-05
539,1.12895e-05,-1.59605e-05,5.90316e-05,3.85203e-05,4.20369e-05,-1.48405e-05
540,1.22352e-05,-3.92391e-05,5.41904e-05,4.70875e-05,4.42525e-05,-1.67881e-05
541,1.67383e-05,-5.19135e-05,3.97102e-05,4.6368e-05,4.77004e-05,-1.84949e-05
542,1.80716e-05,-4.18347e-05,3.42582e-05,3.50746e-05,5.66179e-05,-2.00128e-05
543,1.43343e-05,-2.41399e-05,4.45896e-05,2.74042e-05,7.54753e-05,-2.11895e-05
544,1.01405e-05,-1.61855e-05,5.53816e-05,3.07538e-05,0.000101174,-2.22666e-05
545,8.69537e-06,-1.9199e-05,5.75463e-05,3.89741e-05,0.000111702,-2.26044e-05
546,8.61428e-06,-3.12508e-05,5.16309e-05,4.68039e-05,9.09229e-05,-2.04115e-05
547,6.03057e-06,-4.17589e-05,4.52203e-05,4.59453e-05,4.2079e-05,-1.79828e-05
548,6.84563e-06,-3.30211e-05,4.0384e-05,3.19858e-05,-1.92818e-05,-1.88919e-05
549,1.32767e-05,-1.28624e-05,3.35942e-05,2.13682e-05,-5.54761e-05,-2.40309e-05
550,1.7095e-05,-4.86575e-06,3.15512e-05,2.57267e-05,-4.77834e-05,-3.0503e-05
551,1.57917e-05,-1.23966e-05,4.58564e-05,3.73955e-05,-1.7362e-05,-3.32287e-05
552,1.17998e-05,-2.89992e-05,6.38868e-05,5.01718e-05,4.25071e-06,-3.10589e-05
553,7.47495e-06,-4.2511e-05,7.51326e-05,5.51821e-05,2.07106e-06,-2.97331e-05
554,4.43743e-06,-2.88508e-05,7.41956e-05,4.42851e-05,-7.49607e-06,-3.2917e-05
555,5.10818e-06,-8.43366e-07,5.81323e-05,3.31604e-05,-1.26047e-06,-3.61451e-05
556,8.3589e-06,9.5918e-06,4.33499e-05,3.25574e-05,1.6717e-05,-3.53816e-05
557,1.13201e-05,1.04658e-05,4.95968e-05,3.26545e-05,2.87348e-05,-3.32231e-05
558,1.32889e-05,1.35531e-05,6.9967e-05,3.03313e-05,3.18326e-05,-3.27924e-05
559,1.15177e-05,1.44559e-05,8.05147e-05,2.63088e-05,3.37847e-05,-3.29807e-05
560,7.17444e-06,6.67262e-06,7.41095e-05,2.84353e-05,3.92593e-05,-3.29376e-05
561,5.48454e-06,-1.2983e-05,5.59846e-05,4.04546e-05,4.52311e-05,-3.34185e-05
562,6.95757e-06,-2.71159e-05,4.06085e-05,4.30334e-05,4.38629e-05,-3.14793e-05
563,8.14303e-06,-1.96859e-05,4.23368e-05,3.18786e-05,2.96034e-05,-2.54722e-05
564,9.64442e-06,-2.20864e-06,6.01796e-05,2.57358e-05,1.30068e-05,-1.95533e-05
565,1.22658e-05,6.83029e-06,7.62514e-05,3.22354e-05,7.5763e-06,-1.60122e-05
566,1.63166e-05,1.29449e-06,7.4013e-05,4.5046e-05,7.77757e-06,-1.29771e-05
567,1.97197e-05,-1.50077e-05,5.19358e-05,5.71208e-05,2.91904e-06,-1.07346e-05
568,1.8559e-05,-2.41017e-05,3.50582e-05,5.69938e-05,1.9708e-06,-1.10143e-05
569,1.49069e-05,-1.22564e-05,4.23877e-05,4.16313e-05,1.00938e-05,-1.42448e-05
570,1.28262e-05,7.79099e-06,6.24383e-05,2.80372e-05,2.24486e-05,-1.80436e-05
571,1.40289e-05,1.60674e-05,7.58054e-05,2.85803e-05,5.06474e-05,-1.89851e-05
572,1.60227e-05,8.68045e-06,7.2352e-05,3.94196e-05,9.14549e-05,-1.68821e-05
573,1.58184e-05,-9.25279e-06,6.37662e-05,5.33365e-05,0.000120549,-1.31713e-05
574,1.24672e-05,-2.42015e-05,6.88932e-05,5.72269e-05,0.000122839,-1.00997e-05
575,9.5444e-06,-1.84825e-05,7.5929e-05,4.18899e-05,0.00010277,-1.01373e-05
576,9.35396e-06,7.51056e-07,6.78196e-05,2.27953e-05,7.11419e-05,-1.1295e-05
577,1.44431e-05,1.05317e-05,5.50845e-05,1.83735e-05,8.08967e-06,-1.06769e-05
578,1.98089e-05,5.90517e-06,5.96334e-05,2.95638e-05,-6.2155e-05,-1.06153e-05
579,2.0237e-05,-9.07367e-06,7.57894e-05,4.83265e-05,-7.24795e-05,-1.20821e-05
580,1.77659e-05,-2.50486e-05,8.77913e-05,5.78435e-05,-2.08043e-05,-1.44982e-05
581,1.66935e-05,-1.85562e-05,8.33577e-05,4.64693e-05,3.57533e-05,-1.77093e-05
582,1.89086e-05,1.60337e-06,6.31412e-05,3.18848e-05,5.08149e-05,-2.00103e-05
583,2.14039e-05,7.14759e-06,4.64671e-05,2.73881e-05,2.705e-05,-2.0728e-05
584,2.18658e-05,6.36007e-06,4.82261e-05,2.73081e-05,-3.76461e-06,-1.94639e-05
585,1.89169e-05,9.48724e-06,6.03689e-05,3.23987e-05,-1.45454e-05,-1.55691e-05
586,1.50997e-05,1.09704e-05,6.68845e-05,3.65514e-05,-7.22264e-06,-1.41458e-05
587,1.3111e-05,4.87903e-06,6.22524e-05,3.95873e-05,4.56935e-08,-1.75483e-05
588,1.41001e-05,-1.26719e-05,4.86978e-05,4.82162e-05,-5.18829e-06,-1.98314e-05
589,1.63397e-05,-2.54002e-05,4.02602e-05,4.8265e-05,-1.93712e-05,-1.76773e-05
590,1.55159e-05,-1.56956e-05,4.91794e-05,3.5602e-05,-3.02416e-05,-1.33205e-05
591,1.00687e-05,6.82613e-06,6.67061e-05,2.90078e-05,-2.21668e-05,-9.64284e-06
592,4.89526e-06,2.2498e-05,7.5019e-05,3.35126e-05,9.98138e-06,-6.56676e-06
593,1.47874e-06,2.12681e-05,7.13235e-05,4.09794e-05,4.77459e-05,-3.81408e-06
594,-1.93882e-06,2.25528e-06,5.86598e-05,4.78515e-05,6.43565e-05,-2.18051e-06
595,-5.5212e-06,-1.66849e-05,4.95532e-05,4.52345e-05,5.19726e-05,-2.77206e-06
596,-6.86151e-06,-1.36959e-05,5.92191e-05,2.93101e-05,2.61774e-05,-4.26109e-06
597,-5.30508e-06,4.7221e-06,7.70096e-05,1.57607e-05,3.47156e-06,-4.16717e-06
598,-4.50168e-07,1.56044e-05,7.59619e-05,1.6566e-05,-1.90476e-05,-2.30602e-06
599,4.58192e-06,9.56265e-06,6.75336e-05,2.76006e-05,-3.96672e-05,-1.87782e-07
600,4.37602e-06,-8.87671e-06,6.98381e-05,4.42547e-05,-3.84679e-05,1.72892e-07
601,3.32821e-07,-2.21807e-05,7.73469e-05,5.48323e-05,-1.4002e-05,-9.06122e-07
602,-9.46985e-07,-1.02077e-05,7.6229e-05,4.38131e-05,9.98134e-06,-1.04135e-06
603,3.60352e-06,1.61173e-05,6.42742e-05,2.20994e-05,1.13349e-05,-1.08212e-06
604,7.98697e-06,2.87069e-05,5.40223e-05,1.30824e-05,-2.72481e-06,-3.81903e-06
605,7.20539e-06,2.10256e-05,5.42887e-05,2.25591e-05,-6.93046e-06,-6.36519e-06
606,2.54764e-06,5.65077e-07,6.04715e-05,4.3157e-05,9.24993e-06,-5.42653e-06
607,9.54126e-07,-1.62855e-05,6.85478e-05,5.57824e-05,2.90842e-05,-4.44515e-06
608,2.29389e-06,-5.59073e-06,7.55918e-05,4.60416e-05,2.97277e-05,-5.70038e-06
609,4.97464e-06,1.6907e-05,7.02099e-05,3.3128e-05,9.95073e-06,-4.78029e-06
610,8.26442e-06,2.01844e-05,6.06017e-05,3.20451e-05,-1.32657e-05,-9.8488e-07
611,8.95095e-06,1.56312e-05,6.29859e-05,3.10127e-05,-2.62845e-05,6.00665e-07
612,7.58349e-06,1.5294e-05,7.39539e-05,2.77524e-05,-2.86988e-05,-1.0666e-06
613,7.32808e-06,1.50352e-05,7.91564e-05,2.74127e-05,-2.46562e-05,-2.11852e-06
614,8.52083e-06,7.24609e-06,7.4865e-05,3.4196e-05,-1.31932e-05,2.2983e-07
615,8.33686e-06,-1.33683e-05,6.45532e-05,4.75029e-05,4.59963e-06,3.38043e-06
616,7.50805e-06,-2.66186e-05,5.70998e-05,4.90805e-05,1.7726e-05,3.14075e-06
617,5.05535e-06,-1.66531e-05,6.32255e-05,3.32317e-05,1.85762e-05,8.47556e-07
618,-5.00107e-07,1.38226e-06,7.45812e-05,1.97824e-05,1.52216e-05,1.46417e-07
619,-3.5405e-06,8.76599e-06,7.55229e-05,2.04311e-05,1.47954e-05,8.31555e-07
620,7.88921e-07,8.55141e-07,6.74443e-05,3.24901e-05,1.23511e-05,1.65019e-06
621,8.3176e-06,-1.92463e-05,5.60563e-05,4.98215e-05,9.95086e-06,2.2278e-06
622,1.33011e-05,-3.36585e-05,4.62335e-05,5.85531e-05,1.39194e-05,2.32678e-06
623,1.2865e-05,-2.53708e-05,5.30564e-05,5.04216e-05,1.47602e-05,1.44663e-06
624,1.0099e-05,-4.38265e-06,7.25186e-05,3.82013e-05,9.04429e-06,8.23861e-08
625,1.00442e-05,5.78858e-06,8.07233e-05,3.68783e-05,3.78361e-06,-3.96818e-07
626,1.05167e-05,-3.77e-06,7.41631e-05,4.6673e-05,-3.44009e-06,3.69196e-07
627,1.09574e-05,-2.44224e-05,6.29021e-05,5.98116e-05,-3.32878e-06,2.28704e-06
628,1.09131e-05,-3.56981e-05,5.53658e-05,6.23714e-05,6.33073e-06,3.26519e-06
629,1.10592e-05,-2.13062e-05,4.97054e-05,4.88079e-05,1.2614e-05,1.56773e-06
630,1.64088e-05,3.11252e-06,3.89254e-05,3.72455e-05,1.19171e-05,2.31738e-07
631,2.10844e-05,9.37873e-06,3.00136e-05,4.0543e-05,7.33194e-06,2.53977e-06
632,2.09229e-05,-4.95059e-06,3.33227e-05,5.14914e-05,4.27236e-06,5.33552e-06
633,2.05939e-05,-2.65461e-05,3.77364e-05,6.28066e-05,4.05611e-06,3.01411e-06
634,2.44877e-05,-3.83959e-05,3.97429e-05,6.41291e-05,7.45227e-06,-5.4252e-06
635,2.86603e-05,-2.12758e-05,3.95652e-05,4.78769e-05,1.20643e-05,-1.436e-05
636,2.90015e-05,5.44611e-06,3.04228e-05,3.49357e-05,1.50071e-05,-1.527e-05
637,2.6488e-05,1.01335e-05,1.71304e-05,3.73546e-05,1.44249e-05,-9.06829e-06
638,2.14636e-05,3.1595e-06,1.518e-05,3.96313e-05,1.06007e-05,-5.11676e-06
639,1.67493e-05,-6.35473e-07,2.46399e-05,3.94788e-05,7.08292e-06,-5.22895e-06
640,1.50556e-05,-1.59647e-06,3.16276e-05,4.10035e-05,7.97882e-06,-4.57067e-06
641,1.82593e-05,-9.09671e-06,3.09047e-05,4.67954e-05,1.19664e-05,-3.61079e-06
642,2.40044e-05,-2.83862e-05,2.32617e-05,5.43745e-05,1.44353e-05,-5.16311e-06
643,2.84551e-05,-3.78559e-05,1.40664e-05,4.95469e-05,1.35937e-05,-6.5783e-06
644,2.8979e-05,-2.27135e-05,1.22965e-05,3.34371e-05,1.19144e-05,-6.29743e-06
645,2.91337e-05,-5.82764e-07,1.98577e-05,2.45513e-05,1.69992e-05,-5.88052e-06
646,3.19395e-05,8.55611e-06,2.75364e-05,2.8206e-05,2.86723e-05,-5.68102e-06
647,3.58164e-05,4.46998e-08,2.86064e-05,3.56953e-05,3.5644e-05,-5.43648e-06
648,3.75475e-05,-2.24903e-05,1.53735e-05,4.22329e-05,2.99137e-05,-5.1363e-06
649,3.42219e-05,-4.05997e-05,-3.3184e-06,4.16407e-05,1.19577e-05,-6.40516e-06
650,2.5935e-05,-3.55467e-05,-1.04503e-06,3.16126e-05,-1.26718e-05,-8.68635e-06
651,1.74294e-05,-1.43158e-05,2.18219e-05,2.24671e-05,-2.20743e-05,-9.95246e-06
652,1.31951e-05,-2.17922e-08,3.89592e-05,2.22914e-05,-3.42833e-06,-1.06066e-05
653,1.45743e-05,-4.88215e-06,4.03247e-05,2.99393e-05,1.64246e-05,-1.26606e-05
654,1.94393e-05,-2.44139e-05,3.38225e-05,4.19646e-05,2.08782e-05,-1.51997e-05
655,2.36062e-05,-3.90575e-05,3.1846e-05,4.7316e-05,2.21909e-05,-1.59768e-05
656,2.50147e-05,-2.95933e-05,3.13335e-05,3.67188e-05,2.50187e-05,-1.57728e-05
657,2.529e-05,-5.31274e-06,2.48317e-05,2.27561e-05,2.68813e-05,-1.47072e-05
658,2.70254e-05,8.94757e-06,1.75171e-05,2.12419e-05,2.88954e-05,-1.16097e-05
659,2.70358e-05,4.78948e-06,2.57605e-05,3.08444e-05,2.76398e-05,-8.87065e-06
660,2.72358e-05,-1.45453e-05,4.15186e-05,4.42969e-05,1.62746e-05,-6.27334e-06
661,2.81304e-05,-3.43778e-05,4.55657e-05,5.07319e-05,4.37946e-06,-1.30582e-06
662,2.58326e-05,-2.75937e-05,3.74572e-05,4.15205e-05,2.96677e-06,1.84702e-06
663,2.02298e-05,-5.03854e-06,2.30062e-05,3.09945e-05,1.06461e-05,-2.93843e-07
664,1.51039e-05,3.09154e-06,1.63915e-05,3.02439e-05,1.60132e-05,-3.72941e-06
665,1.27817e-05,5.38206e-07,3.2424e-05,3.07431e-05,1.33177e-05,-4.38746e-06
666,1.19559e-05,-3.24506e-06,5.81685e-05,3.0994e-05,8.83047e-06,-4.65057e-06
667,1.18892e-05,-6.79356e-06,7.00912e-05,3.12402e-05,8.59509e-06,-5.40695e-06
668,1.3238e-05,-1.40643e-05,6.72458e-05,3.50934e-05,1.21603e-05,-5.744e-06
669,1.58498e-05,-3.00222e-05,5.80825e-05,4.53108e-05,1.51311e-05,-5.6244e-06
670,1.91468e-05,-3.68278e-05,5.18493e-05,4.5835e-05,1.52601e-05,-5.01442e-06
671,1.92635e-05,-2.09315e-05,5.71684e-05,3.0698e-05,1.16323e-05,-5.48967e-06
672,1.3434e-05,9.29476e-07,6.86409e-05,1.70865e-05,7.89232e-06,-7.27151e-06
673,6.33303e-06,1.14092e-05,7.49334e-05,1.72836e-05,7.28403e-06,-8.47512e-06
674,9.33924e-07,5.99702e-06,8.06463e-05,3.06404e-05,9.481e-06,-6.38371e-06
675,-1.37651e-06,-1.25958e-05,8.3133e-05,4.84584e-05,1.46391e-05,-2.06568e-06
676,-1.79692e-06,-2.42132e-05,7.44587e-05,5.25643e-05,2.07537e-05,6.56591e-07
677,-3.08013e-06,-1.23882e-05,6.52e-05,3.76933e-05,2.03866e-05,1.81872e-06
678,-5.84616e-06,9.57428e-06,6.79351e-05,2.25857e-05,1.57101e-05,3.62213e-06
679,-6.14972e-06,1.98115e-05,7.89494e-05,2.1388e-05,1.50154e-05,4.58864e-06
680,-3.97467e-06,1.40437e-05,8.78749e-05,2.98305e-05,1.67191e-05,3.29979e-06
681,-2.51749e-06,-1.2608e-06,8.71253e-05,3.99266e-05,1.75022e-05,2.41965e-06
682,-1.35009e-06,-1.16207e-05,8.13708e-05,4.18788e-05,1.70249e-05,2.60063e-06
683,5.35778e-07,-2.01165e-06,6.84149e-05,3.06989e-05,1.55742e-05,2.0763e-06
684,4.72135e-06,1.68097e-05,5.11305e-05,2.06155e-05,1.19928e-05,5.26668e-08
685,7.30153e-06,2.22839e-05,4.09243e-05,2.38266e-05,1.66373e-06,-3.71226e-06
686,5.72638e-06,1.17018e-05,4.78384e-05,3.5354e-05,-1.00716e-05,-6.97517e-06
687,5.99183e-06,-1.09095e-05,6.3898e-05,5.0242e-05,-1.11448e-05,-7.86154e-06
688,9.4386e-06,-3.36105e-05,7.51417e-05,5.98516e-05,4.49022e-07,-9.59458e-06
689,1.06916e-05,-2.92453e-05,7.3678e-05,5.23065e-05,1.3678e-05,-1.26633e-05
690,9.79702e-06,-8.69986e-06,5.40857e-05,4.20832e-05,1.84455e-05,-1.22777e-05
691,7.62162e-06,-2.54182e-06,3.44939e-05,4.11261e-05,1.11491e-05,-8.68097e-06
692,4.23936e-06,-4.29799e-06,3.75098e-05,3.8784e-05,-2.08161e-06,-8.63986e-06
693,5.19321e-07,-3.85124e-06,5.63843e-05,3.54847e-05,-9.31737e-06,-1.45554e-05
694,-2.02884e-06,-3.01381e-06,6.89129e-05,3.45991e-05,-6.40498e-06,-2.02235e-05
695,-4.79259e-07,-7.25526e-06,6.81954e-05,4.04993e-05,5.2933e-07,-2.20621e-05
696,3.36784e-06,-2.24374e-05,5.71808e-05,5.31897e-05,4.45381e-06,-2.3213e-05
697,6.07609e-06,-3.15243e-05,4.68002e-05,5.3886e-05,4.02547e-06,-2.52659e-05
698,6.25749e-06,-1.68707e-05,5.20056e-05,3.77646e-05,2.71752e-06,-2.6027e-05
699,3.53063e-06,5.86023e-06,6.98831e-05,2.41582e-05,7.17991e-06,-2.32667e-05
700,-5.23124e-07,1.47075e-05,8.3038e-05,2.24214e-05,1.53324e-05,-1.86872e-05
701,-2.90389e-06,6.94337e-06,8.67822e-05,2.99378e-05,1.87335e-05,-1.52199e-05
702,-1.52603e-06,-9.76798e-06,7.6834e-05,4.20594e-05,1.73553e-05,-1.12171e-05
703,3.69796e-06,-1.93141e-05,6.03112e-05,4.3994e-05,1.23155e-05,-4.58967e-06
704,7.72026e-06,-9.62747e-06,5.73334e-05,3.00442e-05,3.52567e-06,6.21204e-07
705,8.37945e-06,9.64367e-06,7.01532e-05,1.55832e-05,-1.56205e-06,2.49598e-07
706,9.55414e-06,1.95649e-05,8.59507e-05,1.26985e-05,-7.38622e-07,-4.60225e-06
707,1.17281e-05,1.55107e-05,8.64517e-05,1.89517e-05,1.49027e-06,-1.35801e-05
708,1.28875e-05,2.07268e-06,7.50744e-05,2.93034e-05,6.03822e-06,-2.73283e-05
709,1.4703e-05,-9.33233e-06,7.37988e-05,3.31404e-05,1.31508e-05,-3.91933e-05
710,1.78197e-05,-4.04887e-06,7.45421e-05,2.32557e-05,1.60616e-05,-3.9081e-05
711,2.05485e-05,1.20997e-05,5.9225e-05,1.36391e-05,1.6381e-05,-2.82404e-05
712,2.35776e-05,1.93092e-05,4.19892e-05,1.54529e-05,1.79244e-05,-1.84181e-05
713,2.42025e-05,1.15532e-05,5.14818e-05,2.24951e-05,1.66634e-05,-1.68203e-05
714,2.07556e-05,-7.57384e-06,7.43478e-05,3.13472e-05,1.22756e-05,-2.1173e-05
715,1.76651e-05,-2.54303e-05,8.36202e-05,3.52543e-05,1.03908e-05,-2.73395e-05
716,1.83415e-05,-1.90356e-05,7.21013e-05,2.27374e-05,1.25274e-05,-3.2328e-05
717,2.21887e-05,1.1204e-06,4.93006e-05,8.24751e-06,1.5745e-05,-3.28465e-05
718,2.68659e-05,9.11363e-06,3.74597e-05,8.74104e-06,1.59165e-05,-2.9874e-05
719,2.98065e-05,8.79354e-06,4.60005e-05,1.48564e-05,1.41201e-05,-2.95586e-05
720,3.05545e-05,6.34132e-06,5.86568e-05,2.07202e-05,1.46187e-05,-3.22596e-05
721,2.99915e-05,1.98357e-06,6.22874e-05,2.64021e-05,1.85459e-05,-3.22265e-05
722,2.85964e-05,-6.45236e-06,5.86385e-05,3.40642e-05,2.35685e-05,-2.56516e-05
723,2.6599e-05,-2.25164e-05,4.87371e-05,4.47199e-05,2.97816e-05,-1.46921e-05
724,2.47532e-05,-3.32628e-05,3.95644e-05,4.72081e-05,3.58756e-05,-7.86766e-06
725,2.21854e-05,-2.58649e-05,4.35071e-05,4.00518e-05,3.50297e-05,-7.06095e-06
726,1.80017e-05,-1.16177e-05,5.61243e-05,3.4955e-05,2.62958e-05,-6.0449e-06
727,1.24236e-05,-8.36831e-06,5.83124e-05,3.70106e-05,1.71234e-05,-4.74239e-06
728,7.67896e-06,-1.95453e-05,4.96638e-05,4.67525e-05,1.33957e-05,-7.12701e-06
729,6.04383e-06,-3.72187e-05,3.86067e-05,6.18256e-05,1.39306e-05,-1.23725e-05
730,9.23238e-06,-4.24007e-05,3.30785e-05,6.63455e-05,1.25976e-05,-1.7575e-05
731,1.32825e-05,-2.34987e-05,3.81133e-05,5.28018e-05,4.37243e-06,-2.15177e-05
732,1.21174e-05,3.93721e-06,4.63691e-05,3.81233e-05,7.34908e-08,-2.33162e-05
733,1.10742e-05,1.60062e-05,4.93604e-05,3.77914e-05,1.01213e-05,-2.19749e-05
734,1.38069e-05,7.56466e-06,4.61899e-05,4.91474e-05,1.78879e-05,-1.8244e-05
735,1.5261e-05,-1.31968e-05,4.30991e-05,6.43826e-05,1.29116e-05,-1.39587e-05
736,1.41363e-05,-2.96111e-05,4.89972e-05,6.96461e-05,6.53664e-06,-1.00631e-05
737,1.40452e-05,-2.38405e-05,5.43185e-05,5.37763e-05,4.95683e-06,-7.27917e-06
738,1.50048e-05,-3.10219e-06,5.09004e-05,3.18039e-05,1.18867e-05,-7.21394e-06
739,1.79255e-05,7.95983e-06,4.50451e-05,2.51157e-05,1.81969e-05,-1.11667e-05
740,1.91747e-05,9.34314e-07,4.84243e-05,3.81076e-05,1.62886e-05,-1.79013e-05
741,1.60002e-05,-1.9326e-05,5.29523e-05,6.30805e-05,1.40406e-05,-2.41688e-05
742,1.11524e-05,-3.71607e-05,5.21353e-05,7.57996e-05,1.55384e-05,-2.84138e-05
743,7.8012e-06,-2.71686e-05,4.63706e-05,5.72629e-05,1.72797e-05,-3.06632e-05
744,7.82935e-06,-1.04581e-06,3.27792e-05,3.34324e-05,2.16291e-05,-2.6352e-05
745,7.79287e-06,1.09528e-05,1.99348e-05,2.98784e-05,3.01303e-05,-1.32749e-05
746,4.77423e-06,1.28526e-05,2.06749e-05,3.42708e-05,3.83902e-05,1.95853e-06
747,1.4968e-06,1.31296e-05,3.36184e-05,3.76963e-05,4.24562e-05,1.11745e-05
748,1.53899e-06,8.6838e-06,4.23415e-05,4.04209e-05,3.71493e-05,1.21553e-05
749,3.42428e-06,-3.86094e-06,3.64286e-05,4.67084e-05,1.40082e-05,1.12312e-05
750,4.72996e-06,-2.22608e-05,1.65095e-05,5.7418e-05,-1.81066e-05,1.21194e-05
751,4.28627e-06,-2.78213e-05,-1.13712e-06,5.48125e-05,-3.22845e-05,1.1735e-05
752,2.4558e-06,-1.18662e-05,8.44035e-07,3.87157e-05,-2.12671e-05,8.36449e-06
753,2.74783e-07,8.10319e-06,1.82316e-05,3.13137e-05,-1.42139e-06,3.2985e-06
754,9.5429e-07,1.50901e-05,3.2578e-05,3.75252e-05,1.10259e-05,-4.26929e-06
755,5.89972e-06,5.46098e-06,3.5054e-05,4.82589e-05,1.30877e-05,-1.46387e-05
756,9.5258e-06,-1.65546e-05,2.82915e-05,5.85263e-05,9.99611e-06,-2.23155e-05
757,7.9611e-06,-3.10709e-05,2.78026e-05,5.68479e-05,7.35282e-06,-2.16352e-05
758,5.89758e-06,-2.05816e-05,4.21753e-05,3.92368e-05,4.41046e-06,-1.43834e-05
759,6.55036e-06,3.39465e-06,5.63387e-05,2.38453e-05,1.90599e-06,-6.9964e-06
760,8.07947e-06,1.48871e-05,5.31339e-05,2.57802e-05,3.81845e-06,-3.26177e-06
761,8.39439e-06,4.63694e-06,4.73353e-05,4.12747e-05,7.7653e-06,-3.12715e-06
762,8.17464e-06,-1.82225e-05,5.18175e-05,5.88469e-05,8.0414e-06,-3.68039e-06
763,8.25548e-06,-3.36811e-05,5.51329e-05,6.19193e-05,6.26538e-06,-1.56761e-06
764,8.01555e-06,-2.60162e-05,5.06727e-05,4.41233e-05,5.34965e-06,4.54382e-06
765,8.44633e-06,-5.46357e-06,4.1959e-05,2.6005e-05,6.74666e-06,1.1599e-05
766,1.07005e-05,6.95588e-06,3.65369e-05,2.41308e-05,5.52159e-06,1.2162e-05
767,1.43458e-05,3.50169e-06,4.40171e-05,3.33132e-05,1.67927e-06,2.47763e-06
768,1.72469e-05,-1.47765e-05,5.65292e-05,4.64868e-05,1.88342e-06,-1.09089e-05
769,1.69175e-05,-3.18789e-05,6.29398e-05,5.27189e-05,5.77193e-06,-2.05779e-05
770,1.58045e-05,-1.98961e-05,5.69964e-05,4.07508e-05,8.81085e-06,-2.56827e-05
771,1.69802e-05,6.42913e-06,3.86591e-05,2.82645e-05,1.17973e-05,-2.44036e-05
772,1.8154e-05,1.29466e-05,2.42914e-05,2.83259e-05,1.49121e-05,-1.66825e-05
773,1.51297e-05,8.51095e-06,2.70095e-05,3.14468e-05,1.41079e-05,-8.42833e-06
774,1.023e-05,6.83575e-06,4.019e-05,3.65058e-05,1.39565e-05,-2.1178e-06
775,8.48368e-06,7.64116e-06,4.98284e-05,4.03146e-05,1.87535e-05,1.92622e-06
776,9.84069e-06,4.18029e-06,5.01132e-05,4.20392e-05,2.22668e-05,1.75742e-06
777,1.22188e-05,-1.30013e-05,4.05321e-05,4.59608e-05,1.81865e-05,5.70513e-08
778,1.60199e-05,-2.52896e-05,3.2996e-05,4.27432e-05,1.07277e-05,3.4377e-06
779,2.12748e-05,-1.20935e-05,4.28037e-05,3.15724e-05,6.18704e-06,1.07713e-05
780,2.54863e-05,1.21442e-05,6.31306e-05,2.66631e-05,7.14401e-06,1.4379e-05
781,2.61883e-05,2.29965e-05,6.93358e-05,3.07862e-05,1.25068e-05,1.11954e-05
782,2.41298e-05,1.46362e-05,5.95302e-05,3.92733e-05,1.99705e-05,3.23418e-06
783,2.44024e-05,-5.45342e-06,4.5303e-05,4.81833e-05,2.5357e-05,-6.13886e-06
784,2.87427e-05,-1.85136e-05,3.65984e-05,4.82049e-05,2.57994e-05,-1.50717e-05
785,2.96054e-05,-1.03594e-05,4.47633e-05,3.68518e-05,2.28989e-05,-2.23e-05
786,2.50558e-05,7.03236e-06,6.03531e-05,2.64865e-05,1.93943e-05,-2.59293e-05
787,2.26387e-05,1.28954e-05,6.43407e-05,2.52773e-05,1.99608e-05,-2.45283e-05
788,2.23098e-05,3.81691e-06,6.01732e-05,2.99811e-05,2.15059e-05,-2.00516e-05
789,2.25591e-05,-1.34217e-05,6.06029e-05,3.75594e-05,2.00394e-05,-1.57935e-05
790,2.2441e-05,-2.582e-05,6.64821e-05,3.92526e-05,1.80985e-05,-1.26567e-05
791,2.38922e-05,-1.82137e-05,6.83022e-05,2.70452e-05,1.78307e-05,-1.01775e-05
792,2.83979e-05,1.22202e-06,6.04288e-05,1.47213e-05,1.933e-05,-8.35635e-06
793,3.27212e-05,1.21586e-05,5.18314e-05,1.79728e-05,1.86018e-05,-7.49373e-06
794,3.20156e-05,8.6895e-06,5.64403e-05,3.14197e-05,1.72019e-05,-6.99373e-06
795,2.85799e-05,-1.12254e-05,6.88068e-05,4.49729e-05,1.87728e-05,-7.43272e-06
796,2.5565e-05,-3.6207e-05,7.87524e-05,4.85115e-05,2.46043e-05,-1.01064e-05
797,2.4556e-05,-3.67031e-05,7.74087e-05,3.42928e-05,3.10878e-05,-1.22546e-05
798,2.7043e-05,-1.72769e-05,6.26408e-05,2.01586e-05,3.40183e-05,-1.09859e-05
799,2.90028e-05,-4.31183e-06,5.08639e-05,2.06071e-05,3.05585e-05,-8.43584e-06
800,2.71143e-05,2.08175e-06,5.69803e-05,2.46179e-05,2.37502e-05,-7.97244e-06
801,2.24337e-05,6.95898e-06,7.19119e-05,2.81709e-05,2.26991e-05,-1.04132e-05
802,1.83336e-05,7.84662e-06,7.89662e-05,3.19382e-05,3.0841e-05,-1.16621e-05
803,1.57334e-05,1.20348e-06,7.61554e-05,3.7989e-05,4.14172e-05,-8.96378e-06
804,1.47585e-05,-1.65496e-05,6.74828e-05,4.48618e-05,4.51542e-05,-6.17446e-06
805,1.41314e-05,-2.73483e-05,5.77321e-05,3.83621e-05,4.07026e-05,-6.26402e-06
806,1.19631e-05,-1.36054e-05,5.6077e-05,2.05064e-05,3.55145e-05,-8.66772e-06
807,7.38254e-06,6.29379e-06,6.31726e-05,1.02146e-05,3.74535e-05,-1.12091e-05
808,2.40996e-06,8.48204e-06,7.00988e-05,1.32195e-05,4.09485e-05,-1.16337e-05
809,1.32318e-06,-6.56517e-06,7.46698e-05,2.60982e-05,3.09894e-05,-9.13227e-06
810,3.9339e-06,-2.77744e-05,7.1941e-05,4.39345e-05,3.46414e-07,-4.10101e-06
811,2.36068e-06,-3.87898e-05,6.30627e-05,5.1421e-05,-2.97999e-05,4.19732e-07
812,-5.04251e-06,-2.7965e-05,6.25282e-05,4.17432e-05,-3.22711e-05,3.88929e-07
813,-9.91053e-06,-7.90714e-06,7.16597e-05,3.01715e-05,-1.14697e-05,-4.26961e-06
814,-3.17597e-06,-6.96507e-07,7.11433e-05,3.12056e-05,8.51647e-06,-9.8146e-06
815,9.20352e-06,-9.97479e-06,5.88855e-05,4.22517e-05,1.08225e-05,-1.382e-05
816,1.37109e-05,-2.88306e-05,4.91575e-05,5.34216e-05,6.83437e-06,-1.57251e-05
817,1.14998e-05,-4.47689e-05,4.78011e-05,5.44972e-05,1.40695e-05,-1.51807e-05
818,1.18618e-05,-3.89942e-05,4.60345e-05,4.39211e-05,2.10464e-05,-1.18347e-05
819,1.63321e-05,-1.5611e-05,3.45219e-05,3.51779e-05,2.08828e-05,-6.93897e-06
820,2.07916e-05,7.13438e-07,2.28194e-05,3.76047e-05,1.81359e-05,-5.32647e-06
821,1.97664e-05,-3.92488e-07,3.09235e-05,4.77738e-05,1.55044e-05,-1.07073e-05
822,1.51976e-05,-1.69308e-05,5.13801e-05,6.33338e-05,1.70075e-05,-1.83119e-05
823,1.21771e-05,-3.56747e-05,6.47671e-05,7.30991e-05,2.17995e-05,-2.00536e-05
824,1.12866e-05,-2.99179e-05,6.34091e-05,6.18766e-05,2.41869e-05,-1.36934e-05
825,1.23784e-05,-8.31721e-06,4.92479e-05,4.51625e-05,2.38993e-05,-4.43387e-06
826,1.27488e-05,1.77567e-07,3.57509e-05,3.86839e-05,2.42644e-05,8.75127e-07
827,9.61061e-06,8.76442e-08,3.72253e-05,3.66537e-05,2.29138e-05,1.99716e-06
828,3.9302e-06,-4.1422e-07,5.03902e-05,3.8859e-05,2.04378e-05,1.08893e-06
829,-1.6835e-08,-3.30588e-06,5.75367e-05,4.24494e-05,2.34161e-05,-6.76207e-07
830,-4.47844e-07,-1.32079e-05,4.88999e-05,4.60532e-05,3.24045e-05,-3.12237e-06
831,1.06248e-06,-3.31939e-05,3.21628e-05,5.08604e-05,3.91019e-05,-7.08388e-06
832,1.65543e-06,-4.30411e-05,2.64039e-05,4.67585e-05,3.90421e-05,-1.06572e-05
833,8.85299e-07,-2.56302e-05,3.49551e-05,3.5076e-05,3.19004e-05,-1.2693e-05
834,9.06998e-07,7.74919e-07,4.50103e-05,3.14917e-05,2.45128e-05,-1.44896e-05
835,1.41902e-06,1.0356e-05,4.54327e-05,3.70254e-05,2.4397e-05,-1.55106e-05
836,2.57488e-07,-3.86517e-08,3.9514e-05,4.73426e-05,2.522e-05,-1.38707e-05
837,-1.39423e-06,-1.91632e-05,3.29142e-05,6.03518e-05,2.42586e-05,-8.98916e-06
838,-2.30336e-08,-2.76551e-05,2.80152e-05,6.2129e-05,2.61606e-05,-1.59137e-06
839,2.70285e-06,-1.50115e-05,3.17426e-05,4.74292e-05,2.91507e-05,5.07986e-06
840,1.16208e-06,5.55337e-06,4.18306e-05,3.23172e-05,3.19099e-05,6.69337e-06
841,6.50474e-07,1.54581e-05,4.90275e-05,2.80809e-05,3.19331e-05,3.28359e-06
842,4.48451e-06,9.06262e-06,4.49326e-05,3.03805e-05,1.97537e-05,-5.56984e-07
843,8.28531e-06,-1.12941e-05,3.22901e-05,3.46066e-05,2.94975e-06,-1.99314e-06
844,8.98974e-06,-3.00742e-05,2.28331e-05,3.47318e-05,-5.66846e-06,-1.72892e-06
845,8.26939e-06,-2.49959e-05,1.35762e-05,2.71084e-05,-1.00435e-05,-5.02315e-07
846,1.01772e-05,-1.40907e-06,2.97413e-06,2.15829e-05,-1.07198e-05,-2.59119e-07
847,1.31192e-05,1.37621e-05,2.71878e-06,2.43289e-05,-9.54465e-06,-3.39211e-06
848,1.29454e-05,9.70328e-06,2.06514e-05,3.18343e-05,-6.39011e-06,-9.23334e-06
849,9.08677e-06,-8.10652e-06,4.01943e-05,4.4833e-05,4.1445e-06,-1.49992e-05
850,3.64013e-06,-2.45668e-05,4.75346e-05,5.37654e-05,1.98711e-05,-1.80522e-05
851,-2.1369e-08,-1.52345e-05,4.12938e-05,4.30393e-05,2.55384e-05,-1.76919e-05
852,7.54375e-07,1.0941e-05,2.58357e-05,2.80503e-05,1.56307e-05,-1.6483e-05
853,2.87531e-06,2.38988e-05,2.11042e-05,2.74116e-05,1.52047e-06,-1.56924e-05
854,2.80437e-06,2.4466e-05,3.93601e-05,3.37842e-05,-2.95119e-06,-1.24993e-05
855,5.05099e-07,2.37046e-05,6.26995e-05,4.06995e-05,1.29239e-06,-6.30445e-06
856,-3.69998e-06,2.2677e-05,7.07004e-05,4.39606e-05,6.44411e-06,-7.28731e-07
857,-8.90127e-06,1.28681e-05,6.38811e-05,4.77797e-05,9.65562e-06,-2.95679e-07
858,-9.20192e-06,-1.3272e-05,4.91786e-05,5.74787e-05,1.01469e-05,-3.56908e-06
859,-1.54162e-06,-3.35579e-05,3.50768e-05,5.86579e-05,1.03623e-05,-5.63288e-06
860,7.18098e-06,-2.60751e-05,3.41804e-05,4.59638e-05,1.2515e-05,-8.61837e-06
861,8.99021e-06,-6.67106e-06,4.52663e-05,3.41086e-05,1.78725e-05,-1.40047e-05
862,5.01388e-06,2.34253e-06,4.8261e-05,3.12835e-05,2.35172e-05,-1.80198e-05
863,3.73633e-06,-2.86513e-06,3.81596e-05,3.77673e-05,2.61637e-05,-1.85603e-05
864,8.35811e-06,-1.92274e-05,2.68863e-05,4.97462e-05,2.28481e-05,-1.69336e-05
865,1.41077e-05,-3.08285e-05,2.64433e-05,5.27655e-05,1.68297e-05,-1.62767e-05
866,1.72939e-05,-2.06379e-05,4.28308e-05,4.10973e-05,1.49895e-05,-1.87434e-05
867,1.72921e-05,1.59498e-06,6.51747e-05,2.81989e-05,2.31842e-05,-2.23042e-05
868,1.8243e-05,1.42046e-05,7.45248e-05,2.48491e-05,3.81056e-05,-2.25453e-05
869,2.09296e-05,1.04362e-05,7.14674e-05,2.9384e-05,4.17166e-05,-1.8921e-05
870,2.22891e-05,-5.58863e-06,7.07224e-05,3.90938e-05,2.92116e-05,-1.38803e-05
871,2.26679e-05,-1.90691e-05,7.70837e-05,4.25663e-05,1.55672e-05,-8.87886e-06
872,2.34327e-05,-1.0778e-05,7.58809e-05,2.90796e-05,1.23478e-05,-4.99951e-06
873,2.53241e-05,1.12866e-05,5.95364e-05,1.2477e-05,2.10176e-05,-4.23706e-06
874,2.59505e-05,2.12095e-05,4.58531e-05,8.70623e-06,2.5794e-05,-7.97412e-06
875,2.37653e-05,1.26037e-05,5.82332e-05,1.49338e-05,2.31528e-05,-1.36506e-05
876,2.18534e-05,-7.45896e-06,8.6054e-05,2.63681e-05,3.35485e-05,-1.7206e-05
877,2.16777e-05,-2.41503e-05,0.00010171,3.40987e-05,5.60633e-05,-1.85645e-05
878,2.28135e-05,-1.38195e-05,9.61076e-05,2.55332e-05,5.80912e-05,-1.87223e-05
879,2.34331e-05,9.50767e-06,8.02569e-05,1.52688e-05,3.43396e-05,-1.84199e-05
880,2.18011e-05,1.5585e-05,7.35146e-05,1.6472e-05,8.1064e-06,-1.98261e-05
881,1.98728e-05,1.37767e-05,8.21991e-05,1.80903e-05,-3.96634e-06,-2.13122e-05
882,1.77932e-05,1.5256e-05,9.46507e-05,1.88413e-05,-4.90209e-06,-1.92446e-05
883,1.37901e-05,1.40921e-05,0.000101902,2.0494e-05,-4.0191e-06,-1.42741e-05
884,1.11082e-05,2.52744e-06,0.000104795,2.30739e-05,-7.87658e-06,-8.9752e-06
885,1.28451e-05,-2.01111e-05,0.000101224,2.67665e-05,-1.96617e-05,-6.23854e-06
886,1.621e-05,-3.28098e-05,9.45658e-05,2.37593e-05,-2.85391e-05,-5.73586e-06
887,1.57958e-05,-2.16911e-05,9.38622e-05,1.54671e-05,-2.00028e-05,-4.08314e-06
888,9.682e-06,-2.75087e-06,9.63916e-05,1.31542e-05,3.89477e-06,-2.36869e-06
889,1.58686e-06,5.42245e-06,9.47569e-05,1.83611e-05,2.53739e-05,-3.10011e-06
890,-3.25626e-06,-1.27406e-06,8.71715e-05,2.77574e-05,3.53486e-05,-4.28751e-06
891,-2.43093e-06,-1.83489e-05,7.35039e-05,3.99066e-05,3.67481e-05,-4.58711e-06
892,8.73831e-07,-2.82136e-05,5.95866e-05,4.41555e-05,3.32601e-05,-6.34991e-06
893,3.32044e-06,-1.61121e-05,5.63054e-05,3.38123e-05,1.25364e-05,-1.21341e-05
894,4.41302e-06,5.52214e-06,6.84568e-05,2.18012e-05,-1.68482e-05,-2.00033e-05
895,4.06734e-06,1.44734e-05,8.03597e-05,2.14847e-05,-2.29549e-05,-2.53171e-05
896,4.02062e-06,5.48942e-06,7.4237e-05,3.1682e-05,-5.71446e-06,-2.7427e-05
897,6.61577e-06,-1.43603e-05,5.88735e-05,4.6707e-05,1.23191e-05,-2.81655e-05
898,9.37828e-06,-2.87288e-05,5.27966e-05,5.44605e-05,2.00797e-05,-2.79579e-05
899,9.61834e-06,-2.15063e-05,5.11479e-05,4.47378e-05,2.14665e-05,-2.6279e-05
900,9.18756e-06,-1.5568e-06,4.17139e-05,3.01199e-05,2.40016e-05,-2.21504e-05
901,8.94915e-06,8.82882e-06,2.7545e-05,2.62196e-05,2.23362e-05,-1.46049e-05
902,7.65523e-06,2.18423e-06,2.6613e-05,3.30417e-05,1.37931e-05,-6.63978e-06
903,8.78842e-06,-1.85056e-05,3.67271e-05,4.64987e-05,6.47617e-06,-4.64255e-06
904,1.23665e-05,-3.81392e-05,4.27856e-05,5.17906e-05,1.14117e-05,-1.00696e-05
905,1.59247e-05,-3.05873e-05,3.98603e-05,3.74007e-05,2.29332e-05,-1.40937e-05
906,1.81186e-05,-6.33812e-06,2.90589e-05,2.57058e-05,2.74504e-05,-1.03229e-05
907,1.95014e-05,4.72829e-06,1.82711e-05,3.20181e-05,1.86312e-05,-6.09716e-06
908,1.9766e-05,5.23655e-06,1.99452e-05,3.98099e-05,1.81807e-06,-4.40961e-06
909,1.68709e-05,4.73391e-06,3.28815e-05,3.89532e-05,-7.07194e-06,7.10703e-07
910,1.18584e-05,3.35902e-06,4.27099e-05,3.5933e-05,-1.25094e-06,7.87148e-06
911,7.48625e-06,-5.34221e-06,4.04831e-05,4.26634e-05,9.986e-06,1.02351e-05
912,4.4339e-06,-2.59841e-05,2.54378e-05,5.75031e-05,1.63916e-05,5.69519e-06
913,2.51704e-06,-4.01006e-05,8.64552e-06,6.08126e-05,1.95861e-05,-1.39541e-06
914,4.32841e-06,-2.97727e-05,6.10422e-06,4.7996e-05,1.99622e-05,-7.31679e-06
915,9.31502e-06,-5.22874e-06,1.7484e-05,3.66321e-05,1.74301e-05,-1.0001e-05
916,1.42438e-05,1.27258e-05,2.74842e-05,3.74332e-05,1.68342e-05,-8.24237e-06
917,1.84074e-05,1.24844e-05,3.22113e-05,4.87907e-05,1.9311e-05,-5.39558e-06
918,2.28411e-05,-5.84509e-06,3.13282e-05,6.25456e-05,1.89276e-05,-4.43257e-06
919,2.5934e-05,-2.3678e-05,2.74722e-05,6.40416e-05,1.52143e-05,-4.59892e-06
920,2.55868e-05,-2.0831e-05,3.27603e-05,4.91915e-05,1.06148e-05,-4.876e-06
921,2.28525e-05,-4.38274e-06,4.96279e-05,3.42065e-05,9.51805e-06,-5.36007e-06
922,2.16647e-05,3.68035e-06,5.78271e-05,3.40183e-05,1.44371e-05,-5.94829e-06
923,1.88236e-05,-3.67913e-06,5.13273e-05,4.60761e-05,1.85715e-05,-7.04717e-06
924,1.08863e-05,-1.96264e-05,4.12923e-05,5.98862e-05,2.08902e-05,-9.54382e-06
925,2.50989e-06,-2.96356e-05,3.62698e-05,6.02175e-05,2.36013e-05,-1.42678e-05
926,9.44342e-07,-1.95007e-05,3.88759e-05,4.2445e-05,2.36072e-05,-1.99796e-05
927,5.14238e-06,2.1551e-06,3.98208e-05,2.53234e-05,2.04101e-05,-2.16164e-05
928,9.86653e-06,1.4587e-05,4.25228e-05,2.25869e-05,1.24285e-05,-1.88952e-05
929,1.14241e-05,1.21168e-05,5.62639e-05,3.06871e-05,4.71781e-06,-1.84884e-05
930,9.10868e-06,-4.39275e-06,6.81564e-05,4.5781e-05,2.3184e-06,-1.93946e-05
931,4.87694e-06,-2.43053e-05,6.83924e-05,5.39683e-05,8.77126e-06,-1.50476e-05
932,2.81802e-07,-2.19495e-05,5.77367e-05,4.1036e-05,1.98474e-05,-7.37671e-06
933,-1.02237e-06,-4.63593e-06,4.33452e-05,2.56017e-05,2.48234e-05,-3.72802e-06
934,1.42256e-06,1.57023e-06,3.68157e-05,2.42823e-05,1.98313e-05,-7.14908e-06
935,6.05487e-06,-3.90196e-09,4.61699e-05,2.78332e-05,1.19269e-05,-1.36162e-05
936,1.08963e-05,-2.24261e-07,6.28147e-05,3.26815e-05,1.0407e-05,-1.97677e-05
937,1.35403e-05,1.63754e-06,6.99478e-05,3.67393e-05,1.46242e-05,-2.48456e-05
938,1.30691e-05,-3.31442e-06,6.26421e-05,4.2011e-05,1.8314e-05,-2.68624e-05
939,1.13342e-05,-2.19284e-05,4.79161e-05,5.04443e-05,1.819e-05,-2.59864e-05
940,1.12453e-05,-3.2811e-05,3.76999e-05,4.76676e-05,1.48893e-05,-2.33512e-05
941,1.37596e-05,-1.63817e-05,4.3469e-05,3.27468e-05,1.02801e-05,-1.6928e-05
942,1.66562e-05,1.07702e-05,6.08882e-05,2.39733e-05,1.06864e-05,-6.89238e-06
943,1.85552e-05,2.30581e-05,7.17677e-05,2.80855e-05,1.61707e-05,-8.80515e-07
944,1.79962e-05,1.32768e-05,7.23728e-05,3.98801e-05,1.92492e-05,-2.18633e-06
945,1.39371e-05,-9.8589e-06,6.40725e-05,5.37249e-05,1.71462e-05,-4.79933e-06
946,9.83184e-06,-2.3682e-05,5.37554e-05,5.6161e-05,1.69814e-05,-2.72124e-06
947,8.02624e-06,-1.27184e-05,5.3562e-05,4.10967e-05,1.74636e-05,2.90792e-06
948,7.45002e-06,9.63634e-06,6.17519e-05,2.33944e-05,1.84103e-05,7.09203e-06
949,7.39238e-06,2.0767e-05,6.24825e-05,1.89671e-05,2.07409e-05,9.25372e-06
950,9.36252e-06,1.48666e-05,5.05133e-05,2.82909e-05,2.06548e-05,1.06081e-05
951,1.52314e-05,-2.20071e-06,3.62732e-05,4.37932e-05,2.15395e-05,1.06693e-05
952,1.91441e-05,-1.42926e-05,3.33818e-05,5.10618e-05,2.04007e-05,9.71583e-06
953,1.94411e-05,-4.3091e-06,3.62013e-05,4.11169e-05,1.3123e-05,9.58727e-06
954,2.16139e-05,1.78888e-05,2.75627e-05,2.87878e-05,8.23252e-06,1.03311e-05
955,2.37948e-05,2.80629e-05,1.86805e-05,2.85385e-05,1.64949e-05,9.17418e-06
956,2.25481e-05,2.11265e-05,2.85212e-05,3.75482e-05,3.39188e-05,4.5188e-06
957,1.90219e-05,1.83605e-06,4.5639e-05,5.19091e-05,5.01878e-05,-7.66058e-07
958,1.71969e-05,-1.69961e-05,5.50975e-05,6.03971e-05,5.97392e-05,-5.19289e-06
959,1.64021e-05,-9.54707e-06,5.06821e-05,4.90464e-05,6.00778e-05,-7.86284e-06
960,1.39183e-05,1.21133e-05,3.53564e-05,3.39005e-05,5.86812e-05,-6.37391e-06
961,9.90744e-06,1.7047e-05,2.47095e-05,2.82253e-05,5.89941e-05,-2.16644e-06
962,5.2341e-06,1.45761e-05,3.30541e-05,2.51383e-05,4.80065e-05,3.02307e-06
963,2.24764e-06,1.7593e-05,5.09392e-05,2.65865e-05,1.35584e-05,6.62571e-06
964,3.07544e-06,2.20722e-05,5.8731e-05,2.97022e-05,-3.1741e-05,4.58419e-06
965,6.45416e-06,1.80193e-05,5.40248e-05,3.31062e-05,-5.91019e-05,-2.27846e-06
966,8.84172e-06,1.66283e-06,4.50547e-05,4.03664e-05,-5.44865e-05,-9.93086e-06
967,9.32216e-06,-7.04875e-06,4.20667e-05,4.2813e-05,-3.08586e-05,-1.43625e-05
968,8.655e-06,5.48313e-06,5.10598e-05,3.70984e-05,-1.16596e-05,-1.1958e-05
969,8.52753e-06,2.14882e-05,6.30376e-05,3.37458e-05,-4.11356e-06,-4.16228e-06
970,9.06369e-06,2.31293e-05,6.62141e-05,3.65451e-05,9.11231e-07,3.1949e-06
971,8.12378e-06,1.13916e-05,6.16951e-05,4.39593e-05,9.10245e-06,5.82508e-06
972,5.11337e-06,-7.7789e-06,5.0194e-05,5.40604e-05,1.59519e-05,3.44445e-06
973,2.80913e-06,-1.86584e-05,3.76694e-05,5.37815e-05,1.67651e-05,-4.10039e-07
974,3.11702e-06,-8.74834e-06,4.15511e-05,3.78183e-05,1.16505e-05,-2.88044e-06
975,3.63286e-06,9.30391e-06,6.1719e-05,2.15424e-05,5.96215e-06,-4.17414e-06
976,2.31019e-06,1.48618e-05,8.05567e-05,1.92092e-05,5.77156e-06,-4.61029e-06
977,2.3494e-07,5.85147e-06,8.69162e-05,3.10153e-05,7.43428e-06,-3.10156e-06
978,2.19602e-06,-1.06515e-05,8.88742e-05,4.97903e-05,9.33146e-06,1.39874e-06
979,8.33225e-06,-2.24475e-05,9.88263e-05,5.65647e-05,1.34102e-05,9.51796e-06
980,1.47449e-05,-1.48298e-05,9.81898e-05,3.92005e-05,1.97103e-05,1.85727e-05
981,1.92382e-05,3.15641e-06,7.84335e-05,1.83121e-05,3.02569e-05,2.06329e-05
982,2.01423e-05,9.55745e-06,5.89209e-05,1.42324e-05,3.41859e-05,1.13107e-05
983,1.71109e-05,4.41225e-07,5.84634e-05,2.33178e-05,2.15773e-05,-1.51776e-06
984,1.36864e-05,-2.17533e-05,6.65164e-05,4.07323e-05,5.31182e-06,-7.35643e-06
985,1.38311e-05,-4.51852e-05,7.04058e-05,5.15265e-05,2.85562e-06,-5.69518e-06
986,1.69125e-05,-4.18521e-05,6.74636e-05,3.87846e-05,1.20429e-05,-2.54504e-06
987,1.99793e-05,-1.96017e-05,5.52062e-05,2.39233e-05,2.07839e-05,-3.19398e-06
988,2.09892e-05,-7.42691e-06,4.41165e-05,2.49189e-05,2.22997e-05,-3.21476e-06
989,1.95129e-05,-3.53887e-06,4.58832e-05,2.85743e-05,1.79344e-05,6.46426e-06
990,1.65574e-05,4.15009e-07,5.32504e-05,3.12906e-05,1.38998e-05,2.14935e-05
991,1.62903e-05,3.23899e-06,5.39319e-05,3.46672e-05,1.47864e-05,3.10289e-05
992,1.88991e-05,-1.49089e-06,5.00481e-05,4.00719e-05,1.73318e-05,3.1903e-05
993,2.1394e-05,-1.94127e-05,4.40184e-05,4.86733e-05,1.5947e-05,2.51998e-05
994,2.15977e-05,-3.1859e-05,3.79368e-05,4.86713e-05,1.12028e-05,1.08789e-05
995,1.98241e-05,-1.99914e-05,4.09398e-05,3.91746e-05,4.32625e-06,-8.77353e-06
996,1.78748e-05,-6.76869e-07,4.91483e-05,3.39367e-05,1.16742e-06,-2.43413e-05
997,1.63448e-05,3.94166e-06,4.5149e-05,3.69183e-05,5.80789e-06,-3.00519e-05
998,1.60816e-05,-8.31702e-06,3.52751e-05,4.67982e-05,1.10755e-05,-3.10315e-05
999,1.93034e-05,-2.9284e-05,2.9621e-05,6.21317e-05,1.12974e-05,-3.30163e-05
1000,2.58214e-05,-4.08748e-05,2.75751e-05,6.75841e-05,7.86694e-06,-3.30405e-05
1001,2.75148e-05,-3.07799e-05,3.40598e-05,5.27922e-05,5.66385e-06,-2.54808e-05
1002,2.2311e-05,-1.00831e-05,4.63612e-05,3.27365e-05,1.70547e-05,-1.43703e-05
1003,1.75108e-05,1.83243e-06,5.63276e-05,2.49008e-05,4.87071e-05,-1.01579e-05
1004,1.85708e-05,-2.14731e-06,6.54685e-05,3.07468e-05,7.54931e-05,-1.4706e-05
1005,2.4059e-05,-1.93777e-05,7.16111e-05,4.43899e-05,7.48842e-05,-2.01539e-05
1006,2.92565e-05,-3.43955e-05,7.58358e-05,5.195e-05,4.9822e-05,-2.0583e-05
1007,3.33559e-05,-2.65078e-05,7.71375e-05,4.31847e-05,9.06395e-06,-1.63476e-05
1008,3.61472e-05,-1.14863e-06,7.01318e-05,3.14317e-05,-2.8073e-05,-1.25445e-05
1009,3.68378e-05,1.56899e-05,5.7772e-05,3.07175e-05,-4.29406e-05,-1.20359e-05
1010,3.35383e-05,1.06527e-05,5.5735e-05,3.68075e-05,-3.01021e-05,-9.85474e-06
1011,3.04596e-05,-1.4728e-05,6.51198e-05,4.64797e-05,1.01705e-06,-3.44105e-06
1012,3.33797e-05,-4.00701e-05,7.74465e-05,5.28128e-05,2.88203e-05,2.67427e-06
1013,3.71441e-05,-3.29851e-05,8.01914e-05,4.29578e-05,3.66436e-05,4.93697e-06
1014,3.66748e-05,-5.85317e-06,6.63202e-05,3.12941e-05,2.75591e-05,3.50597e-06
1015,3.2768e-05,6.2627e-06,4.82128e-05,3.13466e-05,1.34989e-05,1.69506e-06
1016,2.72366e-05,6.4619e-06,4.36862e-05,3.20021e-05,3.28749e-06,-3.64286e-07
1017,2.04988e-05,6.46194e-06,5.34251e-05,2.92133e-05,1.38179e-06,-4.75785e-06
1018,1.34862e-05,6.69151e-06,6.12878e-05,2.67639e-05,4.63094e-06,-9.67186e-06
1019,9.27175e-06,-1.95821e-06,5.84659e-05,3.10169e-05,5.92566e-06,-1.30545e-05
1020,9.75269e-06,-2.51908e-05,4.58744e-05,4.11458e-05,4.66404e-06,-1.61592e-05
1021,1.20371e-05,-3.93064e-05,3.76328e-05,4.22174e-05,6.7562e-06,-1.93998e-05
1022,1.15441e-05,-2.52662e-05,4.63932e-05,3.19051e-05,1.53154e-05,-2.19014e-05
1023,9.27673e-06,-8.97592e-07,6.12673e-05,2.53412e-05,2.78699e-05,-2.49735e-05
1024,8.17231e-06,1.021e-05,6.22275e-05,2.76898e-05,3.97519e-05,-2.70605e-05
1025,8.77991e-06,2.97226e-06,5.17901e-05,3.48502e-05,4.29463e-05,-2.54791e-05
1026,1.12662e-05,-1.60035e-05,4.01157e-05,4.41244e-05,3.2722e-05,-2.28752e-05
1027,1.46575e-05,-2.89997e-05,3.27742e-05,4.28572e-05,1.62328e-05,-2.44946e-05
1028,1.57871e-05,-2.24181e-05,3.50673e-05,2.55145e-05,-3.36972e-06,-3.1027e-05
1029,1.64754e-05,-5.39538e-06,4.82532e-05,1.07736e-05,-2.16824e-05,-3.58174e-05
1030,1.985e-05,3.95207e-06,6.44499e-05,1.3918e-05,-2.1338e-05,-3.28124e-05
1031,1.86885e-05,-1.77092e-06,7.13421e-05,2.94817e-05,1.26065e-06,-2.47965e-05
1032,1.34151e-05,-2.0713e-05,6.26241e-05,4.67493e-05,2.24054e-05,-1.96547e-05
1033,9.99815e-06,-3.54283e-05,5.4476e-05,5.16602e-05,1.92738e-05,-1.94434e-05
1034,8.31409e-06,-2.45682e-05,5.46917e-05,3.56561e-05,-4.33472e-06,-2.02053e-05
1035,9.97182e-06,1.14414e-06,4.86477e-05,1.76898e-05,-2.30799e-05,-1.99652e-05
1036,1.49355e-05,1.29313e-05,3.38925e-05,1.83387e-05,-2.20213e-05,-2.06728e-05
1037,1.85489e-05,3.30396e-06,3.00786e-05,3.35859e-05,-8.65637e-06,-2.29287e-05
1038,1.90334e-05,-2.08421e-05,3.68678e-05,5.35073e-05,8.94434e-06,-2.28501e-05
1039,1.67164e-05,-4.1184e-05,4.01104e-05,6.16952e-05,2.49151e-05,-1.97122e-05
1040,1.36923e-05,-3.0238e-05,3.20935e-05,4.59844e-05,3.29154e-05,-1.64596e-05
1041,1.20534e-05,-3.31725e-06,2.09752e-05,3.33406e-05,3.24727e-05,-1.28063e-05
1042,1.00541e-05,4.56583e-06,2.23017e-05,3.9183e-05,2.45343e-05,-7.3349e-06
1043,7.90715e-06,-1.72004e-06,3.94477e-05,4.4331e-05,1.56286e-05,-1.96975e-06
1044,7.6516e-06,-7.46965e-06,5.73928e-05,4.52123e-05,1.66812e-05,-1.59757e-06
1045,8.93276e-06,-9.60901e-06,6.01214e-05,4.45928e-05,2.76074e-05,-5.37674e-06
1046,9.5811e-06,-1.69818e-05,5.10781e-05,4.6573e-05,3.89988e-05,-7.138e-06
1047,9.34212e-06,-4.03769e-05,3.65903e-05,5.18383e-05,4.54117e-05,-4.21121e-06
1048,8.68773e-06,-6.07524e-05,2.48879e-05,4.63239e-05,4.53033e-05,1.22592e-06
1049,6.60204e-06,-5.29347e-05,2.63165e-05,3.15716e-05,4.12338e-05,7.18891e-06
1050,3.64295e-06,-2.70473e-05,3.83249e-05,2.59984e-05,3.90248e-05,1.3221e-05
1051,1.88882e-06,-1.11152e-05,4.41372e-05,3.14054e-05,3.53356e-05,1.88095e-05
1052,1.06735e-06,-1.73265e-05,4.44926e-05,3.94919e-05,2.20374e-05,2.22498e-05
1053,2.06852e-06,-3.75236e-05,4.24946e-05,5.00864e-05,3.94602e-06,1.94583e-05
1054,3.05735e-06,-4.79121e-05,3.85858e-05,5.57409e-05,-8.95116e-07,1.09984e-05
1055,5.15936e-08,-3.37061e-05,4.15096e-05,4.8843e-05,7.56033e-06,1.99936e-06
1056,-4.82056e-06,-1.01063e-05,5.45618e-05,3.82326e-05,1.06829e-05,-4.51292e-06
1057,-4.9867e-06,4.72183e-08,6.24292e-05,3.54303e-05,1.96947e-06,-8.58969e-06
1058,6.47812e-07,-7.07035e-06,5.72019e-05,4.24191e-05,-3.82521e-06,-9.53449e-06
1059,5.15174e-06,-2.46494e-05,4.92119e-05,5.49331e-05,6.68874e-06,-7.91334e-06
1060,2.06546e-06,-3.80676e-05,4.65222e-05,5.85178e-05,2.30872e-05,-7.6849e-06
1061,-2.75905e-06,-3.00762e-05,4.75248e-05,4.3011e-05,2.8444e-05,-1.03787e-05
1062,-9.33626e-08,-8.62036e-06,4.24178e-05,2.20691e-05,1.8668e-05,-1.19732e-05
1063,7.90719e-06,2.75862e-06,3.93338e-05,1.26913e-05,7.85357e-06,-9.89017e-06
1064,1.27059e-05,-2.91448e-06,5.4825e-05,1.91199e-05,1.96842e-06,-5.53047e-06
1065,1.37785e-05,-2.4383e-05,7.02969e-05,3.99209e-05,-4.56929e-06,-8.16785e-08
1066,1.55042e-05,-4.72187e-05,6.88317e-05,5.77604e-05,-1.06436e-05,1.39372e-06
1067,1.80246e-05,-4.0976e-05,5.85637e-05,5.04164e-05,-9.41545e-06,-3.60082e-06
1068,1.91976e-05,-1.53864e-05,5.14379e-05,3.30709e-05,3.18895e-06,-9.49711e-06
1069,1.67078e-05,-2.68515e-06,4.96874e-05,2.93257e-05,2.1067e-05,-1.21415e-05
1070,1.23124e-05,-4.43698e-07,5.47661e-05,3.32099e-05,3.62823e-05,-1.22674e-05
1071,8.97706e-06,7.79986e-07,6.19531e-05,3.48833e-05,4.36005e-05,-1.30406e-05
1072,6.20142e-06,-1.1845e-06,6.37661e-05,3.12846e-05,4.06985e-05,-1.42641e-05
1073,2.1596e-06,-1.10095e-05,5.83053e-05,3.1404e-05,2.89956e-05,-1.33743e-05
1074,-1.63972e-07,-2.94064e-05,4.51395e-05,4.09953e-05,1.78641e-05,-1.09854e-05
1075,2.1055e-06,-3.80655e-05,3.52013e-05,4.32772e-05,1.32736e-05,-1.03159e-05
1076,5.9181e-06,-2.34003e-05,4.38931e-05,3.17543e-05,1.01816e-05,-1.25163e-05
1077,8.2755e-06,-5.19288e-07,6.28527e-05,2.27318e-05,7.35547e-06,-1.33547e-05
1078,1.08874e-05,1.26567e-05,6.89895e-05,2.61588e-05,1.01555e-05,-9.75382e-06
1079,1.38568e-05,1.18388e-05,6.09339e-05,3.84225e-05,1.47017e-05,-4.2863e-06
1080,1.68824e-05,-1.21393e-07,4.46656e-05,5.21067e-05,1.63361e-05,-2.40752e-06
1081,2.07011e-05,-7.98752e-06,3.07012e-05,5.41686e-05,1.9669e-05,-6.30326e-06
1082,2.18224e-05,2.36724e-06,3.25149e-05,4.10969e-05,2.31186e-05,-1.17248e-05
1083,1.65929e-05,2.03086e-05,4.93353e-05,2.7994e-05,2.16325e-05,-1.29909e-05
1084,9.97772e-06,2.57148e-05,5.89674e-05,2.71447e-05,1.38603e-05,-1.13638e-05
1085,1.00438e-05,1.48916e-05,4.96399e-05,3.65012e-05,2.73106e-06,-1.25183e-05
1086,1.32003e-05,-5.05012e-06,3.79234e-05,4.83701e-05,-1.78443e-07,-1.8267e-05
1087,9.75991e-06,-1.95081e-05,4.20729e-05,4.91698e-05,7.46291e-06,-2.49357e-05
1088,2.26005e-06,-1.26788e-05,4.72614e-05,3.32722e-05,1.79886e-05,-2.74102e-05
1089,3.06072e-07,6.8478e-06,3.65579e-05,2.00134e-05,2.43508e-05,-2.52718e-05
1090,3.5476e-06,1.52921e-05,2.21699e-05,2.35947e-05,2.33303e-05,-2.35128e-05
1091,3.97188e-06,5.23659e-06,2.43921e-05,3.56145e-05,2.21261e-05,-2.4742e-05
1092,3.55595e-07,-1.78752e-05,3.91461e-05,5.05716e-05,2.97597e-05,-2.55555e-05
1093,-2.00601e-06,-3.80464e-05,5.17752e-05,5.757e-05,4.00846e-05,-2.31233e-05
1094,-9.03347e-07,-3.22292e-05,5.28053e-05,4.20658e-05,3.81763e-05,-1.94472e-05
1095,2.6241e-06,-1.37484e-05,3.6938e-05,2.48892e-05,2.1316e-05,-1.89708e-05
1096,4.99622e-06,-9.23396e-06,2.15158e-05,2.5136e-05,1.3898e-06,-2.21793e-05
1097,3.3332e-06,-1.04212e-05,2.81912e-05,2.9887e-05,-9.77542e-06,-2.52462e-05
1098,-5.94574e-07,-7.17122e-06,4.67251e-05,3.32606e-05,-8.46305e-06,-2.5125e-05
1099,-2.60509e-06,-3.32178e-06,5.52908e-05,3.70242e-05,1.51649e-06,-2.00436e-05
1100,-8.82337e-07,-9.20065e-06,5.13952e-05,4.24095e-05,1.18043e-05,-1.00744e-05
1101,2.82347e-06,-2.86116e-05,4.2988e-05,4.95317e-05,1.8482e-05,-1.01314e-07
1102,5.43942e-06,-3.919e-05,3.94491e-05,4.62176e-05,2.20948e-05,2.40974e-06
1103,3.40026e-06,-2.40766e-05,4.7032e-05,3.16422e-05,2.52669e-05,-4.1372e-06
1104,-2.31597e-06,-1.36114e-06,5.88992e-05,2.30126e-05,3.24326e-05,-1.52902e-05
1105,-6.33419e-06,7.83966e-06,6.19307e-05,2.64141e-05,4.26998e-05,-2.60368e-05
1106,-6.87744e-06,2.37245e-07,5.67444e-05,3.88247e-05,4.71858e-05,-2.95595e-05
1107,-3.86067e-06,-1.98312e-05,4.62878e-05,5.2922e-05,4.27077e-05,-2.28374e-05
1108,1.86029e-06,-3.34755e-05,3.25804e-05,5.11063e-05,2.91694e-05,-1.245e-05
1109,3.4833e-06,-2.41076e-05,2.74445e-05,2.9972e-05,-1.38791e-06,-6.74032e-06
1110,2.97817e-07,-3.84327e-06,3.0545e-05,1.08706e-05,-4.06456e-05,-5.97926e-06
1111,1.82566e-07,4.88281e-06,3.15468e-05,1.0522e-05,-5.47132e-05,-6.16076e-06
1112,2.99982e-06,-1.54814e-06,2.89725e-05,2.5894e-05,-3.52048e-05,-6.00312e-06
1113,4.29571e-06,-1.54024e-05,3.44091e-05,4.50992e-05,-6.81271e-06,-5.71762e-06
1114,6.32669e-06,-2.30904e-05,5.40009e-05,5.08798e-05,9.58678e-06,-4.82346e-06
1115,1.09383e-05,-1.13144e-05,6.46855e-05,3.47623e-05,1.1554e-05,-3.03421e-06
1116,1.37108e-05,9.25389e-06,5.59661e-05,1.46641e-05,9.62512e-06,-1.95779e-06
1117,1.29487e-05,1.70175e-05,4.1003e-05,9.75498e-06,1.13222e-05,-3.39907e-06
1118,9.46002e-06,9.27524e-06,4.24112e-05,1.75806e-05,1.53124e-05,-5.23931e-06
1119,5.0312e-06,-9.79737e-06,5.68134e-05,3.24806e-05,1.78767e-05,-4.75899e-06
1120,2.64719e-06,-2.86231e-05,6.79935e-05,4.34882e-05,1.62649e-05,-5.47501e-06
1121,4.09681e-06,-2.04194e-05,7.00832e-05,3.5079e-05,1.13586e-05,-1.0244e-05
1122,9.68262e-06,5.23646e-06,6.3804e-05,2.25266e-05,5.7883e-06,-1.24464e-05
1123,1.54604e-05,1.54381e-05,5.89229e-05,2.21015e-05,1.17811e-07,-8.06029e-06
1124,1.59884e-05,1.07259e-05,6.82601e-05,2.25527e-05,-4.5962e-06,-4.16245e-06
1125,1.26505e-05,2.20549e-06,8.95118e-05,1.95711e-05,2.54356e-07,-6.03276e-06
1126,9.42576e-06,-4.578e-06,0.000102364,1.81236e-05,1.94203e-05,-1.14517e-05
1127,7.94776e-06,-1.18083e-05,9.52789e-05,2.34653e-05,3.4809e-05,-1.72772e-05
1128,8.06383e-06,-2.53908e-05,7.4152e-05,3.26709e-05,2.77443e-05,-2.30889e-05
1129,9.26786e-06,-3.06118e-05,5.9052e-05,3.24198e-05,7.52899e-06,-2.825e-05
1130,1.09333e-05,-1.44047e-05,6.52673e-05,2.39341e-05,-3.23774e-06,-3.01266e-05
1131,1.20648e-05,8.6607e-06,8.16795e-05,1.94236e-05,8.36352e-07,-2.7026e-05
1132,1.29939e-05,1.93464e-05,8.492e-05,2.21858e-05,9.96808e-06,-2.13328e-05
1133,1.38263e-05,1.16149e-05,7.63395e-05,3.3193e-05,1.45017e-05,-1.57732e-05
1134,1.53441e-05,-9.78055e-06,6.41346e-05,4.92983e-05,1.51471e-05,-1.09478e-05
1135,1.75637e-05,-2.5319e-05,5.54041e-05,5.32832e-05,1.57222e-05,-8.03975e-06
1136,1.69155e-05,-1.99344e-05,6.24176e-05,3.73719e-05,1.72647e-05,-8.51306e-06
1137,1.34103e-05,-3.13853e-06,7.96277e-05,2.12998e-05,2.42845e-05,-1.1158e-05
1138,1.28081e-05,7.478e-06,8.66386e-05,2.3243e-05,3.63535e-05,-1.33035e-05
1139,1.51617e-05,4.96183e-06,7.34146e-05,3.9586e-05,3.81677e-05,-1.3585e-05
1140,1.76582e-05,-9.89942e-06,5.62843e-05,5.70615e-05,3.18684e-05,-1.27996e-05
1141,1.92758e-05,-2.29747e-05,5.49175e-05,5.87985e-05,2.72536e-05,-1.34143e-05
1142,2.13445e-05,-1.40269e-05,5.75553e-05,4.22496e-05,2.30725e-05,-1.38328e-05
1143,2.47134e-05,9.85518e-06,4.98168e-05,2.932e-05,2.3882e-05,-1.03019e-05
1144,2.76506e-05,2.29301e-05,3.98874e-05,3.26138e-05,2.63296e-05,-3.46713e-06
1145,2.69093e-05,1.55675e-05,4.41036e-05,4.3396e-05,2.62359e-05,3.25642e-06
1146,2.27337e-05,-8.58482e-06,4.91792e-05,5.51978e-05,2.57364e-05,6.75439e-06
1147,2.00195e-05,-2.9917e-05,4.77429e-05,5.9116e-05,2.60311e-05,6.34655e-06
1148,1.96551e-05,-2.01445e-05,4.20476e-05,4.59373e-05,2.3821e-05,3.1731e-06
1149,1.92306e-05,4.18553e-06,3.09966e-05,3.27172e-05,1.89924e-05,-4.19014e-06
1150,1.69532e-05,1.16833e-05,2.3781e-05,3.06166e-05,1.42579e-05,-1.45262e-05
1151,1.2569e-05,1.14153e-05,3.02716e-05,2.83472e-05,1.20716e-05,-2.24236e-05
1152,7.33764e-06,1.57091e-05,4.56467e-05,2.72509e-05,1.38425e-05,-2.81508e-05
1153,3.12778e-06,2.0961e-05,5.77484e-05,2.96482e-05,1.7237e-05,-3.0995e-05
1154,1.65237e-06,1.4766e-05,6.27602e-05,3.51921e-05,1.69132e-05,-2.60247e-05
1155,2.96943e-06,-8.22213e-06,5.6888e-05,4.15675e-05,1.35358e-05,-1.80866e-05
1156,5.80727e-06,-2.22112e-05,4.93354e-05,3.64561e-05,1.05871e-05,-1.63532e-05
1157,7.45805e-06,-6.21458e-06,5.54403e-05,2.39114e-05,7.91057e-06,-1.946e-05
1158,4.54021e-06,1.98427e-05,7.01992e-05,2.1169e-05,9.17716e-06,-2.09788e-05
1159,-1.14468e-06,2.9675e-05,7.76228e-05,3.05758e-05,1.5741e-05,-1.9215e-05
1160,-3.35825e-06,1.98005e-05,7.79379e-05,4.71361e-05,2.04409e-05,-1.58674e-05
1161,1.69945e-07,-1.38243e-06,7.13079e-05,6.48095e-05,1.89139e-05,-1.10592e-05
1162,4.60407e-06,-1.59048e-05,6.14409e-05,6.76985e-05,1.31452e-05,-3.06633e-06
1163,5.33702e-06,-8.56519e-06,5.97509e-05,5.06317e-05,6.50365e-06,6.4732e-06
1164,5.65514e-06,1.27078e-05,7.0282e-05,3.19304e-05,6.72901e-06,1.26016e-05
1165,8.90243e-06,2.64963e-05,7.90145e-05,2.68303e-05,1.68371e-05,1.13527e-05
1166,9.35124e-06,2.27868e-05,7.31582e-05,3.34438e-05,2.62776e-05,4.47555e-06
1167,7.68768e-06,5.9663e-06,5.52674e-05,4.53795e-05,2.61484e-05,-2.42387e-06
1168,1.05372e-05,-8.22449e-06,4.62284e-05,5.0649e-05,1.70574e-05,-7.67266e-06
1169,1.55535e-05,-4.5562e-06,4.841e-05,4.13424e-05,2.05123e-06,-1.28946e-05
1170,2.17608e-05,9.50687e-06,4.22272e-05,3.1504e-05,-6.95787e-06,-1.53833e-05
1171,2.89463e-05,1.83615e-05,3.49408e-05,3.2845e-05,-5.43104e-06,-1.23551e-05
1172,3.05485e-05,1.64451e-05,4.48296e-05,3.97911e-05,1.32573e-06,-1.0381e-05
1173,2.65496e-05,-5.96097e-07,5.94565e-05,5.07137e-05,1.40663e-05,-1.43046e-05
1174,2.46599e-05,-1.93333e-05,6.47195e-05,5.92937e-05,3.16632e-05,-1.96941e-05
1175,2.62252e-05,-1.19588e-05,5.78804e-05,5.21725e-05,3.99052e-05,-2.06413e-05
1176,2.92317e-05,9.71701e-06,4.25146e-05,4.08084e-05,3.28052e-05,-1.77775e-05
1177,3.06404e-05,1.54399e-05,3.56164e-05,3.8611e-05,1.83057e-05,-1.6698e-05
1178,2.77628e-05,9.09269e-06,4.97532e-05,3.96293e-05,6.74234e-06,-1.56809e-05
1179,2.24774e-05,4.63596e-06,7.21466e-05,4.3308e-05,3.55541e-06,-1.20227e-05
1180,1.83834e-05,3.94182e-06,8.10393e-05,4.8046e-05,8.0139e-06,-9.34732e-06
1181,1.86503e-05,-3.24293e-06,7.40435e-05,5.15503e-05,1.42532e-05,-8.64549e-06
1182,2.13723e-05,-2.48562e-05,5.90504e-05,5.42019e-05,1.74877e-05,-7.85599e-06
1183,2.32126e-05,-3.98929e-05,4.59444e-05,4.71616e-05,1.73279e-05,-6.70514e-06
1184,2.20425e-05,-2.75188e-05,4.59683e-05,3.09838e-05,1.24648e-05,-6.19468e-06
1185,2.00054e-05,-1.5614e-06,5.92198e-05,2.26205e-05,7.30562e-06,-5.08895e-06
1186,1.99233e-05,1.53432e-05,6.80835e-05,2.83402e-05,7.62394e-06,-2.50436e-06
1187,2.09334e-05,1.49891e-05,6.63405e-05,4.00986e-05,1.2593e-05,1.26741e-06
1188,2.18581e-05,6.2566e-08,5.7644e-05,5.04783e-05,1.56223e-05,4.26969e-06
1189,2.28715e-05,-1.15647e-05,4.52526e-05,4.98761e-05,1.75242e-05,1.72283e-06
1190,2.17766e-05,-3.93669e-06,3.88808e-05,3.63035e-05,1.83797e-05,-7.10803e-06
1191,1.92955e-05,1.34253e-05,4.50836e-05,2.50494e-05,1.69732e-05,-1.60729e-05
1192,1.40665e-05,2.05022e-05,5.86508e-05,2.61264e-05,1.52533e-05,-2.0158e-05
1193,8.64147e-06,1.16338e-05,6.59585e-05,3.37023e-05,1.62448e-05,-1.87412e-05
1194,1.00149e-05,-7.30173e-06,6.5223e-05,4.19706e-05,1.64432e-05,-1.46283e-05
1195,1.49079e-05,-2.13383e-05,6.90302e-05,4.19593e-05,1.51769e-05,-1.26776e-05
1196,1.81186e-05,-1.36282e-05,6.89625e-05,2.80261e-05,1.72007e-05,-1.33767e-05
1197,1.77135e-05,1.05184e-05,5.53737e-05,1.75807e-05,2.09643e-05,-1.24499e-05
1198,1.52904e-05,2.9228e-05,3.91076e-05,2.25894e-05,2.11545e-05,-8.57879e-06
1199,1.07802e-05,2.79596e-05,4.02691e-05,3.23144e-05,1.591e-05,-5.29237e-06
1200,7.59222e-06,3.36106e-06,4.97507e-05,4.45927e-05,1.42908e-05,-6.18718e-06
1201,6.01198e-06,-2.31507e-05,5.47837e-05,5.5436e-05,1.98487e-05,-1.24777e-05
1202,6.60938e-06,-1.57407e-05,5.95051e-05,4.9423e-05,2.79175e-05,-1.81187e-05
1203,9.71344e-06,1.04918e-05,6.24296e-05,3.78049e-05,2.95658e-05,-1.8333e-05
1204,1.38108e-05,1.85193e-05,6.01416e-05,3.59587e-05,2.06095e-05,-1.83358e-05
1205,1.58719e-05,1.47658e-05,5.95726e-05,3.58809e-05,7.11406e-06,-1.8961e-05
1206,1.49495e-05,1.25117e-05,6.4234e-05,3.40179e-05,-1.3993e-06,-1.43328e-05
1207,1.2799e-05,1.04363e-05,6.62251e-05,3.32267e-05,-1.71922e-06,-5.2016e-06
1208,1.12098e-05,1.10879e-06,6.15221e-05,3.84865e-05,-3.03178e-07,1.26014e-06
1209,1.20194e-05,-1.95129e-05,5.08446e-05,4.78828e-05,-1.8549e-06,1.20193e-06
1210,1.31993e-05,-3.21219e-05,4.47285e-05,4.48942e-05,-4.78145e-06,-2.75217e-06
1211,1.17732e-05,-2.16226e-05,5.2596e-05,3.0125e-05,-3.72601e-06,-4.99439e-06
1212,7.74336e-06,-3.79677e-06,6.59888e-05,2.37679e-05,2.43822e-06,-3.24488e-06
1213,5.90757e-06,2.16397e-06,6.81201e-05,3.20282e-05,1.07787e-05,3.43625e-07
1214,6.82566e-06,-7.17048e-06,5.93522e-05,4.91011e-05,1.8592e-05,3.11645e-06
1215,9.82489e-06,-2.50378e-05,4.8239e-05,6.5443e-05,2.45839e-05,3.3604e-06
1216,1.24875e-05,-3.42299e-05,4.81268e-05,6.35657e-05,2.25307e-05,2.222e-06
1217,1.34258e-05,-2.36853e-05,6.48243e-05,4.16409e-05,5.85715e-06,6.19815e-07
1218,1.38661e-05,-5.63506e-06,8.49013e-05,2.35672e-05,-1.23142e-05,-2.07606e-06
1219,1.39415e-05,1.23843e-06,8.7164e-05,2.58066e-05,-1.39298e-05,-4.71318e-06
1220,1.41196e-05,-7.35473e-06,7.37957e-05,4.15305e-05,-6.54069e-06,-5.57352e-06
1221,1.43255e-05,-2.76989e-05,6.49427e-05,5.74595e-05,-4.07382e-07,-5.1493e-06
1222,1.29959e-05,-4.52278e-05,6.817e-05,5.83987e-05,5.99628e-06,-4.69181e-06
1223,1.42005e-05,-4.04198e-05,6.94584e-05,3.97547e-05,1.10252e-05,-3.20487e-06
1224,1.76818e-05,-1.88128e-05,5.61665e-05,2.31432e-05,1.54036e-05,1.57102e-06
1225,1.86178e-05,-3.75842e-06,3.96352e-05,2.50475e-05,1.63204e-05,7.49643e-06
1226,1.69587e-05,-3.8337e-06,3.97836e-05,3.63665e-05,6.48702e-06,9.87171e-06
1227,1.63928e-05,-1.69435e-05,5.00249e-05,4.75118e-05,-3.92247e-06,9.37616e-06
1228,1.75053e-05,-3.14928e-05,5.33659e-05,5.04355e-05,-4.46012e-06,8.17518e-06
1229,1.94533e-05,-2.13193e-05,4.08177e-05,4.07805e-05,-3.29811e-07,6.14745e-06
1230,2.22895e-05,3.7089e-06,1.94305e-05,3.62004e-05,2.47676e-06,3.81369e-06
1231,2.3517e-05,1.14411e-05,6.78557e-06,3.97634e-05,-7.55304e-08,3.30105e-06
1232,2.12748e-05,8.57241e-06,1.00098e-05,3.55505e-05,-6.46344e-06,3.93086e-06
1233,1.76272e-05,7.25738e-06,1.8014e-05,3.01932e-05,-6.70262e-06,1.50918e-06
1234,1.64777e-05,5.30895e-06,2.05872e-05,3.17489e-05,5.46965e-06,-1.44242e-06
1235,1.72207e-05,-2.11315e-06,1.80698e-05,3.89857e-05,1.94305e-05,-3.07386e-06
1236,1.68715e-05,-1.8043e-05,8.29131e-06,4.68957e-05,2.41858e-05,-7.07426e-06
1237,1.48538e-05,-2.60782e-05,-8.96272e-07,3.84281e-05,2.26802e-05,-1.04422e-05
1238,1.16909e-05,-1.41634e-05,6.35481e-06,1.43601e-05,2.30036e-05,-1.06705e-05
1239,8.3362e-06,2.02107e-06,2.56951e-05,-5.01715e-07,2.88978e-05,-1.15739e-05
1240,6.77716e-06,5.3616e-06,3.40684e-05,4.56096e-06,3.42994e-05,-1.48042e-05
1241,4.49899e-06,-5.07473e-06,2.64993e-05,2.47904e-05,2.82542e-05,-1.79819e-05
1242,1.29439e-06,-2.32285e-05,1.23335e-05,4.87771e-05,1.51494e-05,-2.16869e-05
1243,4.37584e-07,-3.29946e-05,6.02791e-06,5.47932e-05,5.88527e-06,-2.85714e-05
1244,3.52603e-07,-2.29498e-05,1.60947e-05,3.87872e-05,-9.27734e-07,-3.50875e-05
1245,8.28009e-07,-4.97781e-06,2.92349e-05,2.47394e-05,-3.09449e-06,-3.53521e-05
1246,2.86935e-06,1.99696e-06,3.0047e-05,2.66144e-05,6.17449e-06,-3.07726e-05
1247,1.17346e-06,-7.19914e-06,2.20908e-05,3.59332e-05,1.54702e-05,-2.78706e-05
1248,-2.46975e-06,-2.63036e-05,1.80521e-05,4.65213e-05,1.878e-05,-2.91644e-05
1249,-2.65286e-06,-3.75367e-05,2.85182e-05,5.11798e-05,1.93507e-05,-2.8687e-05
1250,5.48769e-07,-2.47702e-05,3.69081e-05,4.14601e-05,2.05435e-05,-2.12162e-05
1251,5.79284e-06,-2.65613e-06,3.04964e-05,2.82317e-05,2.36394e-05,-1.18416e-05
1252,8.23802e-06,2.9929e-06,2.8678e-05,2.716e-05,2.054e-05,-6.11653e-06
1253,4.43198e-06,-6.72016e-06,3.93644e-05,3.8083e-05,1.42266e-05,-2.30033e-06
1254,5.85582e-07,-2.298e-05,4.42834e-05,5.36205e-05,1.42576e-05,1.36203e-06
1255,3.25318e-06,-3.59597e-05,4.3314e-05,5.97809e-05,2.11051e-05,3.31916e-06
1256,1.14032e-05,-2.189e-05,4.22345e-05,4.59348e-05,2.82602e-05,3.54664e-06
1257,1.7703e-05,4.4523e-06,3.59517e-05,2.99993e-05,3.45434e-05,3.24442e-06
1258,1.68179e-05,9.2791e-06,2.82391e-05,2.5593e-05,3.36438e-05,1.65543e-06
1259,1.13776e-05,4.17594e-07,3.29297e-05,2.51296e-05,2.24275e-05,-2.22097e-06
1260,8.13092e-06,-6.52162e-06,4.88456e-05,3.09676e-05,7.91574e-06,-6.25436e-06
1261,9.81785e-06,-6.13985e-06,5.75899e-05,4.2176e-05,2.93746e-06,-7.90596e-06
1262,1.4048e-05,-7.10966e-06,4.95342e-05,5.43787e-05,1.36819e-05,-6.67614e-06
1263,1.79406e-05,-2.48269e-05,2.82126e-05,6.32805e-05,3.25368e-05,-4.75646e-06
1264,2.04922e-05,-4.166e-05,1.47856e-05,5.60019e-05,4.609e-05,-6.1724e-06
1265,2.15546e-05,-3.26955e-05,2.91452e-05,3.84668e-05,4.62988e-05,-9.59981e-06
1266,2.09055e-05,-1.00276e-05,5.49784e-05,3.00509e-05,3.88731e-05,-1.09632e-05
1267,1.92997e-05,1.65392e-06,6.03155e-05,3.39647e-05,2.73518e-05,-1.02366e-05
1268,1.7648e-05,-4.59822e-06,4.9481e-05,4.61003e-05,4.11962e-06,-8.19452e-06
1269,1.82987e-05,-2.21738e-05,3.46958e-05,6.21569e-05,-2.21558e-05,-5.0152e-06
1270,2.13902e-05,-3.29149e-05,2.50662e-05,6.68271e-05,-2.88101e-05,-3.06494e-06
1271,2.2717e-05,-2.35404e-05,3.16921e-05,5.13377e-05,-1.79477e-05,-3.01584e-06
1272,2.01121e-05,-4.05628e-06,5.08023e-05,3.2416e-05,-2.68296e-06,-6.79088e-07
1273,1.63031e-05,6.36681e-06,6.71574e-05,2.81845e-05,8.96709e-06,5.43847e-06
1274,1.47105e-05,7.98656e-07,6.89068e-05,3.77955e-05,9.61258e-06,1.06428e-05
1275,1.46883e-05,-1.66862e-05,6.66554e-05,5.27662e-05,1.95232e-06,1.06116e-05
1276,1.3918e-05,-3.01071e-05,6.87521e-05,5.81493e-05,-3.6838e-07,6.18676e-06
1277,1.3454e-05,-2.21966e-05,6.54194e-05,4.27259e-05,3.43072e-06,3.14004e-06
1278,1.45254e-05,-3.36851e-06,5.26224e-05,2.34802e-05,9.69022e-06,4.10516e-06
1279,1.51089e-05,3.94909e-06,4.42415e-05,2.07044e-05,1.47296e-05,4.47635e-06
1280,1.23181e-05,-3.52574e-06,5.28549e-05,3.11532e-05,1.58728e-05,1.66898e-06
1281,1.11537e-05,-2.31736e-05,6.76834e-05,4.68024e-05,1.61722e-05,-4.50946e-06
1282,1.30334e-05,-4.3874e-05,7.9733e-05,5.31414e-05,1.7599e-05,-1.44537e-05
1283,1.51259e-05,-3.68853e-05,8.14368e-05,3.83317e-05,1.98386e-05,-2.10683e-05
1284,1.61152e-05,-1.02076e-05,7.21042e-05,2.40071e-05,2.05337e-05,-1.72435e-05
1285,1.55478e-05,2.98174e-06,6.41756e-05,2.63952e-05,1.71049e-05,-7.91028e-06
1286,1.1389e-05,6.91104e-06,6.84661e-05,3.0648e-05,1.01499e-05,-1.8614e-06
1287,6.18919e-06,1.18121e-05,7.99734e-05,3.00308e-05,6.34575e-06,5.71669e-09
1288,4.92524e-06,1.23226e-05,8.81048e-05,3.03506e-05,9.31224e-06,1.51059e-06
1289,7.15374e-06,3.28018e-06,9.04092e-05,3.69203e-05,1.66567e-05,4.13032e-06
1290,9.932e-06,-1.63171e-05,8.65703e-05,4.5908e-05,2.17006e-05,7.22699e-06
1291,1.0475e-05,-2.87418e-05,7.82345e-05,4.24925e-05,1.94519e-05,8.06449e-06
1292,8.01778e-06,-1.81891e-05,7.4964e-05,2.92015e-05,1.17632e-05,5.89995e-06
1293,3.68394e-06,1.30219e-06,8.11789e-05,2.5489e-05,6.61567e-06,2.97595e-06
1294,7.57957e-07,1.06607e-05,8.54164e-05,3.39862e-05,1.01252e-05,1.83884e-06
1295,4.60118e-07,6.22775e-06,8.39008e-05,4.5507e-05,1.91656e-05,3.14412e-06
1296,2.6946e-06,-8.75213e-06,7.71547e-05,5.50176e-05,2.45037e-05,3.58862e-06
1297,6.68366e-06,-1.95877e-05,6.74939e-05,5.34787e-05,1.9931e-05,1.245e-06
1298,1.06927e-05,-1.23507e-05,6.26606e-05,3.72732e-05,1.07938e-05,-1.42323e-06
1299,1.26022e-05,5.37328e-06,6.51407e-05,2.21686e-05,5.49681e-06,-1.58586e-06
1300,1.50014e-05,1.50092e-05,7.39253e-05,2.2789e-05,7.42601e-06,4.10833e-07
1301,1.74127e-05,8.53163e-06,8.08703e-05,3.42204e-05,1.49374e-05,2.82312e-06
1302,1.71094e-05,-1.03859e-05,7.9524e-05,4.58786e-05,2.38722e-05,4.94837e-06
1303,1.47281e-05,-2.49328e-05,8.04657e-05,4.74222e-05,2.31006e-05,7.56953e-06
1304,1.41981e-05,-1.57562e-05,7.98594e-05,3.48281e-05,4.60261e-06,1.00483e-05
1305,1.70577e-05,9.34366e-06,6.67919e-05,2.28146e-05,-1.12768e-05,9.58417e-06
1306,1.95862e-05,2.30913e-05,5.00965e-05,2.35006e-05,-9.35787e-06,6.75002e-06
1307,1.64831e-05,1.42493e-05,4.85334e-05,3.13997e-05,3.55467e-06,5.22996e-06
1308,1.00331e-05,-1.09048e-05,5.53426e-05,4.25405e-05,1.66799e-05,5.44666e-06
1309,6.671e-06,-3.19278e-05,5.70763e-05,4.82492e-05,2.85273e-05,4.83301e-06
1310,8.09408e-06,-2.1932e-05,4.69415e-05,3.75632e-05,3.62143e-05,1.98798e-06
1311,1.14223e-05,2.41496e-06,2.87449e-05,2.61096e-05,3.47701e-05,-3.55347e-06
1312,1.39226e-05,8.99177e-06,1.79311e-05,2.61277e-05,2.57293e-05,-1.42888e-05
1313,1.4508e-05,7.47284e-06,2.36596e-05,2.86996e-05,1.63163e-05,-2.96273e-05
1314,1.23746e-05,9.67662e-06,4.0213e-05,2.95101e-05,1.51896e-05,-4.0621e-05
1315,8.30894e-06,9.74662e-06,5.42502e-05,2.69838e-05,2.12077e-05,-4.34511e-05
1316,5.19719e-06,-4.32518e-07,5.69004e-05,2.79624e-05,2.77135e-05,-4.43195e-05
1317,5.59402e-06,-2.19819e-05,4.50905e-05,3.7017e-05,2.93086e-05,-4.54749e-05
1318,6.34194e-06,-3.31647e-05,3.33708e-05,4.01212e-05,2.6031e-05,-4.29028e-05
1319,3.65117e-06,-2.02654e-05,3.96956e-05,3.18082e-05,1.99019e-05,-3.60483e-05
1320,1.43498e-07,-2.6626e-07,5.74034e-05,2.50009e-05,1.68429e-05,-2.89004e-05
1321,-8.56676e-09,8.40147e-06,6.45929e-05,2.80838e-05,1.85565e-05,-2.40999e-05
1322,2.18711e-06,2.20017e-06,6.18126e-05,4.05785e-05,2.29973e-05,-2.28276e-05
1323,5.88362e-06,-1.27709e-05,5.2064e-05,5.76254e-05,2.86191e-05,-2.39986e-05
1324,1.13274e-05,-2.14564e-05,4.23864e-05,6.50362e-05,3.21019e-05,-2.46491e-05
1325,1.57056e-05,-1.28684e-05,4.94975e-05,5.44331e-05,2.86016e-05,-2.33923e-05
1326,1.69021e-05,4.27066e-06,6.73814e-05,3.79871e-05,2.30953e-05,-2.04861e-05
1327,1.69468e-05,1.45112e-05,7.68467e-05,3.03638e-05,2.29085e-05,-1.74733e-05
1328,1.65026e-05,1.25954e-05,7.29495e-05,3.54131e-05,2.64916e-05,-1.59046e-05
1329,1.4799e-05,-5.7035e-07,6.72354e-05,4.97847e-05,2.81773e-05,-1.51096e-05
1330,1.26343e-05,-1.38835e-05,7.06138e-05,5.6666e-05,2.60704e-05,-1.40116e-05
1331,1.43087e-05,-9.97025e-06,7.14702e-05,4.28729e-05,2.40786e-05,-1.14911e-05
1332,1.87353e-05,7.55593e-06,5.44038e-05,2.4682e-05,2.33679e-05,-6.73865e-06
1333,2.02952e-05,1.6925e-05,3.85172e-05,2.26559e-05,1.98079e-05,-2.93387e-06
1334,1.48836e-05,8.66102e-06,4.68505e-05,3.37539e-05,1.33925e-05,-4.58488e-06
1335,7.46346e-06,-1.31895e-05,6.20176e-05,4.90309e-05,1.17513e-05,-9.46473e-06
1336,4.77651e-06,-3.09422e-05,6.58978e-05,5.8062e-05,1.4161e-05,-1.13137e-05
1337,6.07359e-06,-1.79698e-05,6.02664e-05,4.9439e-05,1.46674e-05,-9.9565e-06
1338,8.45648e-06,1.04773e-05,4.78384e-05,3.90958e-05,1.30045e-05,-7.98944e-06
1339,9.43822e-06,2.26692e-05,3.62483e-05,3.91035e-05,9.74214e-06,-5.66375e-06
1340,9.19449e-06,2.50016e-05,4.09722e-05,3.80641e-05,6.69027e-06,-1.98152e-06
1341,8.82152e-06,2.57604e-05,5.66074e-05,3.80152e-05,9.06916e-06,4.54326e-06
1342,7.1979e-06,2.20654e-05,6.56264e-05,4.26427e-05,1.82368e-05,1.12817e-05
1343,3.0808e-06,9.84739e-06,6.18592e-05,5.24262e-05,2.79034e-05,1.09379e-05
1344,-7.59965e-07,-1.15673e-05,4.81449e-05,6.40129e-05,3.13359e-05,4.00049e-06
1345,-1.1541e-06,-2.17247e-05,3.48722e-05,6.05514e-05,2.80581e-05,-1.61769e-07
1346,5.58539e-07,-6.74829e-06,3.58912e-05,4.06801e-05,2.12798e-05,2.12698e-06
1347,7.77895e-07,1.35264e-05,4.97032e-05,2.48471e-05,1.54638e-05,5.01643e-06
1348,7.67078e-07,1.99424e-05,5.7804e-05,2.31327e-05,1.35511e-05,3.30697e-06
1349,4.38782e-06,1.26622e-05,5.45064e-05,3.30331e-05,1.42791e-05,9.01372e-08
1350,9.33956e-06,-4.35539e-06,4.41868e-05,4.75162e-05,1.32142e-05,-1.61603e-06
1351,1.06531e-05,-1.81944e-05,3.43636e-05,4.98093e-05,7.00088e-06,-4.91842e-06
1352,1.06957e-05,-1.49557e-05,4.21353e-05,3.39635e-05,2.5796e-07,-1.09185e-05
1353,1.32361e-05,-8.39625e-07,6.30954e-05,1.63086e-05,2.49656e-06,-1.57158e-05
1354,1.87563e-05,5.77338e-06,6.67195e-05,1.26581e-05,9.77446e-06,-1.86692e-05
1355,2.11209e-05,-2.75942e-06,5.2089e-05,2.31046e-05,1.05793e-05,-2.31477e-05
1356,2.07973e-05,-2.02824e-05,4.33853e-05,3.91424e-05,9.93101e-06,-2.83871e-05
1357,2.33362e-05,-2.9153e-05,4.79126e-05,4.57101e-05,1.12395e-05,-3.06835e-05
1358,2.58185e-05,-1.48969e-05,4.59306e-05,3.49144e-05,1.25922e-05,-2.96072e-05
1359,2.51414e-05,9.48141e-06,2.91634e-05,2.14401e-05,1.40856e-05,-2.65858e-05
1360,2.15553e-05,1.86356e-05,1.88186e-05,1.90412e-05,9.50829e-06,-2.24831e-05
1361,1.7286e-05,7.59369e-06,3.0863e-05,2.55388e-05,-1.89178e-06,-1.88372e-05
1362,1.58127e-05,-1.53487e-05,4.78047e-05,3.90593e-05,-1.17724e-05,-1.84029e-05
1363,1.66954e-05,-3.45537e-05,5.29782e-05,5.03999e-05,-8.25943e-06,-2.23791e-05
1364,1.77552e-05,-2.67171e-05,4.68132e-05,4.57995e-05,6.28214e-06,-2.70311e-05
1365,1.96124e-05,-4.6027e-06,3.39002e-05,3.65785e-05,2.28423e-05,-2.76621e-05
1366,2.10512e-05,3.02073e-06,2.44594e-05,3.73434e-05,3.09647e-05,-2.31821e-05
1367,1.78984e-05,2.56816e-06,3.03887e-05,4.0167e-05,2.56535e-05,-1.80713e-05
1368,1.1468e-05,3.7154e-06,4.53868e-05,3.93092e-05,1.18402e-05,-1.88823e-05
1369,9.2665e-06,3.89878e-06,5.34446e-05,3.94562e-05,-3.82231e-06,-2.22182e-05
1370,1.25573e-05,-4.27075e-06,4.8666e-05,4.59676e-05,-1.34688e-05,-2.12079e-05
1371,1.68011e-05,-2.5021e-05,3.4794e-05,5.35964e-05,-1.29765e-05,-1.58716e-05
1372,1.7826e-05,-3.84548e-05,2.73678e-05,4.77606e-05,-5.93009e-06,-1.02845e-05
1373,1.54959e-05,-2.71651e-05,3.94591e-05,3.42532e-05,8.381e-07,-8.45593e-06
1374,1.42348e-05,-6.37716e-06,5.72716e-05,2.99431e-05,5.56128e-06,-9.72321e-06
1375,1.47026e-05,3.64983e-06,6.14732e-05,3.35781e-05,1.05421e-05,-1.12906e-05
1376,1.44333e-05,-2.46529e-06,5.6978e-05,3.9444e-05,1.63919e-05,-1.12262e-05
1377,1.30809e-05,-2.15113e-05,4.76138e-05,4.59431e-05,2.0126e-05,-1.06812e-05
1378,1.26144e-05,-3.44754e-05,3.55198e-05,4.28452e-05,1.42738e-05,-1.21478e-05
1379,1.33651e-05,-2.41018e-05,3.4139e-05,2.77481e-05,-2.75383e-06,-1.43366e-05
1380,1.04114e-05,-1.43066e-06,4.44696e-05,1.694e-05,-1.15927e-05,-1.46717e-05
1381,7.46418e-06,1.01986e-05,5.06435e-05,1.92882e-05,-1.78518e-06,-1.48686e-05
1382,1.01774e-05,3.75091e-06,5.15271e-05,2.83442e-05,1.12824e-05,-1.60335e-05
1383,1.6125e-05,-1.40859e-05,5.31985e-05,3.85111e-05,1.81073e-05,-1.57953e-05
1384,2.13519e-05,-2.70071e-05,5.43334e-05,4.16267e-05,2.08903e-05,-1.26371e-05
1385,2.42643e-05,-1.90351e-05,4.96288e-05,3.13064e-05,1.92171e-05,-7.27693e-06
1386,2.45838e-05,1.71068e-06,3.52938e-05,2.09798e-05,1.71444e-05,-2.01539e-06
1387,2.11487e-05,1.28595e-05,2.54454e-05,2.41651e-05,1.29357e-05,-2.56754e-07
1388,1.46163e-05,5.03262e-06,3.61366e-05,3.5162e-05,6.92392e-06,-3.89541e-06
1389,9.68093e-06,-2.15338e-05,5.20404e-05,4.62955e-05,2.41812e-06,-9.27887e-06
1390,9.79051e-06,-4.96786e-05,5.81455e-05,5.13135e-05,7.29396e-07,-1.33342e-05
1391,1.18666e-05,-4.57484e-05,5.18445e-05,4.4829e-05,2.77562e-06,-1.42101e-05
1392,1.37548e-05,-1.93445e-05,3.59651e-05,3.86273e-05,9.89404e-06,-9.44104e-06
1393,1.46567e-05,-6.6596e-06,1.98652e-05,3.86304e-05,1.62323e-05,-4.25316e-06
1394,1.27437e-05,-6.12073e-06,1.87703e-05,3.77222e-05,1.77208e-05,-3.4774e-06
1395,9.03385e-06,-5.19416e-06,3.54184e-05,4.10616e-05,1.85501e-05,-3.02265e-06
1396,6.47457e-06,-4.20979e-06,5.57018e-05,4.76985e-05,2.15373e-05,-2.29962e-06
1397,5.05088e-06,-9.89655e-06,6.49615e-05,5.25097e-05,2.40784e-05,-2.64032e-06
1398,3.29781e-06,-2.61276e-05,5.817e-05,5.63859e-05,2.26807e-05,-3.15694e-06
1399,7.84742e-07,-3.33494e-05,4.61169e-05,5.0795e-05,1.93605e-05,-7.17571e-06
1400,-1.25799e-06,-1.67938e-05,4.76196e-05,3.43693e-05,1.50372e-05,-1.45476e-05
1401,-1.09118e-06,3.31057e-06,6.60929e-05,2.26523e-05,1.41005e-05,-1.86884e-05
1402,5.01153e-07,5.70642e-06,8.48563e-05,2.58238e-05,1.62511e-05,-1.74787e-05
1403,3.88586e-06,-9.12816e-06,9.24189e-05,4.06604e-05,1.84651e-05,-1.5241e-05
1404,8.46916e-06,-3.15047e-05,8.45461e-05,5.61926e-05,2.19092e-05,-1.62446e-05
1405,1.18358e-05,-4.42044e-05,7.01384e-05,5.75326e-05,2.69864e-05,-2.00033e-05
1406,1.06207e-05,-3.64335e-05,6.77745e-05,4.39803e-05,2.91273e-05,-2.25963e-05
1407,3.41187e-06,-1.96572e-05,7.87843e-05,3.25305e-05,3.10906e-05,-2.09987e-05
1408,-1.54711e-06,-1.18058e-05,8.34256e-05,3.25679e-05,3.68066e-05,-1.7484e-05
1409,-1.23328e-06,-1.78269e-05,7.49298e-05,4.09753e-05,3.94963e-05,-1.73832e-05
1410,-1.24007e-06,-3.49939e-05,6.42826e-05,5.3396e-05,4.0482e-05,-2.02621e-05
1411,-2.98342e-06,-4.86542e-05,6.16438e-05,5.70255e-05,3.9308e-05,-2.08679e-05
1412,-4.61412e-06,-3.99283e-05,6.21811e-05,4.13397e-05,2.04754e-05,-1.88527e-05
1413,-4.99965e-06,-1.61198e-05,5.68822e-05,2.23751e-05,-4.40185e-06,-1.87574e-05
1414,-4.13282e-06,-3.99282e-07,5.24157e-05,1.85908e-05,-1.54295e-05,-2.20485e-05
1415,-3.25976e-06,-1.43869e-06,6.09435e-05,2.764e-05,-1.22213e-05,-2.4869e-05
1416,-2.39714e-06,-1.91482e-05,7.22551e-05,4.29899e-05,-4.46222e-06,-2.1395e-05
1417,-1.61436e-06,-3.9391e-05,7.53117e-05,5.15295e-05,-1.61184e-06,-1.2187e-05
1418,6.35721e-07,-2.9898e-05,6.6768e-05,3.79722e-05,-7.6894e-07,-3.34161e-06
1419,5.92386e-06,2.12276e-06,4.99914e-05,1.82414e-05,7.07404e-06,-2.14233e-07
1420,1.10355e-05,1.92731e-05,3.86294e-05,1.19484e-05,2.09402e-05,-6.00757e-06
1421,1.15825e-05,2.14765e-05,4.57787e-05,1.36716e-05,3.13674e-05,-1.64611e-05
1422,8.64002e-06,2.45725e-05,6.17922e-05,1.73093e-05,3.25968e-05,-2.34798e-05
1423,8.02894e-06,2.83804e-05,6.95814e-05,1.79377e-05,2.3984e-05,-2.47792e-05
1424,1.3566e-05,2.36625e-05,6.75291e-05,1.8834e-05,8.76697e-06,-2.48758e-05
1425,2.14393e-05,5.92979e-06,5.98932e-05,2.51775e-05,-4.22812e-06,-2.63999e-05
1426,2.51357e-05,-6.72211e-06,5.19528e-05,2.56444e-05,-5.08193e-06,-2.701e-05
1427,2.29288e-05,2.65778e-06,4.92809e-05,1.52146e-05,4.95809e-06,-2.30661e-05
1428,1.70584e-05,2.18775e-05,5.50383e-05,7.55316e-06,2.01196e-05,-1.3331e-05
1429,1.24761e-05,3.21049e-05,6.48968e-05,1.0773e-05,3.27425e-05,-4.42244e-06
1430,1.05808e-05,2.6726e-05,7.30446e-05,2.23917e-05,3.42562e-05,-3.1188e-06
1431,9.97439e-06,7.3687e-06,7.51624e-05,3.76633e-05,2.55178e-05,-8.48879e-06
1432,1.02441e-05,-8.17753e-06,7.1551e-05,4.24163e-05,1.60427e-05,-1.40735e-05
1433,1.08837e-05,-1.05073e-06,7.17601e-05,2.98348e-05,8.26827e-06,-1.34072e-05
1434,1.01157e-05,2.00517e-05,7.95863e-05,1.62932e-05,6.97129e-06,-5.84787e-06
1435,5.82706e-06,3.09106e-05,8.79147e-05,1.78238e-05,1.34558e-05,2.94454e-06
1436,1.09136e-06,2.23904e-05,9.11407e-05,3.16171e-05,1.60569e-05,8.54834e-06
1437,1.947e-06,8.39394e-07,8.41268e-05,4.59957e-05,1.42842e-05,1.17863e-05
1438,6.734e-06,-1.52357e-05,7.42876e-05,4.70931e-05,1.2682e-05,1.44869e-05
1439,1.25372e-05,-8.88535e-06,6.23881e-05,3.28284e-05,1.16335e-05,1.78644e-05
1440,1.79615e-05,8.80232e-06,5.14255e-05,2.19291e-05,1.48373e-05,2.28874e-05
1441,2.01529e-05,1.65024e-05,4.58813e-05,2.33522e-05,2.04912e-05,2.84335e-05
1442,1.68891e-05,9.53443e-06,5.03932e-05,2.84682e-05,2.05862e-05,3.06418e-05
1443,1.29469e-05,-1.2951e-05,5.79342e-05,3.70712e-05,1.37646e-05,2.77984e-05
1444,1.35918e-05,-3.97735e-05,6.50431e-05,4.51393e-05,9.42432e-06,2.28523e-05
1445,1.71604e-05,-3.91147e-05,6.80858e-05,4.04322e-05,1.04245e-05,1.76297e-05
1446,2.18738e-05,-1.38366e-05,5.80168e-05,3.32338e-05,1.33904e-05,1.23866e-05
1447,2.4877e-05,2.50861e-06,4.19206e-05,3.31004e-05,1.2692e-05,1.02821e-05
1448,2.34195e-05,4.9062e-06,3.28329e-05,3.09523e-05,9.3506e-06,1.18314e-05
1449,1.94916e-05,2.6364e-06,3.31205e-05,2.73189e-05,8.59242e-06,1.3009e-05
1450,1.64168e-05,-1.11812e-07,3.54599e-05,2.75361e-05,1.12058e-05,1.2741e-05
1451,1.68481e-05,-6.22019e-06,3.54988e-05,3.5029e-05,1.3381e-05,1.00909e-05
1452,2.01753e-05,-2.37689e-05,2.75801e-05,4.56339e-05,1.26443e-05,3.73739e-06
1453,2.28338e-05,-3.55487e-05,1.66268e-05,4.42817e-05,1.04339e-05,-2.59078e-06
1454,2.20149e-05,-2.22648e-05,1.63672e-05,3.39433e-05,8.30185e-06,-6.9784e-06
1455,1.92763e-05,8.71202e-07,2.77613e-05,3.2068e-05,1.05738e-05,-1.07193e-05
1456,1.85345e-05,1.08845e-05,3.68093e-05,3.83789e-05,1.80454e-05,-1.24438e-05
1457,1.74876e-05,1.77929e-06,3.75872e-05,4.61307e-05,2.27856e-05,-1.02054e-05
1458,1.40823e-05,-1.98347e-05,2.91481e-05,5.514e-05,2.10657e-05,-5.51877e-06
1459,1.17853e-05,-3.35869e-05,1.70847e-05,5.5796e-05,1.91115e-05,-1.40697e-06
1460,9.9779e-06,-2.44203e-05,1.53784e-05,4.11967e-05,1.53909e-05,8.58092e-07
1461,7.09962e-06,-3.46642e-06,2.51497e-05,2.5444e-05,9.50921e-06,2.85161e-06
1462,5.67838e-06,9.20816e-06,3.20188e-05,2.44989e-05,1.02252e-05,5.88908e-06
1463,7.0649e-06,5.9924e-06,2.68113e-05,3.77253e-05,1.9583e-05,8.20949e-06
1464,1.05311e-05,-1.21498e-05,1.37345e-05,5.45742e-05,2.56798e-05,7.42725e-06
1465,1.09176e-05,-3.10103e-05,1.16135e-05,5.98986e-05,2.63169e-05,2.18187e-06
1466,9.95551e-06,-2.90099e-05,1.8256e-05,4.6862e-05,2.7768e-05,-7.53699e-06
1467,1.05564e-05,-1.0282e-05,2.16781e-05,3.16374e-05,3.42035e-05,-1.69561e-05
1468,9.78565e-06,1.24319e-06,2.23554e-05,3.0125e-05,4.03878e-05,-2.0878e-05
1469,4.43352e-06,-4.75673e-06,3.0644e-05,3.85898e-05,3.64463e-05,-1.95093e-05
1470,-7.34789e-07,-2.4072e-05,4.04088e-05,5.2896e-05,2.53709e-05,-1.51497e-05
1471,-2.65938e-07,-3.94591e-05,4.34939e-05,6.30624e-05,1.41341e-05,-1.12782e-05
1472,3.03404e-06,-2.58371e-05,3.80388e-05,5.43611e-05,6.50189e-06,-9.76307e-06
1473,8.2076e-06,-1.71688e-07,2.37826e-05,4.36809e-05,9.09905e-07,-9.71161e-06
1474,1.19121e-05,4.49057e-06,1.48355e-05,4.38847e-05,-5.00787e-06,-1.19492e-05
1475,9.88423e-06,5.92107e-07,2.47183e-05,4.14351e-05,-5.54663e-06,-1.74708e-05
1476,4.64226e-06,1.22095e-06,4.48569e-05,4.11557e-05,7.54924e-06,-2.09568e-05
1477,2.14525e-06,2.66896e-07,5.82011e-05,4.90843e-05,2.84318e-05,-1.9866e-05
1478,5.27689e-06,-8.52759e-06,5.89243e-05,6.1303e-05,3.77609e-05,-1.90361e-05
1479,1.29718e-05,-2.97984e-05,4.6448e-05,7.07486e-05,2.77592e-05,-2.11848e-05
1480,2.00901e-05,-4.5442e-05,3.36807e-05,6.10638e-05,1.03854e-05,-2.47039e-05
1481,2.28408e-05,-3.5307e-05,3.71861e-05,3.76201e-05,1.09196e-06,-2.53418e-05
1482,2.19414e-05,-1.30699e-05,5.29562e-05,2.39948e-05,5.28172e-06,-2.19976e-05
1483,2.16399e-05,-3.19842e-06,5.99974e-05,2.57086e-05,1.71879e-05,-1.91923e-05
1484,2.4095e-05,-1.26482e-05,5.54571e-05,3.51104e-05,2.78221e-05,-2.0606e-05
1485,2.67206e-05,-3.43674e-05,4.4758e-05,4.6142e-05,3.49025e-05,-2.55036e-05
1486,2.81958e-05,-4.73204e-05,3.51562e-05,4.75727e-05,3.38245e-05,-3.06521e-05
1487,2.81844e-05,-3.54366e-05,3.7901e-05,3.62632e-05,2.09498e-05,-3.21888e-05
1488,2.62763e-05,-1.05536e-05,5.10792e-05,2.68544e-05,8.79693e-06,-2.94226e-05
1489,2.29074e-05,4.50697e-06,6.12463e-05,2.84494e-05,7.69016e-06,-2.53909e-05
1490,1.9282e-05,2.10282e-06,6.67329e-05,3.61103e-05,1.47001e-05,-2.18436e-05
1491,1.55471e-05,-1.44919e-05,6.85542e-05,4.39411e-05,2.79042e-05,-1.56899e-05
1492,1.24291e-05,-2.96469e-05,7.08706e-05,4.24268e-05,3.99064e-05,-6.11898e-06
1493,1.20465e-05,-2.11229e-05,6.81208e-05,2.74942e-05,3.64051e-05,-8.14755e-07
1494,1.52082e-05,4.98059e-06,5.52714e-05,1.75672e-05,1.84242e-05,-6.15672e-06
1495,1.77217e-05,2.02255e-05,4.70181e-05,2.48234e-05,-1.38857e-06,-1.93426e-05
1496,1.63182e-05,1.23882e-05,6.04672e-05,3.78752e-05,-9.54801e-06,-3.12054e-05
1497,1.41756e-05,-1.22485e-05,8.17899e-05,5.08728e-05,-4.72404e-06,-3.36192e-05
1498,1.30422e-05,-3.4632e-05,9.17752e-05,6.07878e-05,5.16445e-06,-2.71087e-05
1499,1.30795e-05,-2.77459e-05,8.65884e-05,5.59925e-05,1.14854e-05,-1.87774e-05
1500,1.41723e-05,-2.35423e-06,7.37309e-05,4.66224e-05,1.22759e-05,-1.50534e-05
1501,1.56243e-05,8.1786e-06,6.66385e-05,4.30349e-05,9.57547e-06,-1.70941e-05
1502,1.73901e-05,7.37846e-06,7.26204e-05,3.61054e-05,4.87197e-06,-2.24438e-05
1503,1.92059e-05,7.57151e-06,8.5127e-05,3.24703e-05,1.5198e-06,-2.70414e-05
1504,1.96735e-05,6.33385e-06,8.90682e-05,3.81933e-05,2.8131e-06,-2.53204e-05
1505,1.97846e-05,-2.79013e-06,8.1815e-05,4.81506e-05,8.86602e-06,-1.73208e-05
1506,1.98181e-05,-2.25714e-05,6.818e-05,5.8656e-05,1.59336e-05,-7.54935e-06
1507,1.73264e-05,-3.37569e-05,5.92931e-05,5.75852e-05,1.90872e-05,9.31011e-07
1508,1.18171e-05,-2.20365e-05,6.63984e-05,4.24524e-05,1.47414e-05,6.63634e-06
1509,6.4893e-06,-2.10261e-06,8.86309e-05,3.09147e-05,8.27163e-06,6.66018e-06
1510,4.38551e-06,7.30119e-06,0.000104602,3.25089e-05,7.58803e-06,-1.35147e-06
1511,5.66511e-06,2.31487e-07,0.000101089,4.3197e-05,1.22233e-05,-1.41449e-05
1512,8.99294e-06,-1.88346e-05,8.31587e-05,5.48905e-05,1.68776e-05,-2.51254e-05
1513,1.28939e-05,-2.98972e-05,6.64957e-05,5.45589e-05,1.80357e-05,-2.91553e-05
1514,1.61242e-05,-1.80732e-05,6.32748e-05,3.99113e-05,1.34626e-05,-2.45817e-05
1515,1.75275e-05,1.82532e-06,6.96411e-05,2.72362e-05,1.05564e-05,-1.40397e-05
1516,1.84972e-05,8.54796e-06,7.02253e-05,2.77141e-05,1.41569e-05,-4.00163e-06
1517,1.90598e-05,5.79452e-07,6.38449e-05,3.72865e-05,1.51464e-05,1.95241e-07
1518,1.70238e-05,-1.58614e-05,5.49918e-05,5.08845e-05,9.35611e-06,-2.27424e-06
1519,1.12506e-05,-2.84439e-05,4.65966e-05,5.64589e-05,6.86345e-06,-6.01715e-06
1520,7.02573e-06,-1.95447e-05,4.25745e-05,4.29624e-05,9.91779e-06,-5.0896e-06
1521,7.5014e-06,4.33639e-06,3.80526e-05,2.39985e-05,1.27329e-05,7.59247e-07
1522,8.83407e-06,1.9658e-05,3.246e-05,1.61701e-05,1.19504e-05,6.26837e-06
1523,8.52059e-06,1.7584e-05,3.65999e-05,2.10712e-05,5.2593e-06,5.13935e-06
1524,6.34128e-06,-2.3303e-06,4.41546e-05,3.81691e-05,-2.94209e-07,-1.9284e-06
1525,4.44789e-06,-2.42689e-05,4.55145e-05,5.15833e-05,5.17365e-06,-9.68442e-06
1526,3.77936e-06,-1.53664e-05,4.23082e-05,4.0604e-05,1.77342e-05,-1.42339e-05
1527,2.88574e-06,1.18445e-05,3.48025e-05,2.15979e-05,2.476e-05,-1.26263e-05
1528,4.92967e-07,2.15555e-05,3.01813e-05,1.63597e-05,2.10279e-05,-6.64273e-06
1529,-1.48798e-06,1.88086e-05,3.80308e-05,1.65469e-05,1.19758e-05,-3.304e-06
1530,-6.31801e-07,1.81308e-05,5.1413e-05,1.50921e-05,8.07836e-06,-4.59337e-06
1531,2.21861e-06,1.94654e-05,5.62666e-05,1.7126e-05,1.31203e-05,-7.34881e-06
1532,4.91687e-06,1.40752e-05,5.08507e-05,2.71588e-05,1.94962e-05,-8.95296e-06
1533,7.00812e-06,-5.51761e-06,4.09317e-05,3.87331e-05,1.88842e-05,-7.65947e-06
1534,8.75555e-06,-2.00478e-05,3.47171e-05,3.65955e-05,1.12889e-05,-6.1443e-06
1535,7.44717e-06,-9.79269e-06,3.94895e-05,2.25049e-05,2.68813e-06,-6.82023e-06
1536,4.6891e-06,1.06238e-05,5.01684e-05,1.41155e-05,2.28598e-07,-5.8748e-06
1537,7.3261e-06,1.90973e-05,5.3594e-05,1.66764e-05,6.29048e-06,-2.982e-07
1538,1.42524e-05,9.70385e-06,4.98045e-05,2.43084e-05,1.6147e-05,6.59597e-06
1539,1.97563e-05,-1.07004e-05,4.09257e-05,3.28912e-05,2.27534e-05,8.69914e-06
1540,2.3329e-05,-2.14671e-05,3.29231e-05,3.18316e-05,2.18921e-05,3.63222e-06
1541,2.26611e-05,-9.75638e-06,3.60001e-05,1.84055e-05,1.41596e-05,-3.95303e-06
1542,1.79267e-05,1.00562e-05,4.46123e-05,8.11888e-06,8.10517e-06,-7.74144e-06
1543,1.49617e-05,1.77604e-05,4.3311e-05,1.15214e-05,9.32907e-06,-7.15044e-06
1544,1.59382e-05,1.12072e-05,3.28077e-05,2.517e-05,1.01709e-05,-4.35288e-06
1545,1.79578e-05,-3.9842e-06,3.04721e-05,4.24281e-05,-6.11099e-08,-1.41352e-06
1546,1.79987e-05,-1.81895e-05,4.29684e-05,4.80443e-05,-1.04945e-05,-6.60206e-07
1547,1.7034e-05,-1.66377e-05,5.191e-05,3.02854e-05,-4.62939e-06,-1.11152e-06
1548,1.75531e-05,-2.03255e-06,4.34896e-05,8.43605e-06,1.48933e-05,8.36013e-07
1549,1.86582e-05,6.47167e-06,3.28676e-05,8.69257e-06,3.43381e-05,4.45354e-06
1550,1.80344e-05,5.8688e-07,4.03473e-05,2.81358e-05,3.62703e-05,5.12058e-06
1551,1.59803e-05,-1.96362e-05,5.62989e-05,4.89022e-05,1.90823e-05,3.73824e-06
