Time_Index,DELTOID_Affected,DELTOID_NonAffected,BICEPS_Affected,BICEPS_NonAffected,FOREARM_Affected,FOREARM_NonAffected
1,2.96984e-06,8.26994e-05,4.55303e-05,4.12867e-05,2.15773e-05,-2.93217e-05
2,7.78153e-07,0.00010041,4.66099e-05,5.12147e-05,2.47492e-05,-4.01383e-05
3,2.33747e-06,0.000126886,4.79904e-05,5.97279e-05,2.34768e-05,-5.38981e-05
4,6.53744e-06,0.000138723,3.53617e-05,6.57423e-05,2.14339e-05,-6.69452e-05
5,7.56443e-06,0.0001267,2.55738e-05,7.25769e-05,2.19835e-05,-7.94392e-05
6,3.14008e-06,9.63963e-05,4.36843e-05,8.38633e-05,2.32912e-05,-9.60029e-05
7,-1.94139e-06,6.64423e-05,6.62739e-05,9.67343e-05,2.35904e-05,-0.000116841
8,-2.00306e-06,5.55362e-05,7.07996e-05,0.000103332,2.25918e-05,-0.000133783
9,2.35249e-07,5.52547e-05,5.56431e-05,0.000102494,2.10065e-05,-0.000139451
10,8.40842e-07,4.30239e-05,3.42837e-05,0.000101803,2.08571e-05,-0.000135714
11,-1.05063e-06,1.29042e-05,3.4492e-05,0.000102736,2.09615e-05,-0.000126183
12,-2.9482e-06,-2.76533e-05,6.25428e-05,9.7924e-05,1.79835e-05,-0.000114303
13,-1.66022e-06,-6.2355e-05,9.0975e-05,8.74131e-05,1.19886e-05,-0.000104649
14,-4.11116e-07,-7.1433e-05,9.50733e-05,7.88857e-05,8.43687e-06,-9.59637e-05
15,-1.95243e-06,-7.12108e-05,8.02191e-05,7.44518e-05,9.86279e-06,-8.24289e-05
16,-3.81897e-06,-8.9846e-05,5.63655e-05,6.75142e-05,1.2903e-05,-6.74269e-05
17,-1.80612e-06,-0.000119619,3.98928e-05,5.56154e-05,1.52407e-05,-6.20928e-05
18,4.82928e-06,-0.000144188,4.82424e-05,4.4717e-05,1.48148e-05,-6.80939e-05
19,1.19331e-05,-0.000156997,7.09163e-05,3.88075e-05,1.55109e-05,-7.75417e-05
20,1.5944e-05,-0.000164174,7.78669e-05,3.83346e-05,1.71882e-05,-8.4768e-05
21,1.8652e-05,-0.000173493,6.91513e-05,4.05871e-05,1.73397e-05,-8.73392e-05
22,2.06309e-05,-0.000168272,5.17861e-05,4.15697e-05,1.63883e-05,-8.51147e-05
23,2.06205e-05,-0.000137984,3.35361e-05,4.26491e-05,1.30515e-05,-7.81021e-05
24,1.84877e-05,-0.000106314,3.24611e-05,4.78285e-05,1.0907e-05,-6.63699e-05
25,1.5809e-05,-9.69174e-05,4.4882e-05,5.67172e-05,1.53126e-05,-5.28764e-05
26,1.64547e-05,-0.000109364,4.68589e-05,6.69705e-05,2.92404e-05,-4.19088e-05
27,1.75746e-05,-0.000133105,4.14816e-05,7.39465e-05,3.91824e-05,-3.44576e-05
28,1.64943e-05,-0.000151097,3.75049e-05,7.56077e-05,3.49214e-05,-2.87681e-05
29,1.23295e-05,-0.000153009,4.14288e-05,7.56636e-05,2.88316e-05,-2.2041e-05
30,7.92602e-06,-0.000150509,4.46829e-05,7.8047e-05,2.48497e-05,-1.21861e-05
31,6.4666e-06,-0.000159714,3.16551e-05,8.36113e-05,2.15624e-05,-1.70576e-06
32,6.68199e-06,-0.000178855,1.93213e-05,9.10566e-05,1.7024e-05,4.30404e-06
33,3.64106e-06,-0.000197722,3.38557e-05,9.78134e-05,1.45324e-05,4.36443e-06
34,-1.74654e-06,-0.000206396,5.88679e-05,0.000100167,1.38473e-05,2.68173e-06
35,-4.08368e-06,-0.000197024,7.51011e-05,9.74622e-05,1.25979e-05,2.38559e-06
36,-5.84625e-07,-0.000177865,7.26498e-05,9.29741e-05,1.05661e-05,2.78156e-06
37,8.33732e-06,-0.000165215,4.99355e-05,9.0738e-05,7.0785e-06,3.16814e-06
38,1.50563e-05,-0.000161551,3.24737e-05,9.24718e-05,4.8188e-06,1.05571e-06
39,1.49723e-05,-0.000161502,4.28781e-05,9.59564e-05,6.04429e-06,-4.85986e-06
40,1.28503e-05,-0.000154995,6.37054e-05,9.60188e-05,9.07905e-06,-9.00237e-06
41,1.31328e-05,-0.000121602,6.8069e-05,8.88459e-05,1.21139e-05,-6.82831e-06
42,1.41155e-05,-7.30484e-05,5.42442e-05,7.81699e-05,1.53153e-05,-4.41798e-07
43,1.49506e-05,-4.66561e-05,3.19659e-05,7.05358e-05,1.62851e-05,7.04741e-06
44,1.55839e-05,-3.86453e-05,2.19647e-05,6.79426e-05,1.46776e-05,1.30258e-05
45,1.3671e-05,-2.97397e-05,4.10307e-05,6.86512e-05,1.12176e-05,1.43408e-05
46,1.19894e-05,-1.90843e-05,7.06236e-05,6.81346e-05,7.80121e-06,1.05842e-05
47,1.51889e-05,-7.70428e-06,8.06096e-05,6.60602e-05,5.23841e-06,7.21583e-07
48,2.00944e-05,4.17662e-06,7.69442e-05,6.31747e-05,3.90584e-06,-1.40257e-05
49,2.42584e-05,2.71625e-05,6.86486e-05,5.7555e-05,4.01383e-06,-2.67102e-05
50,2.42645e-05,6.45848e-05,6.33721e-05,4.96753e-05,4.93233e-06,-3.19152e-05
51,2.0051e-05,9.34442e-05,7.46184e-05,4.34357e-05,5.88595e-06,-3.17646e-05
52,1.92268e-05,9.2128e-05,9.32484e-05,4.0325e-05,8.40535e-06,-3.41661e-05
53,2.36516e-05,6.40849e-05,9.27355e-05,3.94344e-05,1.10454e-05,-4.12165e-05
54,2.74029e-05,2.7128e-05,7.49958e-05,4.01585e-05,1.34931e-05,-4.7396e-05
55,2.88846e-05,2.24812e-06,6.47312e-05,3.90733e-05,1.34445e-05,-4.70436e-05
56,2.81356e-05,-1.3743e-06,6.87477e-05,3.43157e-05,1.08083e-05,-3.99969e-05
57,2.61924e-05,4.75013e-06,6.11253e-05,2.86626e-05,8.78085e-06,-2.84584e-05
58,2.66593e-05,6.37157e-06,4.17588e-05,2.41728e-05,8.54186e-06,-1.50058e-05
59,3.09428e-05,2.07226e-06,3.68701e-05,1.94342e-05,8.01126e-06,-3.65132e-06
60,3.22564e-05,-4.51677e-06,5.79935e-05,1.30234e-05,6.69038e-06,3.48339e-06
61,2.74407e-05,-4.43615e-06,8.05602e-05,3.72529e-06,9.25591e-06,7.32247e-06
62,2.4126e-05,1.25311e-05,9.18671e-05,-8.69335e-06,1.66153e-05,1.11195e-05
63,2.36102e-05,3.61716e-05,8.7125e-05,-2.30182e-05,1.98852e-05,1.66729e-05
64,2.56615e-05,4.6059e-05,7.15468e-05,-3.82895e-05,1.40464e-05,2.26767e-05
65,2.62301e-05,3.29121e-05,6.69954e-05,-5.44477e-05,8.14247e-06,2.93726e-05
66,2.39833e-05,-6.36277e-07,8.51453e-05,-6.75277e-05,8.23473e-06,3.87081e-05
67,2.17754e-05,-3.19474e-05,0.00011,-7.49839e-05,1.14256e-05,4.81235e-05
68,2.09738e-05,-2.99339e-05,0.000118305,-8.12946e-05,1.28013e-05,5.27381e-05
69,2.17784e-05,-1.04624e-05,0.000106487,-8.60241e-05,1.30149e-05,5.36038e-05
70,2.37126e-05,-3.55835e-06,8.14337e-05,-8.38911e-05,1.39535e-05,5.52e-05
71,2.49357e-05,6.35978e-06,6.38885e-05,-7.92648e-05,1.50024e-05,5.73953e-05
72,2.08326e-05,2.90976e-05,7.23106e-05,-8.25204e-05,1.70338e-05,5.34369e-05
73,1.36903e-05,5.3463e-05,9.53362e-05,-8.98618e-05,2.19902e-05,3.79403e-05
74,8.55796e-06,7.33819e-05,9.9333e-05,-9.05775e-05,2.9622e-05,1.81549e-05
75,6.41901e-06,8.51793e-05,8.70084e-05,-8.35372e-05,3.68162e-05,4.22161e-06
76,6.80578e-06,0.000101537,6.93221e-05,-7.38882e-05,3.83533e-05,-4.1755e-06
77,1.00096e-05,0.000131667,5.6023e-05,-6.32982e-05,3.25959e-05,-1.28614e-05
78,9.75833e-06,0.000155907,6.4104e-05,-5.1795e-05,1.82129e-05,-2.35154e-05
79,2.73631e-06,0.000160282,8.29432e-05,-4.38273e-05,-1.52405e-06,-3.5279e-05
80,-5.27863e-06,0.000151701,7.80967e-05,-3.90201e-05,-1.14588e-05,-4.76926e-05
81,-7.73559e-06,0.000135415,5.7291e-05,-3.22274e-05,-6.5281e-06,-5.80683e-05
82,-5.54235e-06,0.000123073,4.61691e-05,-2.23429e-05,3.95616e-06,-6.1899e-05
83,-4.09955e-06,0.00012677,4.57654e-05,-1.40753e-05,1.31331e-05,-5.74594e-05
84,-1.42243e-06,0.000137935,3.9317e-05,-8.91513e-06,1.66485e-05,-4.70294e-05
85,3.12968e-06,0.000137546,2.0998e-05,-2.39186e-06,1.56171e-05,-3.29042e-05
86,5.41598e-06,0.000119906,1.11775e-05,6.93018e-06,1.17241e-05,-1.80126e-05
87,4.86039e-06,9.23705e-05,2.41241e-05,1.49826e-05,7.95248e-06,-6.00532e-06
88,6.24094e-06,6.79378e-05,3.53819e-05,1.97567e-05,7.19796e-06,2.2123e-06
89,9.76089e-06,5.54573e-05,3.09642e-05,2.31676e-05,8.56023e-06,8.37857e-06
90,1.07736e-05,4.69822e-05,1.64809e-05,2.72607e-05,8.6234e-06,1.39012e-05
91,9.09317e-06,2.95265e-05,-2.06833e-06,3.3347e-05,6.88804e-06,1.86959e-05
92,7.97619e-06,-1.48781e-07,-7.02565e-06,3.95419e-05,9.51597e-06,2.09318e-05
93,6.85833e-06,-3.93916e-05,1.1414e-05,4.41935e-05,1.63786e-05,2.07784e-05
94,4.63219e-06,-7.33186e-05,3.03872e-05,4.88223e-05,2.2579e-05,1.93601e-05
95,3.23257e-06,-7.73209e-05,3.14784e-05,5.42711e-05,2.37652e-05,1.58208e-05
96,2.84024e-06,-6.56115e-05,2.00734e-05,5.72149e-05,1.98999e-05,9.48055e-06
97,4.17202e-06,-6.91552e-05,4.53644e-06,5.53384e-05,1.22895e-05,7.27478e-07
98,7.89201e-06,-7.85586e-05,-1.59471e-06,5.55604e-05,6.39346e-06,-7.7628e-06
99,9.56155e-06,-8.00045e-05,1.55637e-05,6.3206e-05,9.5842e-06,-1.13254e-05
100,6.76379e-06,-8.11798e-05,4.33008e-05,7.34757e-05,1.86471e-05,-6.63465e-06
101,4.26819e-06,-9.11687e-05,5.00631e-05,8.22046e-05,2.27729e-05,4.75516e-06
102,6.57612e-06,-0.000106341,3.78902e-05,8.71135e-05,2.01395e-05,1.64564e-05
103,1.37796e-05,-0.00010586,2.03374e-05,8.42066e-05,1.62437e-05,2.60771e-05
104,1.90545e-05,-7.6872e-05,9.45227e-06,7.60495e-05,1.28791e-05,3.39227e-05
105,1.75501e-05,-3.49661e-05,1.91077e-05,7.11199e-05,1.03846e-05,3.78744e-05
106,1.15376e-05,-1.09675e-07,4.11712e-05,6.83313e-05,9.70847e-06,3.86358e-05
107,9.86791e-06,2.27231e-05,4.78565e-05,6.27156e-05,1.3638e-05,3.7435e-05
108,1.20439e-05,3.36886e-05,3.36678e-05,5.53897e-05,1.62255e-05,3.38108e-05
109,1.1963e-05,4.31506e-05,2.47978e-05,5.02955e-05,1.10154e-05,2.80984e-05
110,1.07052e-05,6.32925e-05,3.29622e-05,4.61172e-05,9.41718e-06,2.34071e-05
111,9.07278e-06,8.81464e-05,3.55603e-05,3.89846e-05,1.79968e-05,2.14182e-05
112,1.00096e-05,0.000101375,1.96005e-05,3.10362e-05,2.86095e-05,1.92604e-05
113,1.11887e-05,9.63484e-05,1.09293e-05,2.91972e-05,3.48891e-05,1.39641e-05
114,7.68245e-06,7.65759e-05,3.68067e-05,3.45533e-05,3.65442e-05,4.69743e-06
115,1.97245e-06,6.09112e-05,7.02029e-05,4.03263e-05,3.65985e-05,-8.34094e-06
116,2.23466e-08,7.27318e-05,8.37776e-05,4.29603e-05,3.7259e-05,-2.3382e-05
117,8.59503e-07,0.000104771,7.11609e-05,4.51096e-05,3.81565e-05,-3.78993e-05
118,2.2071e-06,0.000128911,4.68852e-05,4.96085e-05,3.75248e-05,-5.14718e-05
119,2.2739e-06,0.00013344,3.76226e-05,5.31092e-05,2.85682e-05,-6.4619e-05
120,3.32754e-07,0.000122055,5.67402e-05,5.22203e-05,7.05661e-06,-7.645e-05
121,-1.16942e-06,0.000108517,8.14867e-05,4.91005e-05,-1.43031e-05,-8.51354e-05
122,-7.30274e-08,0.000114006,8.99525e-05,4.74139e-05,-1.94504e-05,-9.19462e-05
123,3.14314e-06,0.000125762,8.23299e-05,4.59253e-05,-8.78092e-06,-0.000100715
124,4.85299e-06,0.000120138,6.41637e-05,4.27102e-05,5.53279e-06,-0.000111004
125,2.76315e-06,0.000109235,5.04372e-05,3.80552e-05,1.42048e-05,-0.000118974
126,-2.77677e-06,0.000102537,5.74059e-05,3.23099e-05,1.53528e-05,-0.000120848
127,-5.7283e-06,9.23651e-05,7.6976e-05,2.63842e-05,1.59373e-05,-0.000115669
128,-2.98885e-06,6.6642e-05,9.03434e-05,2.11767e-05,2.25827e-05,-0.00010649
129,2.67229e-06,2.22363e-05,9.5822e-05,1.76907e-05,2.94869e-05,-9.67002e-05
130,8.12979e-06,-1.56568e-05,8.47392e-05,1.28521e-05,3.10966e-05,-8.9545e-05
131,1.05877e-05,-2.93789e-05,7.04686e-05,4.23487e-06,3.04836e-05,-8.43219e-05
132,6.83097e-06,-3.24941e-05,7.81615e-05,-2.9285e-06,2.79119e-05,-7.71728e-05
133,9.9854e-07,-4.23466e-05,9.37273e-05,-5.70168e-06,2.62504e-05,-6.90432e-05
134,2.23308e-06,-5.96782e-05,9.48726e-05,-7.899e-06,2.7665e-05,-6.44236e-05
135,7.10026e-06,-7.9012e-05,9.13376e-05,-1.27543e-05,2.75976e-05,-6.31262e-05
136,9.83879e-06,-9.14792e-05,9.15081e-05,-1.76847e-05,2.5244e-05,-6.09007e-05
137,1.12001e-05,-9.3557e-05,9.48482e-05,-2.02426e-05,2.18674e-05,-5.62044e-05
138,1.18342e-05,-9.5829e-05,8.65152e-05,-2.19058e-05,2.00851e-05,-5.32731e-05
139,1.71541e-05,-0.000107126,6.70034e-05,-2.45128e-05,2.30467e-05,-5.6396e-05
140,2.23993e-05,-0.000123892,5.5136e-05,-2.71762e-05,2.72671e-05,-6.37765e-05
141,2.22747e-05,-0.000145036,6.51338e-05,-2.79026e-05,2.85254e-05,-7.0413e-05
142,2.20747e-05,-0.000169036,8.11873e-05,-2.74661e-05,2.65391e-05,-7.24449e-05
143,2.19726e-05,-0.000182306,8.99504e-05,-2.6586e-05,2.2442e-05,-6.91456e-05
144,2.32347e-05,-0.000181495,8.38384e-05,-1.98226e-05,1.83466e-05,-6.44984e-05
145,2.69183e-05,-0.000182559,6.12174e-05,-3.5186e-06,1.55681e-05,-5.96464e-05
146,2.97513e-05,-0.00019938,4.42213e-05,1.16471e-05,1.25639e-05,-5.04748e-05
147,2.89034e-05,-0.00023336,5.00424e-05,1.33537e-05,9.23907e-06,-3.88107e-05
148,2.94074e-05,-0.000267444,6.22549e-05,5.1176e-06,6.3796e-06,-2.86065e-05
149,3.21983e-05,-0.000276136,6.54192e-05,-1.03875e-06,5.75447e-06,-2.05603e-05
150,3.44904e-05,-0.000269559,6.06002e-05,-1.49309e-06,8.76332e-06,-1.38529e-05
151,3.43312e-05,-0.000267671,4.25828e-05,6.91507e-07,1.28947e-05,-7.2766e-06
152,3.42766e-05,-0.000262122,2.25521e-05,8.95779e-07,1.31656e-05,-1.55505e-06
153,3.51188e-05,-0.00025045,2.35916e-05,-4.29892e-06,1.03377e-05,2.08363e-06
154,3.17771e-05,-0.000238636,3.57061e-05,-1.12899e-05,9.86467e-06,4.0441e-06
155,2.43083e-05,-0.000228703,3.55674e-05,-1.3659e-05,1.05637e-05,8.10904e-06
156,1.80028e-05,-0.000220335,2.6492e-05,-1.17129e-05,1.08869e-05,1.49096e-05
157,1.80848e-05,-0.000197244,6.08864e-06,-8.92402e-06,1.04388e-05,2.16484e-05
158,2.17918e-05,-0.000150308,-1.28317e-05,-3.83906e-06,1.00905e-05,2.78863e-05
159,2.31221e-05,-0.00010136,-3.28286e-06,3.46373e-06,1.06852e-05,3.37677e-05
160,2.01843e-05,-7.35269e-05,1.94246e-05,7.38281e-06,1.26894e-05,4.10389e-05
161,2.04956e-05,-6.62203e-05,2.60174e-05,5.61442e-06,1.57941e-05,5.10487e-05
162,2.66649e-05,-6.75064e-05,1.75798e-05,3.03824e-06,1.90044e-05,6.32251e-05
163,3.09362e-05,-6.00997e-05,8.52764e-06,4.03597e-06,2.29505e-05,7.30628e-05
164,3.18272e-05,-3.65929e-05,1.19738e-05,8.63528e-06,2.48674e-05,7.6461e-05
165,2.92528e-05,-1.2022e-05,9.98953e-06,1.6069e-05,2.57078e-05,7.45306e-05
166,2.38673e-05,1.25811e-06,-2.37994e-06,2.53168e-05,2.16904e-05,7.04624e-05
167,1.95059e-05,8.96736e-06,-7.63889e-06,3.4102e-05,1.30978e-05,6.62654e-05
168,1.47983e-05,1.5455e-05,5.89929e-06,3.95761e-05,8.2888e-06,6.3726e-05
169,1.0963e-05,2.51743e-05,1.84738e-05,4.14947e-05,8.5814e-06,6.53954e-05
170,9.05435e-06,5.00037e-05,2.25991e-05,4.53617e-05,1.22343e-05,7.15854e-05
171,8.56662e-06,8.55451e-05,1.87378e-05,5.76463e-05,1.72718e-05,7.847e-05
172,8.54502e-06,0.000112595,7.1137e-07,7.27079e-05,3.29893e-05,8.04541e-05
173,8.51931e-06,0.000124287,-1.95016e-05,7.91298e-05,5.726e-05,7.93922e-05
174,7.51951e-06,0.000125163,-1.51847e-05,7.95491e-05,7.11446e-05,8.04549e-05
175,5.92836e-06,0.000123233,1.44394e-05,8.32402e-05,6.23705e-05,7.91696e-05
176,6.59616e-06,0.000134287,4.08246e-05,8.97749e-05,4.27021e-05,7.10039e-05
177,9.38771e-06,0.000152955,4.42578e-05,9.40673e-05,3.07042e-05,6.26986e-05
178,9.13864e-06,0.000159652,2.63103e-05,9.45374e-05,2.9123e-05,5.90226e-05
179,4.88172e-06,0.000161255,1.61701e-05,9.22746e-05,1.92986e-05,5.5581e-05
180,4.00882e-07,0.000165434,3.72321e-05,9.00259e-05,-1.63463e-05,4.90827e-05
181,-7.34523e-07,0.00016825,7.01806e-05,8.8571e-05,-5.71876e-05,4.03133e-05
182,-9.79041e-07,0.000162529,8.05267e-05,8.16477e-05,-7.13369e-05,3.07436e-05
183,-1.15045e-06,0.000143076,7.18656e-05,6.96492e-05,-5.79971e-05,2.29977e-05
184,3.41511e-06,0.000129372,5.31183e-05,6.29243e-05,-3.88718e-05,1.74933e-05
185,9.30475e-06,0.000141011,3.89531e-05,6.4084e-05,-2.57373e-05,1.26078e-05
186,9.66241e-06,0.000168494,5.69636e-05,6.59163e-05,-1.7079e-05,8.42346e-06
187,3.83581e-06,0.000192251,9.08139e-05,6.37712e-05,-8.64448e-06,7.12759e-06
188,-3.13731e-07,0.000202697,9.98988e-05,6.01608e-05,-1.75225e-06,8.24631e-06
189,1.82103e-06,0.000196875,9.26564e-05,5.70376e-05,-2.47006e-06,8.86869e-06
190,8.65183e-06,0.000185609,8.95131e-05,5.55005e-05,-7.48014e-06,7.35195e-06
191,1.30456e-05,0.000182847,9.35802e-05,5.66093e-05,-8.47807e-06,3.65346e-06
192,1.23813e-05,0.000182676,9.01324e-05,6.07962e-05,-4.42681e-06,-8.67749e-08
193,1.25821e-05,0.000171055,8.06929e-05,6.56079e-05,3.78174e-06,-2.00274e-06
194,1.4078e-05,0.000147364,7.8314e-05,6.81672e-05,1.18633e-05,-3.83315e-06
195,1.12178e-05,0.000118503,9.27699e-05,7.01979e-05,1.774e-05,-7.32486e-06
196,6.72232e-06,9.52548e-05,0.000102727,7.41547e-05,1.99766e-05,-8.24229e-06
197,4.16821e-06,8.97267e-05,0.000100422,7.7788e-05,1.93886e-05,-2.26236e-06
198,4.16453e-06,9.496e-05,9.01378e-05,7.90671e-05,1.79662e-05,7.64501e-06
199,5.45437e-06,9.32536e-05,7.06543e-05,7.92858e-05,1.63632e-05,1.64075e-05
200,6.16918e-06,7.80355e-05,5.81886e-05,7.83332e-05,1.64576e-05,2.08245e-05
201,5.38708e-06,4.99787e-05,6.64245e-05,7.4523e-05,1.90975e-05,1.8945e-05
202,4.33189e-06,2.25333e-05,8.14985e-05,6.91049e-05,2.50111e-05,1.6944e-05
203,3.12566e-06,2.08892e-05,8.69862e-05,6.73669e-05,3.06638e-05,2.21277e-05
204,5.22695e-07,3.41522e-05,8.32577e-05,6.99429e-05,2.96461e-05,2.95511e-05
205,-2.55985e-06,3.44301e-05,6.73552e-05,7.13832e-05,2.09371e-05,3.0379e-05
206,-4.86902e-06,3.15399e-05,5.3775e-05,7.05407e-05,9.51192e-06,2.85552e-05
207,-5.00473e-06,3.611e-05,6.10144e-05,7.20011e-05,-3.64225e-08,3.27237e-05
208,-2.52153e-06,3.5601e-05,7.92847e-05,7.54693e-05,-2.29048e-06,4.21275e-05
209,3.95678e-07,1.95451e-05,8.48445e-05,7.92346e-05,4.40191e-06,5.18787e-05
210,2.88791e-06,-9.77896e-06,7.90437e-05,8.38691e-05,1.47404e-05,5.74581e-05
211,6.19491e-06,-2.82912e-05,6.0809e-05,8.6697e-05,2.38087e-05,5.78153e-05
212,7.545e-06,-1.92144e-05,4.35679e-05,8.53403e-05,2.82701e-05,5.28949e-05
213,8.66807e-06,-5.17367e-06,5.0668e-05,8.30462e-05,2.43607e-05,4.26667e-05
214,9.26809e-06,-1.40284e-05,7.35638e-05,8.25853e-05,1.821e-05,3.18642e-05
215,1.15719e-05,-4.64851e-05,8.07919e-05,8.17025e-05,2.16655e-05,2.30059e-05
216,1.51862e-05,-8.70593e-05,6.98325e-05,7.75724e-05,3.07867e-05,1.34566e-05
217,1.56038e-05,-0.000114183,6.45743e-05,7.16623e-05,3.87695e-05,3.28711e-06
218,1.65933e-05,-0.000117745,7.01931e-05,6.74485e-05,4.01384e-05,-4.5989e-06
219,1.99445e-05,-0.000112984,6.54067e-05,6.27349e-05,3.18605e-05,-1.10409e-05
220,2.37346e-05,-0.000117131,4.69135e-05,5.39626e-05,2.1396e-05,-2.07309e-05
221,2.47291e-05,-0.000126305,3.46803e-05,4.4781e-05,1.32351e-05,-3.45743e-05
222,2.34801e-05,-0.000129963,4.92601e-05,4.10116e-05,1.11889e-05,-4.69139e-05
223,2.35039e-05,-0.000120818,7.15744e-05,4.2003e-05,1.57137e-05,-5.29109e-05
224,2.10941e-05,-9.38588e-05,8.40924e-05,4.5085e-05,1.87353e-05,-5.55231e-05
225,1.52185e-05,-6.09459e-05,7.59165e-05,5.17033e-05,1.67408e-05,-5.90721e-05
226,1.36694e-05,-4.40579e-05,4.70257e-05,6.18521e-05,1.52392e-05,-6.27279e-05
227,1.80767e-05,-4.68492e-05,2.66167e-05,7.00973e-05,1.7519e-05,-6.71191e-05
228,2.00063e-05,-5.63443e-05,4.00221e-05,7.63505e-05,2.25861e-05,-7.45048e-05
229,1.77247e-05,-5.71162e-05,7.12459e-05,8.59047e-05,2.87821e-05,-8.03803e-05
230,1.59416e-05,-3.51205e-05,8.67595e-05,9.69497e-05,3.25377e-05,-7.82417e-05
231,1.72462e-05,-6.86486e-06,7.86693e-05,0.000106258,3.22538e-05,-7.18261e-05
232,1.96352e-05,-2.19401e-06,5.69626e-05,0.000115111,3.31134e-05,-6.89762e-05
233,2.10357e-05,-1.43486e-05,4.43051e-05,0.000123855,3.458e-05,-6.87285e-05
234,1.87432e-05,-2.45671e-05,5.35481e-05,0.000128196,3.09304e-05,-6.63112e-05
235,1.48475e-05,-2.96632e-05,7.03273e-05,0.000126022,2.3836e-05,-6.30407e-05
236,1.52373e-05,-4.08059e-05,7.34851e-05,0.000119691,1.89914e-05,-6.00887e-05
237,1.78334e-05,-6.54015e-05,6.89427e-05,0.000109632,1.85174e-05,-5.5241e-05
238,1.78673e-05,-8.32287e-05,5.5524e-05,9.89694e-05,2.18575e-05,-5.10651e-05
239,1.63738e-05,-7.77101e-05,4.21257e-05,9.18627e-05,2.67012e-05,-5.0676e-05
240,1.29791e-05,-6.23949e-05,5.34578e-05,8.6932e-05,2.95026e-05,-5.25784e-05
241,7.9656e-06,-5.68459e-05,8.29475e-05,8.08863e-05,2.9106e-05,-5.33342e-05
242,9.0739e-06,-6.95936e-05,9.7411e-05,7.16563e-05,1.57078e-05,-5.01118e-05
243,9.83651e-06,-9.98821e-05,8.37827e-05,5.72319e-05,-1.54494e-05,-4.46638e-05
244,7.36959e-06,-0.000132418,6.6937e-05,3.67284e-05,-4.21642e-05,-4.24532e-05
245,7.75831e-06,-0.000149532,6.91468e-05,1.20812e-05,-4.39989e-05,-4.4511e-05
246,1.18763e-05,-0.0001517,6.71197e-05,-1.28978e-05,-2.66057e-05,-4.50833e-05
247,1.71252e-05,-0.000151523,4.71471e-05,-3.53397e-05,-6.44902e-06,-3.94143e-05
248,1.79062e-05,-0.000156928,3.03607e-05,-5.3995e-05,3.36242e-06,-2.85782e-05
249,1.40916e-05,-0.000169199,3.90476e-05,-6.82347e-05,1.65148e-06,-1.71701e-05
250,1.24698e-05,-0.00017489,4.70483e-05,-7.77469e-05,1.45691e-06,-7.93087e-06
251,1.53407e-05,-0.000157813,4.4107e-05,-8.37874e-05,7.45185e-06,4.20757e-07
252,1.69208e-05,-0.000133428,3.19963e-05,-9.09141e-05,1.37556e-05,7.59965e-06
253,1.57266e-05,-0.000127643,1.12076e-05,-0.000103435,1.6319e-05,1.02328e-05
254,1.32831e-05,-0.000137714,3.86568e-06,-0.000116045,1.59386e-05,8.30758e-06
255,9.6137e-06,-0.000149521,2.17885e-05,-0.000121348,1.64407e-05,3.90567e-06
256,7.1314e-06,-0.000150547,4.25334e-05,-0.000121208,1.96004e-05,-6.15351e-06
257,6.78616e-06,-0.000123732,4.6202e-05,-0.00011852,2.18982e-05,-2.14325e-05
258,6.29589e-06,-8.1938e-05,3.65243e-05,-0.000114133,1.8004e-05,-3.26134e-05
259,5.45556e-06,-5.41657e-05,1.7836e-05,-0.000106472,1.18743e-05,-3.60512e-05
260,5.93172e-06,-3.48813e-05,6.3146e-06,-9.64414e-05,9.76349e-06,-3.69283e-05
261,5.89416e-06,-1.56212e-05,1.77693e-05,-9.03524e-05,1.16512e-05,-4.16765e-05
262,6.38879e-06,-2.38702e-06,3.91371e-05,-8.61408e-05,1.28509e-05,-4.8137e-05
263,1.15558e-05,-2.34643e-06,4.44459e-05,-7.6751e-05,1.18633e-05,-4.89796e-05
264,1.88908e-05,-1.90098e-05,3.82926e-05,-6.56047e-05,1.28997e-05,-4.12387e-05
265,2.23547e-05,-3.21633e-05,2.19307e-05,-5.91042e-05,1.57801e-05,-2.69326e-05
266,2.12135e-05,-2.31354e-05,5.76077e-06,-5.37593e-05,1.59189e-05,-1.09559e-05
267,1.7303e-05,-5.94275e-06,1.13445e-05,-4.35389e-05,1.28327e-05,5.41667e-06
268,1.28609e-05,-5.25563e-07,3.33322e-05,-3.12681e-05,1.06741e-05,2.11811e-05
269,1.14478e-05,-6.80136e-06,4.12694e-05,-2.26293e-05,1.54329e-05,3.09698e-05
270,1.1649e-05,-1.63771e-05,2.94533e-05,-1.63043e-05,2.10561e-05,3.18919e-05
271,1.10656e-05,-1.6845e-05,2.28747e-05,-7.2594e-06,2.38428e-05,2.94906e-05
272,8.35594e-06,-1.8108e-06,3.22979e-05,4.31045e-06,2.32959e-05,2.9936e-05
273,7.88277e-06,1.68896e-05,3.70702e-05,1.48253e-05,2.00843e-05,3.30228e-05
274,1.32606e-05,2.35752e-05,2.79431e-05,2.40826e-05,1.80419e-05,3.61086e-05
275,1.55302e-05,1.84366e-05,2.28294e-05,3.39398e-05,1.51555e-05,3.87651e-05
276,9.92193e-06,9.03722e-06,4.18755e-05,4.47804e-05,1.44916e-05,4.11823e-05
277,6.48695e-06,3.41134e-06,6.00205e-05,5.70787e-05,1.52789e-05,4.11226e-05
278,8.40909e-06,9.78475e-06,6.11088e-05,7.1384e-05,1.54484e-05,3.63832e-05
279,1.01272e-05,2.08486e-05,4.60884e-05,8.65434e-05,1.26998e-05,2.8296e-05
280,1.03945e-05,2.20091e-05,2.56902e-05,0.000100724,7.61949e-06,2.28346e-05
281,1.00314e-05,1.40503e-05,1.95376e-05,0.00011303,3.48794e-06,2.99025e-05
282,9.24798e-06,5.73759e-07,3.55324e-05,0.000123881,4.71908e-06,6.37611e-05
283,6.12467e-06,-1.34785e-05,5.39483e-05,0.000131211,1.22887e-05,0.000126227
284,-1.3245e-07,-7.53766e-06,5.84397e-05,0.000136574,1.88429e-05,0.000191837
285,-4.38815e-06,1.22613e-05,4.80331e-05,0.000145874,1.83442e-05,0.000234157
286,-3.0774e-06,2.33599e-05,2.19164e-05,0.000153073,1.33169e-05,0.000249894
287,-1.81428e-06,3.42908e-05,3.44174e-06,0.000153247,9.11269e-06,0.000251407
288,-5.04995e-06,5.04641e-05,1.46254e-05,0.000152648,7.36495e-06,0.000247821
289,-6.74464e-06,6.38632e-05,4.00829e-05,0.000151348,9.91947e-06,0.000247227
290,-2.46589e-06,6.93064e-05,4.72559e-05,0.000147423,1.47433e-05,0.000252266
291,4.85269e-06,6.55753e-05,3.50531e-05,0.000140066,1.73626e-05,0.000251971
292,1.03824e-05,6.74551e-05,1.32554e-05,0.00012952,1.91817e-05,0.000239995
293,1.21468e-05,8.50966e-05,1.26941e-06,0.000119294,2.08943e-05,0.000219674
294,1.16169e-05,0.000107186,1.60458e-05,0.000108069,2.12432e-05,0.000200617
295,1.13443e-05,0.000119257,4.35053e-05,9.45641e-05,2.50797e-05,0.000187817
296,1.30751e-05,0.000117236,5.21608e-05,8.37875e-05,3.47391e-05,0.000178787
297,1.4066e-05,0.000101475,4.40682e-05,7.80038e-05,3.82802e-05,0.000168802
298,1.50227e-05,8.33717e-05,3.98132e-05,7.49526e-05,2.61154e-05,0.00015353
299,1.63266e-05,7.75705e-05,5.0281e-05,7.36377e-05,2.47986e-06,0.000132934
300,1.80437e-05,7.8687e-05,4.86531e-05,7.22281e-05,-1.68873e-05,0.00011226
301,1.90466e-05,6.96863e-05,2.79664e-05,6.68835e-05,-2.04797e-05,9.26352e-05
302,1.87718e-05,4.57658e-05,1.82223e-05,5.7873e-05,-1.50056e-05,6.88011e-05
303,1.768e-05,1.43343e-05,3.4496e-05,4.84054e-05,-3.47936e-06,4.0894e-05
304,1.65178e-05,-9.83776e-06,5.15965e-05,3.82537e-05,8.33558e-06,1.60186e-05
305,1.85175e-05,-1.29615e-05,5.60725e-05,2.72863e-05,1.57615e-05,-4.24898e-07
306,2.18072e-05,-4.5033e-06,5.06943e-05,1.78136e-05,1.58296e-05,-9.65443e-06
307,2.34189e-05,-6.31406e-06,3.88634e-05,9.41335e-06,1.09298e-05,-1.67894e-05
308,2.15577e-05,-2.32611e-05,3.46879e-05,4.8944e-07,6.27262e-06,-2.54313e-05
309,1.65747e-05,-4.64046e-05,4.98909e-05,-7.33877e-06,6.00781e-06,-3.58068e-05
310,1.32039e-05,-5.6475e-05,7.16659e-05,-1.06372e-05,1.12839e-05,-4.80704e-05
311,1.4343e-05,-3.50513e-05,7.80204e-05,-6.92087e-06,1.66719e-05,-6.18959e-05
312,1.62007e-05,-9.17146e-06,6.60568e-05,-7.78991e-07,1.75127e-05,-7.57074e-05
313,1.64837e-05,-1.24668e-05,4.11263e-05,2.19437e-06,1.56808e-05,-8.46195e-05
314,1.65184e-05,-3.13384e-05,2.57422e-05,4.81523e-06,1.62399e-05,-8.68525e-05
315,1.64465e-05,-5.1287e-05,4.31713e-05,1.17974e-05,1.71941e-05,-8.76188e-05
316,1.50772e-05,-7.57717e-05,7.68274e-05,2.35619e-05,1.61599e-05,-9.45405e-05
317,1.27139e-05,-0.000111426,8.7884e-05,3.45579e-05,1.48188e-05,-0.000108769
318,1.19192e-05,-0.000152538,7.79532e-05,4.04137e-05,1.57261e-05,-0.000124319
319,1.64879e-05,-0.000169619,5.75923e-05,4.40752e-05,1.2427e-05,-0.000136419
320,2.18537e-05,-0.000148324,4.27003e-05,5.01749e-05,4.09561e-06,-0.000146995
321,1.95417e-05,-0.000112657,5.57899e-05,5.912e-05,-4.42147e-06,-0.000156611
322,1.39013e-05,-9.50137e-05,8.07685e-05,6.84165e-05,-4.34329e-06,-0.000160608
323,1.12696e-05,-0.000104674,8.18132e-05,7.72865e-05,4.73837e-06,-0.000159529
324,7.96096e-06,-0.000131089,6.50286e-05,8.60451e-05,1.26474e-05,-0.000159624
325,3.01548e-06,-0.000151765,5.79537e-05,9.24684e-05,1.58855e-05,-0.000162686
326,2.20496e-06,-0.000151456,6.15172e-05,9.32978e-05,1.33001e-05,-0.000165089
327,7.67755e-06,-0.000137876,5.94508e-05,8.96628e-05,7.01329e-06,-0.000167247
328,1.62717e-05,-0.000128542,4.76046e-05,8.48606e-05,4.76347e-06,-0.000170836
329,2.08197e-05,-0.000132113,3.95509e-05,8.25174e-05,8.15031e-06,-0.000172761
330,1.71847e-05,-0.000148826,5.54728e-05,8.36978e-05,1.30724e-05,-0.00017025
331,1.3345e-05,-0.000165278,7.71501e-05,8.44109e-05,1.68052e-05,-0.000166103
332,1.54736e-05,-0.000160891,8.8477e-05,8.30562e-05,2.06836e-05,-0.000162325
333,1.91588e-05,-0.000138684,8.49839e-05,8.37205e-05,2.24894e-05,-0.000158346
334,2.15072e-05,-0.000115129,6.78593e-05,8.58321e-05,2.08841e-05,-0.000154339
335,2.0943e-05,-9.69131e-05,5.47063e-05,8.34291e-05,1.87345e-05,-0.000150078
336,1.6741e-05,-8.70298e-05,6.45489e-05,7.59451e-05,1.89755e-05,-0.00014692
337,1.13259e-05,-7.62559e-05,7.85219e-05,6.78e-05,2.23417e-05,-0.000147873
338,7.49072e-06,-4.25641e-05,7.58353e-05,6.14892e-05,2.47493e-05,-0.000150023
339,6.99781e-06,-4.34069e-06,6.00884e-05,5.51941e-05,2.37994e-05,-0.000147261
340,1.05446e-05,5.30795e-06,3.87199e-05,4.64497e-05,2.03127e-05,-0.000136775
341,1.54002e-05,-1.27209e-06,2.83943e-05,3.67632e-05,1.91031e-05,-0.000122165
342,1.60731e-05,-4.89911e-06,4.28354e-05,2.96914e-05,2.11392e-05,-0.000110639
343,1.40122e-05,-8.81191e-07,6.79292e-05,2.55018e-05,2.35562e-05,-9.99956e-05
344,1.39441e-05,3.9564e-06,7.90168e-05,2.17149e-05,2.23603e-05,-8.53327e-05
345,1.6305e-05,3.42286e-06,7.48985e-05,1.56063e-05,1.73968e-05,-7.153e-05
346,2.02571e-05,1.63152e-05,5.42441e-05,8.46752e-06,1.10709e-05,-6.5044e-05
347,2.18484e-05,5.34028e-05,3.62766e-05,4.07089e-06,2.66995e-06,-6.45742e-05
348,1.80763e-05,9.21793e-05,4.85991e-05,3.32928e-06,-6.49166e-06,-6.66367e-05
349,1.43922e-05,0.000106753,7.53585e-05,4.27159e-06,-6.95419e-06,-7.14562e-05
350,1.74908e-05,9.40994e-05,7.97518e-05,4.03521e-06,7.34253e-06,-8.02269e-05
351,2.20186e-05,6.56391e-05,7.11953e-05,1.67936e-08,1.81898e-05,-9.01065e-05
352,2.34968e-05,4.34168e-05,7.07996e-05,-6.09296e-06,1.72074e-05,-9.45854e-05
353,2.29279e-05,4.24973e-05,7.82989e-05,-9.78047e-06,1.29187e-05,-9.15827e-05
354,2.30453e-05,5.35281e-05,7.68034e-05,-1.33365e-05,9.83722e-06,-8.5751e-05
355,2.72977e-05,5.99453e-05,6.04208e-05,-2.20683e-05,1.12896e-05,-8.1814e-05
356,2.91352e-05,6.13984e-05,4.83872e-05,-3.29189e-05,1.30059e-05,-7.88528e-05
357,2.49858e-05,6.2543e-05,6.37266e-05,-3.93177e-05,1.46582e-05,-7.27457e-05
358,1.90855e-05,6.95146e-05,8.18613e-05,-4.09674e-05,1.58059e-05,-6.10161e-05
359,1.61954e-05,9.17035e-05,9.06298e-05,-3.94016e-05,2.10455e-05,-4.46285e-05
360,1.48242e-05,0.000121679,8.54954e-05,-3.53592e-05,3.37152e-05,-2.60413e-05
361,1.37478e-05,0.000142735,6.41124e-05,-3.13021e-05,5.38285e-05,-7.41016e-06
362,1.17775e-05,0.000151087,4.75949e-05,-2.71832e-05,7.143e-05,6.33922e-06
363,7.66329e-06,0.000150834,5.75508e-05,-2.21375e-05,7.43875e-05,9.05296e-06
364,6.20052e-06,0.000150836,8.24341e-05,-1.86218e-05,6.25854e-05,2.24005e-06
365,7.77965e-06,0.000163356,9.2724e-05,-1.75191e-05,4.2215e-05,-6.37881e-06
366,7.58117e-06,0.000176908,8.30946e-05,-1.42124e-05,1.84313e-05,-1.22112e-05
367,5.24444e-06,0.000176314,6.33591e-05,-2.7087e-06,-5.07902e-06,-1.44707e-05
368,3.90436e-06,0.000172663,5.22964e-05,1.44131e-05,-2.13103e-05,-1.66718e-05
369,2.44764e-06,0.000174625,6.12589e-05,2.62174e-05,-2.80181e-05,-2.40737e-05
370,5.98616e-07,0.000182668,7.68551e-05,2.89629e-05,-2.53103e-05,-3.3737e-05
371,-1.18026e-06,0.000194773,7.33372e-05,2.84523e-05,-1.6113e-05,-3.89635e-05
372,-2.86061e-06,0.000200272,5.71638e-05,2.6467e-05,-1.22489e-06,-4.04847e-05
373,-2.54433e-06,0.000206335,3.95263e-05,2.26423e-05,1.58249e-05,-4.1103e-05
374,-4.80312e-08,0.000225775,3.36255e-05,2.0125e-05,3.08865e-05,-4.10455e-05
375,-9.33433e-07,0.000242783,4.88966e-05,2.02221e-05,4.15766e-05,-3.98672e-05
376,-5.04362e-06,0.000233915,7.53956e-05,2.14681e-05,4.569e-05,-3.96074e-05
377,-4.28353e-06,0.000200136,8.48478e-05,2.31027e-05,4.06402e-05,-4.41379e-05
378,2.83452e-06,0.000155293,7.412e-05,2.58273e-05,2.90667e-05,-5.15882e-05
379,5.83953e-06,0.000116905,6.41964e-05,2.86717e-05,1.4788e-05,-5.51361e-05
380,5.09872e-06,9.61732e-05,6.94796e-05,3.03778e-05,7.50448e-07,-5.16883e-05
381,8.48758e-06,8.8354e-05,7.38097e-05,3.43783e-05,-3.36604e-06,-4.51331e-05
382,1.32989e-05,8.26281e-05,5.79988e-05,4.32357e-05,3.61249e-06,-3.92304e-05
383,1.78972e-05,7.35581e-05,4.3712e-05,5.25904e-05,1.2431e-05,-3.38875e-05
384,1.92234e-05,6.1077e-05,5.41442e-05,5.791e-05,1.94061e-05,-2.86035e-05
385,1.91304e-05,5.74738e-05,6.24899e-05,6.10928e-05,2.36201e-05,-2.63528e-05
386,2.05125e-05,7.77665e-05,5.99046e-05,6.59525e-05,2.5907e-05,-3.15234e-05
387,2.27322e-05,0.000108275,5.0309e-05,7.25626e-05,2.63394e-05,-4.29346e-05
388,2.46686e-05,0.000124084,3.1473e-05,7.78395e-05,2.64567e-05,-5.42478e-05
389,2.30845e-05,0.00012277,1.94171e-05,8.27753e-05,2.83152e-05,-5.87268e-05
390,1.85476e-05,0.0001103,2.86572e-05,9.24495e-05,3.09363e-05,-5.17566e-05
391,1.75073e-05,9.52166e-05,4.47108e-05,0.00010762,3.3782e-05,-3.80395e-05
392,2.11767e-05,9.69135e-05,4.93368e-05,0.000125904,3.68936e-05,-2.60601e-05
393,2.15705e-05,0.000106801,4.27485e-05,0.000144433,3.71015e-05,-1.63296e-05
394,1.75542e-05,0.000103926,2.5055e-05,0.000160323,3.149e-05,-8.11071e-06
395,1.35436e-05,9.56684e-05,1.12116e-05,0.000173504,2.13153e-05,-1.89203e-06
396,1.03006e-05,8.89698e-05,2.16535e-05,0.000180609,1.0976e-05,2.84421e-06
397,1.02503e-05,7.89583e-05,4.51806e-05,0.000178542,6.08078e-06,5.64305e-06
398,1.43389e-05,5.81843e-05,5.35648e-05,0.000171589,7.14855e-06,4.47778e-06
399,1.69056e-05,2.20896e-05,4.98951e-05,0.000162155,9.99551e-06,-1.94492e-07
400,1.62954e-05,-1.05332e-05,4.1083e-05,0.000148608,9.69028e-06,-5.21291e-06
401,1.45299e-05,-2.1688e-05,3.65176e-05,0.000133597,1.15128e-05,-6.72554e-06
402,1.09443e-05,-2.48073e-05,5.33216e-05,0.000122957,1.70085e-05,-3.51721e-06
403,6.93433e-06,-3.8353e-05,7.89761e-05,0.000115414,2.28908e-05,2.56782e-07
404,7.65051e-06,-6.32695e-05,8.25137e-05,0.000109133,2.77971e-05,6.49732e-07
405,1.07504e-05,-9.11488e-05,6.44223e-05,0.000105734,2.88245e-05,-2.70215e-06
406,1.04582e-05,-0.000105219,4.8169e-05,0.000103199,2.36319e-05,-4.77435e-06
407,7.1879e-06,-9.57803e-05,4.78012e-05,9.80805e-05,4.87487e-06,4.69342e-07
408,4.2222e-06,-7.95613e-05,4.55031e-05,9.06205e-05,-1.59801e-05,1.38351e-05
409,2.9998e-06,-8.03406e-05,3.17108e-05,8.25825e-05,-2.43557e-05,2.90295e-05
410,4.43411e-06,-9.9338e-05,2.21344e-05,7.54e-05,-2.43687e-05,3.88973e-05
411,6.91051e-06,-0.000123096,3.32825e-05,6.98628e-05,-1.71957e-05,4.24852e-05
412,7.02134e-06,-0.0001366,4.52487e-05,6.54004e-05,-6.00983e-06,4.39111e-05
413,5.63413e-06,-0.000130065,5.12762e-05,6.05019e-05,4.32462e-06,4.79763e-05
414,4.65762e-06,-0.000112876,4.74324e-05,5.31405e-05,1.11601e-05,5.7237e-05
415,4.64062e-06,-9.87514e-05,2.26379e-05,4.29514e-05,1.48077e-05,6.93843e-05
416,3.66037e-06,-8.70267e-05,-1.19886e-06,3.1966e-05,1.66217e-05,7.59789e-05
417,2.40093e-06,-7.86334e-05,4.1727e-06,2.21316e-05,1.72422e-05,7.18432e-05
418,3.22813e-06,-7.37154e-05,2.51115e-05,1.23994e-05,1.62092e-05,6.14801e-05
419,3.73684e-06,-5.92438e-05,3.3883e-05,3.33883e-06,1.507e-05,5.3943e-05
420,2.55902e-06,-4.11041e-05,2.69837e-05,-2.08191e-06,1.39795e-05,5.18418e-05
421,1.88952e-06,-3.54542e-05,1.23094e-05,-5.67055e-06,9.57694e-06,4.86534e-05
422,1.74871e-06,-3.96696e-05,5.25709e-06,-1.15758e-05,1.06948e-06,4.11405e-05
423,5.79254e-07,-4.79222e-05,1.77045e-05,-1.7606e-05,-5.8074e-06,3.39734e-05
424,-5.42629e-08,-5.48271e-05,3.96264e-05,-1.92031e-05,-3.00447e-06,3.25196e-05
425,1.47977e-07,-6.07698e-05,4.91228e-05,-1.92611e-05,6.88889e-06,3.80417e-05
426,5.8072e-07,-7.23861e-05,4.17884e-05,-2.43799e-05,1.19945e-05,5.00624e-05
427,2.22726e-06,-8.08311e-05,1.92009e-05,-3.22946e-05,6.97416e-06,6.52018e-05
428,4.5672e-06,-7.40425e-05,1.10971e-06,-3.70247e-05,-3.08364e-06,7.44474e-05
429,3.96735e-06,-5.94094e-05,1.02483e-05,-4.08776e-05,-7.7019e-06,7.29237e-05
430,2.87678e-06,-4.99084e-05,3.7122e-05,-4.85181e-05,-1.97923e-06,6.46303e-05
431,4.46193e-06,-5.13052e-05,5.24539e-05,-5.73847e-05,8.29023e-06,5.65886e-05
432,5.29816e-06,-6.35088e-05,4.78461e-05,-6.16014e-05,1.46979e-05,5.21097e-05
433,2.84199e-06,-7.06189e-05,4.42696e-05,-6.07306e-05,1.3185e-05,4.88612e-05
434,-1.75277e-06,-5.65056e-05,5.25774e-05,-6.01597e-05,8.26243e-06,4.26278e-05
435,-2.45414e-06,-2.96588e-05,4.74762e-05,-6.15857e-05,5.18218e-06,3.17402e-05
436,2.99393e-07,-9.51146e-06,2.95368e-05,-6.18792e-05,6.31077e-06,1.87676e-05
437,1.9442e-06,-3.69911e-06,2.35693e-05,-5.9728e-05,8.53678e-06,7.41839e-06
438,7.13562e-07,-1.02709e-05,4.58975e-05,-5.58137e-05,1.05744e-05,-3.09309e-06
439,-5.01638e-07,-1.58938e-05,6.75402e-05,-4.84395e-05,1.30973e-05,-1.56609e-05
440,-9.74595e-07,-5.01559e-06,7.34408e-05,-3.75637e-05,1.47386e-05,-3.01681e-05
441,4.78672e-07,1.44142e-05,6.22652e-05,-3.02343e-05,1.48055e-05,-4.56718e-05
442,5.94281e-06,2.14668e-05,4.18151e-05,-2.93019e-05,1.57269e-05,-6.13131e-05
443,1.45249e-05,1.10117e-05,3.32456e-05,-2.71814e-05,1.4458e-05,-7.51239e-05
444,2.02283e-05,-9.4549e-06,4.51478e-05,-1.83413e-05,7.83718e-06,-8.35195e-05
445,2.06733e-05,-2.60024e-05,5.93412e-05,-6.73705e-06,1.26813e-06,-8.28726e-05
446,1.96118e-05,-1.61695e-05,5.87297e-05,9.95051e-07,-1.77155e-08,-7.50776e-05
447,1.95007e-05,1.87127e-05,4.83095e-05,5.0603e-06,3.60229e-06,-6.80716e-05
448,2.04983e-05,5.27512e-05,3.04604e-05,1.06012e-05,5.34339e-06,-6.4161e-05
449,2.05004e-05,7.66624e-05,1.85498e-05,1.78316e-05,2.36472e-06,-5.76827e-05
450,1.93007e-05,8.94975e-05,2.77365e-05,2.34486e-05,-1.63747e-06,-4.59895e-05
451,1.81141e-05,8.73342e-05,5.29848e-05,2.71708e-05,-1.4714e-06,-3.35833e-05
452,1.77154e-05,7.01739e-05,6.63755e-05,3.14996e-05,3.86414e-06,-2.35478e-05
453,1.83905e-05,4.25667e-05,6.1029e-05,3.4446e-05,1.05911e-05,-1.48152e-05
454,2.16751e-05,2.32051e-05,4.03045e-05,3.59514e-05,1.43063e-05,-8.67901e-06
455,2.46759e-05,2.63142e-05,2.08813e-05,4.00519e-05,1.07584e-05,-5.13378e-06
456,2.51602e-05,3.91835e-05,2.48319e-05,4.51795e-05,-1.38018e-06,-1.27373e-06
457,2.38569e-05,4.03276e-05,4.94526e-05,4.74983e-05,-1.14526e-05,3.46573e-06
458,2.39702e-05,1.95493e-05,7.04026e-05,4.74543e-05,-7.91002e-06,7.14918e-06
459,2.61806e-05,-1.95676e-05,8.2069e-05,4.94567e-05,3.09515e-06,8.26419e-06
460,2.73806e-05,-5.72032e-05,9.12996e-05,5.41516e-05,1.09806e-05,9.22532e-06
461,2.4299e-05,-7.44262e-05,0.000102466,5.69366e-05,1.53125e-05,1.39172e-05
462,2.02628e-05,-7.51761e-05,9.40206e-05,5.62954e-05,1.77079e-05,2.04417e-05
463,1.84202e-05,-7.68361e-05,6.89691e-05,5.5853e-05,1.95827e-05,2.29265e-05
464,1.88246e-05,-8.68114e-05,5.50858e-05,5.91227e-05,2.56731e-05,1.97607e-05
465,1.89785e-05,-0.000102651,6.51187e-05,6.62829e-05,3.37037e-05,1.4062e-05
466,1.89718e-05,-0.000117242,8.29646e-05,7.43891e-05,3.67031e-05,8.70048e-06
467,1.96931e-05,-0.000123938,9.28376e-05,8.08605e-05,3.5986e-05,4.37495e-06
468,2.10544e-05,-0.000129878,8.6567e-05,8.79589e-05,3.3673e-05,1.81249e-06
469,2.40293e-05,-0.000143742,6.82124e-05,9.71038e-05,2.99524e-05,4.43554e-06
470,2.46995e-05,-0.000162313,5.96308e-05,0.000103079,1.88906e-05,1.55283e-05
471,2.26431e-05,-0.000187289,7.24251e-05,0.000102405,-1.61886e-06,3.30003e-05
472,2.24044e-05,-0.000214438,8.73152e-05,9.91e-05,-1.99299e-05,4.92143e-05
473,2.45393e-05,-0.000220041,8.74572e-05,9.71694e-05,-2.22126e-05,6.12637e-05
474,2.37541e-05,-0.000205016,8.14277e-05,9.39022e-05,-9.65178e-06,7.33147e-05
475,1.95201e-05,-0.000189523,6.80687e-05,8.44301e-05,3.80675e-06,8.1404e-05
476,1.64426e-05,-0.000173221,5.8115e-05,7.06796e-05,9.37196e-06,7.7027e-05
477,1.56865e-05,-0.000155945,7.40889e-05,5.89153e-05,9.2529e-06,6.19942e-05
478,1.4623e-05,-0.000145785,0.000104965,4.92566e-05,1.20534e-05,4.57284e-05
479,1.17991e-05,-0.000147208,0.000112617,4.09471e-05,1.92283e-05,3.58739e-05
480,7.83372e-06,-0.00015667,9.63225e-05,3.49937e-05,2.26543e-05,3.28862e-05
481,6.54018e-06,-0.000156278,6.73824e-05,2.88546e-05,1.78009e-05,2.96447e-05
482,8.41182e-06,-0.000137213,4.59828e-05,2.25417e-05,1.25215e-05,2.18639e-05
483,8.40007e-06,-0.000117325,5.92855e-05,1.93887e-05,1.21848e-05,1.15967e-05
484,6.50919e-06,-0.000112032,9.32849e-05,2.13379e-05,1.59228e-05,1.18291e-06
485,8.37021e-06,-0.000118679,0.000106341,2.63562e-05,1.92812e-05,-8.23179e-06
486,1.2122e-05,-0.000130911,9.64697e-05,3.00983e-05,1.80145e-05,-1.64445e-05
487,1.39836e-05,-0.000137754,8.41188e-05,3.08662e-05,1.58815e-05,-2.15951e-05
488,1.41063e-05,-0.000132219,8.32548e-05,3.10016e-05,1.54112e-05,-2.29359e-05
489,1.44248e-05,-0.000125233,7.82618e-05,3.2865e-05,1.71845e-05,-2.25057e-05
490,1.52873e-05,-0.00013019,5.43886e-05,3.60489e-05,1.97097e-05,-2.33292e-05
491,1.33499e-05,-0.000145149,3.83292e-05,3.99577e-05,1.93714e-05,-2.71005e-05
492,6.70953e-06,-0.000162789,5.28187e-05,4.48732e-05,1.59229e-05,-3.46917e-05
493,3.54419e-07,-0.000170751,7.3384e-05,4.97018e-05,1.42616e-05,-4.76511e-05
494,-8.82729e-07,-0.000155323,7.7947e-05,5.1425e-05,1.77343e-05,-6.63279e-05
495,3.00422e-06,-0.000124236,6.49555e-05,4.97192e-05,2.30761e-05,-8.61561e-05
496,1.02369e-05,-0.00010039,3.87874e-05,4.63654e-05,3.04058e-05,-0.000100242
497,1.45292e-05,-9.55899e-05,2.46546e-05,4.1539e-05,3.68754e-05,-0.000104977
498,1.29707e-05,-0.000106608,4.35011e-05,3.52983e-05,4.25646e-05,-0.000101732
499,1.1308e-05,-0.000113922,7.44079e-05,3.04489e-05,4.62407e-05,-9.57201e-05
500,1.20829e-05,-9.43859e-05,8.76518e-05,2.89148e-05,4.3669e-05,-8.97093e-05
501,1.27969e-05,-6.41019e-05,7.89835e-05,2.75904e-05,3.03928e-05,-8.33365e-05
502,1.2347e-05,-4.9249e-05,5.62621e-05,2.23677e-05,6.70451e-06,-7.40479e-05
503,1.20569e-05,-4.03627e-05,3.84591e-05,1.05137e-05,-1.11124e-05,-6.14102e-05
504,1.21843e-05,-2.91269e-05,4.63746e-05,-5.50873e-06,-1.03831e-05,-4.6616e-05
505,1.17162e-05,-1.7309e-05,7.21913e-05,-1.84244e-05,2.2661e-06,-3.00226e-05
506,1.01779e-05,-1.26442e-05,8.69004e-05,-2.569e-05,1.62826e-05,-1.65452e-05
507,1.0531e-05,-2.66665e-05,8.06033e-05,-3.17129e-05,2.71694e-05,-7.3433e-06
508,1.56909e-05,-4.10446e-05,5.32352e-05,-3.96292e-05,3.09071e-05,4.38192e-06
509,2.05808e-05,-3.18983e-05,2.42205e-05,-4.79233e-05,2.8591e-05,2.04025e-05
510,2.43794e-05,-7.42195e-06,2.63061e-05,-5.57595e-05,2.67467e-05,3.30611e-05
511,2.98041e-05,1.1993e-05,5.13783e-05,-5.99516e-05,2.92937e-05,3.62704e-05
512,3.16676e-05,1.76007e-05,6.24483e-05,-5.61943e-05,3.33697e-05,3.1159e-05
513,2.94552e-05,1.24606e-05,5.28822e-05,-4.68241e-05,3.28071e-05,2.22261e-05
514,3.05743e-05,1.4182e-05,4.57631e-05,-3.76623e-05,3.5581e-05,1.47825e-05
515,3.16253e-05,3.21019e-05,4.91051e-05,-3.04186e-05,4.60558e-05,1.09027e-05
516,2.81568e-05,5.40992e-05,3.7768e-05,-2.42496e-05,4.84895e-05,7.59019e-06
517,2.57937e-05,6.96238e-05,1.47625e-05,-1.90517e-05,4.58358e-05,1.44192e-06
518,2.99108e-05,8.01252e-05,2.80853e-06,-1.33131e-05,4.8133e-05,-7.03829e-06
519,3.15574e-05,8.64079e-05,1.28158e-05,-6.09235e-06,5.04918e-05,-1.42857e-05
520,2.50137e-05,9.50291e-05,2.70801e-05,6.23382e-07,3.76629e-05,-1.78561e-05
521,1.7301e-05,0.000119162,3.11503e-05,5.89514e-06,1.42553e-05,-1.84996e-05
522,1.3478e-05,0.00014957,2.41412e-05,1.1508e-05,-4.70732e-06,-1.79249e-05
523,1.45401e-05,0.000164306,7.21295e-06,1.81793e-05,-7.27518e-06,-1.82569e-05
524,1.43152e-05,0.000161565,-3.9923e-06,2.46866e-05,2.58746e-06,-2.02667e-05
525,9.44435e-06,0.000148197,6.77534e-06,2.88986e-05,2.47738e-06,-2.21942e-05
526,4.57366e-06,0.000135487,2.91037e-05,3.06351e-05,-1.31707e-05,-2.25616e-05
527,3.8015e-06,0.000145584,4.09422e-05,3.06903e-05,-2.72898e-05,-2.20031e-05
528,5.77621e-06,0.000168473,3.57872e-05,2.63303e-05,-2.15333e-05,-2.28449e-05
529,8.29584e-06,0.000177496,1.74841e-05,1.60297e-05,-4.39557e-06,-2.42419e-05
530,9.68073e-06,0.000173055,3.49105e-07,5.58675e-06,7.70601e-06,-2.4026e-05
531,7.65809e-06,0.000160645,3.89213e-06,-4.11095e-07,1.28096e-05,-2.13164e-05
532,2.1801e-06,0.00014228,2.65256e-05,-2.61622e-06,1.67324e-05,-1.75668e-05
533,-2.91469e-06,0.000117104,4.46126e-05,-6.39249e-07,1.91727e-05,-1.8972e-05
534,-3.60628e-06,8.47037e-05,4.6821e-05,7.2766e-06,1.89307e-05,-2.53913e-05
535,8.78682e-07,6.37481e-05,3.22181e-05,2.14486e-05,1.67199e-05,-2.79587e-05
536,4.7103e-06,6.463e-05,2.14144e-05,3.87631e-05,1.40883e-05,-2.04228e-05
537,1.85271e-07,6.71698e-05,3.46113e-05,5.47943e-05,1.55297e-05,-6.7702e-06
538,-6.34027e-06,5.55642e-05,5.77116e-05,6.94084e-05,2.21035e-05,4.90523e-06
539,-8.24187e-06,3.44578e-05,6.30525e-05,8.47296e-05,2.25348e-05,1.03299e-05
540,-7.9922e-06,1.08548e-05,5.43573e-05,9.95722e-05,1.33962e-05,7.0087e-06
541,-8.67646e-06,-3.77055e-06,5.49557e-05,0.000109842,6.80652e-06,-4.38822e-06
542,-8.99729e-06,-1.15771e-06,6.2236e-05,0.000115088,1.14916e-05,-1.99898e-05
543,-4.19018e-06,9.08339e-06,5.61155e-05,0.000118784,1.82999e-05,-3.53223e-05
544,2.57449e-06,1.40588e-05,3.47533e-05,0.000122128,1.73319e-05,-4.77446e-05
545,5.65188e-06,1.13096e-05,2.24038e-05,0.000124953,1.38095e-05,-5.82766e-05
546,3.66106e-06,1.05225e-06,4.07765e-05,0.000126946,1.29902e-05,-7.01212e-05
547,-9.26469e-07,-5.49728e-06,6.01413e-05,0.00012757,1.38076e-05,-8.35216e-05
548,-3.96223e-06,1.0343e-05,6.1915e-05,0.000127151,1.46226e-05,-9.36033e-05
549,-6.08317e-07,4.30659e-05,4.95535e-05,0.000125174,1.05066e-05,-9.54687e-05
550,7.11743e-06,7.07557e-05,2.91795e-05,0.000118253,5.1604e-06,-8.9828e-05
551,1.25779e-05,8.08685e-05,1.58297e-05,0.000108005,5.20269e-06,-8.16196e-05
552,1.24628e-05,6.91016e-05,2.60365e-05,9.92456e-05,7.10078e-06,-7.28139e-05
553,1.12883e-05,4.8961e-05,4.97207e-05,9.33488e-05,7.53773e-06,-6.07547e-05
554,1.20354e-05,5.40201e-05,6.20643e-05,8.99767e-05,7.81021e-06,-4.38651e-05
555,1.16393e-05,8.28231e-05,5.51436e-05,8.63508e-05,1.07117e-05,-2.23891e-05
556,8.39621e-06,9.89217e-05,3.29166e-05,8.13515e-05,1.51308e-05,1.05489e-06
557,5.18569e-06,9.11521e-05,1.79241e-05,7.8837e-05,1.93356e-05,2.13499e-05
558,4.37975e-06,6.55257e-05,3.12754e-05,8.15471e-05,2.14689e-05,3.60005e-05
559,4.36528e-06,3.16912e-05,5.50728e-05,8.76301e-05,2.26922e-05,4.58813e-05
560,2.07186e-06,3.26792e-06,5.72404e-05,9.45981e-05,2.32266e-05,5.20786e-05
561,-2.09601e-06,-1.72077e-05,4.4195e-05,9.97422e-05,2.29073e-05,5.57728e-05
562,8.46308e-07,-2.14959e-05,2.98731e-05,0.000102091,1.86769e-05,5.93162e-05
563,8.1045e-06,-5.80735e-06,2.68913e-05,0.000103342,1.2116e-05,6.52962e-05
564,7.51687e-06,9.54707e-06,4.40509e-05,0.000108121,1.12489e-05,7.35785e-05
565,2.32009e-06,7.88051e-06,6.53114e-05,0.000117733,1.50981e-05,8.22558e-05
566,3.70107e-06,-8.92643e-06,6.99309e-05,0.00012522,1.76449e-05,9.05199e-05
567,9.87725e-06,-3.10716e-05,6.13913e-05,0.000126286,1.86634e-05,9.57898e-05
568,1.36307e-05,-4.25004e-05,5.45727e-05,0.000123064,2.12285e-05,9.68828e-05
569,1.53036e-05,-3.51203e-05,5.75174e-05,0.000117638,3.13193e-05,9.79926e-05
570,1.57528e-05,-2.15322e-05,5.81544e-05,0.000111118,4.34224e-05,0.000101515
571,1.60172e-05,-1.73935e-05,4.4358e-05,0.00010643,4.50475e-05,0.000103731
572,1.67459e-05,-2.31189e-05,3.01729e-05,0.00010538,3.9656e-05,0.000103401
573,1.44963e-05,-3.13727e-05,3.80265e-05,0.000105255,3.43444e-05,0.000103687
574,1.14828e-05,-2.95152e-05,5.01349e-05,0.000102174,2.11895e-05,0.000106026
575,8.53476e-06,-5.81348e-06,5.80182e-05,9.72603e-05,-2.51822e-06,0.000109484
576,8.18995e-06,2.77266e-05,5.50538e-05,9.45617e-05,-2.33455e-05,0.000111651
577,1.24095e-05,4.89129e-05,3.84351e-05,9.22298e-05,-3.05058e-05,0.000110113
578,1.76722e-05,5.52414e-05,2.71255e-05,8.42703e-05,-2.61163e-05,0.000105299
579,2.16496e-05,5.17971e-05,4.23175e-05,7.40285e-05,-1.59341e-05,0.000101551
580,2.47773e-05,4.70676e-05,6.79657e-05,6.89657e-05,-5.36299e-06,0.000101848
581,2.48898e-05,5.71354e-05,7.69958e-05,6.6339e-05,-1.0087e-06,0.000100499
582,2.26957e-05,7.13195e-05,6.8152e-05,6.16029e-05,-3.64292e-06,9.25639e-05
583,2.19965e-05,7.43409e-05,5.02929e-05,5.59632e-05,-7.87488e-06,8.4543e-05
584,2.10334e-05,7.68256e-05,4.42774e-05,4.72297e-05,-6.65633e-06,8.1989e-05
585,1.75054e-05,7.93261e-05,6.6087e-05,3.32353e-05,8.53088e-07,8.099e-05
586,1.46859e-05,7.44038e-05,9.75481e-05,1.90637e-05,8.98893e-06,7.28184e-05
587,1.6159e-05,5.77533e-05,0.000108417,6.80213e-06,1.30264e-05,5.49878e-05
588,2.0073e-05,2.87077e-05,0.000102964,-6.02486e-06,1.30265e-05,3.75824e-05
589,2.42511e-05,6.16492e-06,8.26607e-05,-1.95154e-05,1.01166e-05,2.96511e-05
590,2.74026e-05,3.64412e-06,6.52727e-05,-3.16133e-05,1.05485e-05,3.08336e-05
591,2.53637e-05,2.678e-06,7.6023e-05,-4.25225e-05,1.31723e-05,3.62401e-05
592,1.96758e-05,-1.72031e-05,0.00010219,-5.25992e-05,1.43523e-05,4.15866e-05
593,2.00883e-05,-5.15042e-05,0.00010726,-6.0537e-05,1.93248e-05,4.36421e-05
594,2.30241e-05,-8.44276e-05,9.37339e-05,-6.72475e-05,2.70402e-05,4.0495e-05
595,2.53075e-05,-0.000100479,8.16738e-05,-7.50341e-05,3.13563e-05,3.48036e-05
596,2.72894e-05,-9.98776e-05,7.82934e-05,-8.06667e-05,3.08115e-05,3.00888e-05
597,2.87906e-05,-0.000100403,6.99308e-05,-7.86642e-05,2.85417e-05,2.66493e-05
598,2.81163e-05,-0.000113016,5.34379e-05,-6.98283e-05,2.73591e-05,2.09965e-05
599,2.46782e-05,-0.00013088,5.18588e-05,-5.87804e-05,2.57785e-05,9.46082e-06
600,2.0167e-05,-0.000148595,7.17976e-05,-4.89042e-05,2.55468e-05,-6.79128e-06
601,1.82093e-05,-0.000162008,8.32145e-05,-4.24676e-05,2.59747e-05,-2.18434e-05
602,2.04056e-05,-0.000161608,8.10804e-05,-4.08369e-05,2.63722e-05,-3.34339e-05
603,2.32074e-05,-0.00015284,7.59372e-05,-4.21961e-05,3.01956e-05,-4.44001e-05
604,2.46671e-05,-0.000152559,6.1358e-05,-4.44057e-05,3.99902e-05,-5.47534e-05
605,2.2946e-05,-0.000165594,4.82988e-05,-4.44844e-05,5.24277e-05,-6.15227e-05
606,1.72663e-05,-0.000188094,5.49534e-05,-4.21468e-05,5.69387e-05,-6.49413e-05
607,9.32218e-06,-0.000206723,7.08843e-05,-4.12297e-05,5.17788e-05,-6.84082e-05
608,5.94289e-06,-0.000197238,7.4704e-05,-4.07249e-05,4.25855e-05,-7.49776e-05
609,8.36997e-06,-0.000167401,6.0948e-05,-3.78611e-05,3.11731e-05,-8.56958e-05
610,1.20633e-05,-0.000144756,3.83359e-05,-3.3841e-05,1.50193e-05,-9.73764e-05
611,1.45796e-05,-0.000125498,2.88755e-05,-2.83072e-05,-2.07751e-06,-0.000105009
612,1.62211e-05,-0.000104679,4.42309e-05,-2.16787e-05,-1.04489e-05,-0.000108587
613,1.52488e-05,-9.10667e-05,6.21758e-05,-1.8959e-05,-6.13169e-06,-0.000111902
614,1.22015e-05,-8.81293e-05,5.88679e-05,-2.07327e-05,5.25599e-06,-0.000114344
615,1.04361e-05,-9.6544e-05,4.68842e-05,-2.19503e-05,1.42081e-05,-0.000114542
616,1.26661e-05,-9.97017e-05,3.1448e-05,-2.0074e-05,1.34301e-05,-0.000113156
617,1.46322e-05,-8.24302e-05,2.06505e-05,-1.6561e-05,8.31281e-06,-0.000109598
618,8.21185e-06,-5.75787e-05,3.22604e-05,-1.29122e-05,7.05666e-06,-0.000102779
619,-1.13278e-06,-4.35687e-05,5.10525e-05,-1.18267e-05,1.17849e-05,-9.46383e-05
620,-1.17137e-06,-4.42605e-05,5.31237e-05,-1.60882e-05,2.18564e-05,-8.93617e-05
621,4.81814e-06,-5.18609e-05,4.78432e-05,-2.4222e-05,2.59214e-05,-8.79595e-05
622,9.48267e-06,-4.76664e-05,4.61466e-05,-3.19076e-05,2.39584e-05,-8.63458e-05
623,1.214e-05,-2.17671e-05,4.98165e-05,-3.61424e-05,2.41399e-05,-7.88913e-05
624,1.182e-05,1.02759e-05,4.9036e-05,-3.99329e-05,2.39185e-05,-6.49233e-05
625,1.08128e-05,3.00774e-05,3.7259e-05,-4.74688e-05,2.02055e-05,-5.1779e-05
626,1.12349e-05,3.91706e-05,3.35985e-05,-5.87094e-05,1.39569e-05,-4.60962e-05
627,1.1099e-05,4.78778e-05,5.11956e-05,-7.11616e-05,9.33071e-06,-4.86232e-05
628,9.0869e-06,6.50117e-05,6.37416e-05,-8.17507e-05,1.00196e-05,-5.94799e-05
629,8.09951e-06,9.2274e-05,5.91318e-05,-8.69719e-05,1.56439e-05,-7.63275e-05
630,9.16909e-06,0.00011249,4.70842e-05,-8.34109e-05,1.95724e-05,-9.03642e-05
631,1.19721e-05,0.000108785,3.62862e-05,-7.41e-05,1.87087e-05,-9.46079e-05
632,1.0937e-05,8.7864e-05,3.55738e-05,-6.7669e-05,1.53768e-05,-9.11868e-05
633,4.8831e-06,6.39913e-05,5.36005e-05,-6.66224e-05,1.42576e-05,-8.73533e-05
634,-4.02396e-07,4.85247e-05,7.44523e-05,-6.57323e-05,1.69508e-05,-8.81296e-05
635,-1.54924e-06,5.25844e-05,7.6783e-05,-6.03655e-05,2.11919e-05,-9.02641e-05
636,1.07316e-06,6.07007e-05,6.19943e-05,-5.09833e-05,2.39736e-05,-8.8245e-05
637,4.39188e-06,5.39213e-05,3.85847e-05,-3.95872e-05,2.52282e-05,-8.22328e-05
638,5.60906e-06,4.54205e-05,2.17743e-05,-2.59438e-05,2.38898e-05,-7.58178e-05
639,4.64448e-06,4.70223e-05,2.9756e-05,-9.10144e-06,1.84765e-05,-6.92206e-05
640,4.33806e-06,5.76667e-05,5.07106e-05,1.03091e-05,1.44959e-05,-5.88891e-05
641,4.2285e-06,6.77957e-05,5.6109e-05,2.92885e-05,1.56419e-05,-4.64789e-05
642,4.06424e-06,6.64509e-05,4.65315e-05,4.35813e-05,1.65349e-05,-3.81391e-05
643,5.79851e-06,6.31553e-05,2.91306e-05,5.44424e-05,1.61252e-05,-3.63796e-05
644,9.7717e-06,7.03907e-05,1.05097e-05,6.76008e-05,1.79074e-05,-3.77948e-05
645,1.01265e-05,8.05955e-05,9.50552e-06,8.2263e-05,1.59244e-05,-3.55916e-05
646,6.04773e-06,8.17172e-05,2.66913e-05,9.74014e-05,1.40973e-05,-2.82544e-05
647,2.05379e-06,7.40376e-05,3.13731e-05,0.000113192,2.07685e-05,-2.09554e-05
648,2.29816e-06,6.59775e-05,2.29709e-05,0.000125416,2.88087e-05,-1.77223e-05
649,3.41027e-06,7.05199e-05,2.40081e-05,0.00013186,3.16159e-05,-1.72828e-05
650,8.98481e-07,8.97593e-05,3.02567e-05,0.000135966,3.25622e-05,-1.38319e-05
651,-1.5954e-06,0.000106533,2.29232e-05,0.000141376,3.34535e-05,-1.44808e-06
652,-1.5412e-06,0.000105788,-1.45712e-07,0.000147362,3.21358e-05,1.86128e-05
653,-9.57079e-07,9.34211e-05,-1.48313e-05,0.000150434,2.86225e-05,3.78458e-05
654,-3.67572e-06,8.091e-05,4.4236e-07,0.000148582,2.55354e-05,5.21099e-05
655,-5.5815e-06,7.67188e-05,1.77223e-05,0.000144889,2.318e-05,6.44247e-05
656,-5.81476e-06,8.77694e-05,2.75652e-05,0.000142992,2.37169e-05,7.5664e-05
657,-5.15016e-06,0.000104089,2.38745e-05,0.000141052,2.40565e-05,8.24025e-05
658,-2.17845e-06,0.000105764,3.22133e-06,0.000137513,1.91312e-05,8.19825e-05
659,1.63121e-06,8.84927e-05,-1.37961e-05,0.000134225,1.1474e-05,7.60318e-05
660,4.09991e-06,5.93615e-05,-4.13989e-06,0.000132345,8.40859e-06,6.97799e-05
661,6.84346e-06,3.26543e-05,2.1068e-05,0.000134449,1.20516e-05,6.68908e-05
662,1.15012e-05,2.80538e-05,3.81741e-05,0.000141961,1.78679e-05,6.41321e-05
663,1.67692e-05,3.17353e-05,3.77992e-05,0.00015196,1.99184e-05,5.69334e-05
664,2.10838e-05,1.75789e-05,1.95154e-05,0.00015925,1.57938e-05,4.89073e-05
665,2.44411e-05,-5.88214e-06,6.95348e-06,0.000160776,9.64082e-06,4.57035e-05
666,2.635e-05,-2.50112e-05,2.18916e-05,0.000155975,6.18085e-06,4.39776e-05
667,2.68511e-05,-4.27749e-05,4.60275e-05,0.000146852,6.0983e-06,3.83991e-05
668,2.84111e-05,-7.00439e-05,5.10507e-05,0.000137699,4.97607e-06,2.70518e-05
669,3.03682e-05,-0.000110226,4.40318e-05,0.000130935,2.30612e-06,9.24284e-06
670,3.21063e-05,-0.000145121,2.7594e-05,0.000128398,9.60584e-07,-1.22823e-05
671,3.39575e-05,-0.000161958,1.60197e-05,0.000130651,-1.96115e-07,-3.38077e-05
672,3.24173e-05,-0.00017501,2.96738e-05,0.000135484,-6.50713e-07,-4.98647e-05
673,2.7634e-05,-0.000197847,5.38861e-05,0.000140879,2.92373e-06,-5.86391e-05
674,2.66139e-05,-0.000225908,5.5656e-05,0.000146396,6.86354e-06,-6.67547e-05
675,2.8096e-05,-0.000248113,4.48133e-05,0.000152272,7.78857e-06,-8.10965e-05
676,2.64354e-05,-0.000248139,3.98536e-05,0.000158214,7.1787e-06,-9.93815e-05
677,2.40044e-05,-0.00021978,4.84547e-05,0.000161908,4.60221e-06,-0.000110052
678,2.21317e-05,-0.000180824,5.29044e-05,0.000162398,4.7831e-07,-0.000106478
679,2.17392e-05,-0.000151362,4.09733e-05,0.000159917,-3.28391e-06,-9.54997e-05
680,2.22727e-05,-0.000134257,3.71421e-05,0.000153037,-5.35728e-06,-8.6592e-05
681,1.95553e-05,-0.00012586,5.92916e-05,0.000141488,4.62108e-06,-8.03815e-05
682,1.66156e-05,-0.00011616,8.23828e-05,0.000129864,2.65009e-05,-7.40573e-05
683,1.34539e-05,-9.1608e-05,9.01843e-05,0.000126271,3.69003e-05,-6.98611e-05
684,1.26789e-05,-5.98169e-05,8.32172e-05,0.000132872,2.5606e-05,-7.13883e-05
685,1.26005e-05,-3.9705e-05,6.05448e-05,0.000140307,1.06921e-05,-7.78753e-05
686,1.09114e-05,-3.29908e-05,4.28204e-05,0.00014165,7.18017e-06,-8.37628e-05
687,6.92531e-06,-3.33104e-05,5.64489e-05,0.000140195,1.856e-05,-8.3978e-05
688,6.57722e-06,-2.84867e-05,8.51195e-05,0.000136252,3.06433e-05,-8.00209e-05
689,1.29184e-05,-1.01723e-06,9.87604e-05,0.00012847,2.65125e-05,-7.84813e-05
690,2.01839e-05,3.20417e-05,9.57313e-05,0.000120592,1.0639e-05,-8.46591e-05
691,2.31191e-05,4.22724e-05,8.18886e-05,0.000115434,-1.21906e-06,-9.52909e-05
692,2.09989e-05,3.94283e-05,7.15635e-05,0.000111964,-1.46138e-06,-0.000105754
693,1.63834e-05,3.96686e-05,8.27563e-05,0.000107754,-4.76077e-06,-0.000112879
694,9.24019e-06,4.44264e-05,0.000103919,9.97615e-05,-2.35649e-05,-0.000113015
695,3.37568e-06,4.784e-05,0.000108491,8.92194e-05,-4.187e-05,-0.000107665
696,1.95459e-06,4.32864e-05,0.000102306,7.84936e-05,-3.6553e-05,-9.94913e-05
697,7.09621e-06,4.25071e-05,9.05233e-05,6.64677e-05,-1.06761e-05,-8.95035e-05
698,9.18763e-06,5.63232e-05,8.18212e-05,5.32004e-05,1.85117e-05,-7.85641e-05
699,3.3861e-06,6.94785e-05,9.2848e-05,3.91652e-05,3.37954e-05,-7.00178e-05
700,-3.45883e-06,6.36482e-05,0.000111579,2.57786e-05,3.44413e-05,-6.66089e-05
701,-5.23741e-06,4.35072e-05,0.000112943,1.427e-05,3.06665e-05,-6.38746e-05
702,-6.95164e-06,2.6392e-05,9.98425e-05,3.19463e-06,2.50991e-05,-5.50687e-05
703,-1.15299e-05,2.91351e-05,9.17126e-05,-8.50613e-06,1.53513e-05,-4.04966e-05
704,-1.03483e-05,5.32644e-05,9.96204e-05,-1.87904e-05,5.30023e-07,-2.55833e-05
705,-5.2685e-06,7.71643e-05,0.000102449,-2.79507e-05,-6.69604e-06,-1.34924e-05
706,-1.33755e-06,8.14653e-05,8.89939e-05,-3.86739e-05,-2.26288e-06,-3.10159e-06
707,-6.40881e-08,6.95501e-05,7.81904e-05,-5.10471e-05,2.03225e-06,8.31308e-06
708,-2.80409e-06,5.21838e-05,9.32795e-05,-6.16824e-05,9.99291e-07,2.22592e-05
709,-3.05112e-06,4.24497e-05,0.00011092,-6.69576e-05,9.05103e-08,3.90289e-05
710,-4.30098e-07,5.32144e-05,0.000113574,-6.87336e-05,3.69188e-06,5.6644e-05
711,4.14941e-06,7.43994e-05,0.000103368,-7.23323e-05,7.88204e-06,7.18853e-05
712,8.46854e-06,8.60777e-05,8.26172e-05,-7.83797e-05,6.45189e-06,8.54863e-05
713,1.10714e-05,8.64916e-05,6.76809e-05,-8.38981e-05,3.91864e-07,0.000100394
714,1.11101e-05,7.75989e-05,7.4757e-05,-8.70836e-05,-1.72784e-06,0.000113568
715,1.05466e-05,6.60093e-05,9.14069e-05,-8.84762e-05,3.45574e-06,0.000118999
716,1.30837e-05,7.46247e-05,9.43293e-05,-9.06044e-05,1.08832e-05,0.000114399
717,1.81122e-05,9.79883e-05,8.09274e-05,-9.26627e-05,1.37147e-05,0.00010327
718,2.12255e-05,0.000112332,5.88936e-05,-9.19908e-05,1.20728e-05,9.43982e-05
719,2.03059e-05,0.000127102,4.55361e-05,-8.79455e-05,8.44554e-06,9.21261e-05
720,1.78698e-05,0.000152666,5.25638e-05,-8.4485e-05,6.37114e-06,9.6132e-05
721,1.69093e-05,0.000177751,6.68141e-05,-8.61748e-05,9.18215e-06,0.000103895
722,1.87416e-05,0.000186742,6.65619e-05,-9.24128e-05,1.34323e-05,0.000111362
723,1.9646e-05,0.000176954,5.7719e-05,-9.94778e-05,1.45979e-05,0.00011528
724,1.92506e-05,0.000174403,4.2847e-05,-0.000104099,1.23147e-05,0.000114122
725,1.73399e-05,0.000197424,2.63042e-05,-0.000107384,7.61737e-06,0.000109749
726,1.42515e-05,0.000224874,3.05121e-05,-0.000111576,5.07225e-06,0.000103678
727,1.03836e-05,0.000226587,4.61944e-05,-0.000113863,7.61162e-06,9.6801e-05
728,7.13511e-06,0.000196563,4.60592e-05,-0.000109832,1.17438e-05,9.03125e-05
729,8.37574e-06,0.000148546,4.0786e-05,-9.90627e-05,1.53086e-05,8.506e-05
730,1.28176e-05,0.000104208,4.18926e-05,-8.52336e-05,1.52527e-05,8.09284e-05
731,1.49706e-05,7.79316e-05,4.6299e-05,-7.19133e-05,1.16138e-05,8.00944e-05
732,1.57657e-05,6.52273e-05,3.89757e-05,-6.00319e-05,9.43087e-06,8.53542e-05
733,1.818e-05,5.55498e-05,2.28126e-05,-4.8979e-05,9.05189e-06,9.6523e-05
734,2.24406e-05,4.50827e-05,1.51613e-05,-3.72954e-05,9.33876e-06,0.000109808
735,2.27964e-05,3.22853e-05,3.28571e-05,-2.33427e-05,1.0006e-05,0.000120861
736,2.23275e-05,2.28574e-05,5.30087e-05,-6.42674e-06,1.24259e-05,0.000125693
737,2.36639e-05,2.70388e-05,6.13042e-05,1.19374e-05,1.4068e-05,0.000122267
738,2.55236e-05,3.42572e-05,5.4652e-05,2.83303e-05,1.34577e-05,0.000113679
739,2.66504e-05,2.28502e-05,3.25729e-05,4.0599e-05,1.39058e-05,0.000102966
740,2.5375e-05,-9.01476e-06,1.96314e-05,5.01014e-05,1.46238e-05,9.30392e-05
741,2.26057e-05,-4.84421e-05,3.22667e-05,6.09824e-05,1.601e-05,8.55646e-05
742,2.17914e-05,-7.64841e-05,5.15665e-05,7.61215e-05,1.81915e-05,7.98316e-05
743,2.35749e-05,-7.53105e-05,5.4957e-05,9.33833e-05,2.06115e-05,7.7592e-05
744,2.62037e-05,-6.58741e-05,4.40263e-05,0.000105581,2.1914e-05,7.9969e-05
745,2.83489e-05,-8.19319e-05,2.50334e-05,0.000109255,1.93133e-05,8.40579e-05
746,2.5879e-05,-0.000115453,1.64454e-05,0.000111329,1.42451e-05,8.46916e-05
747,1.86099e-05,-0.000147004,3.22437e-05,0.00011622,1.49797e-05,7.74367e-05
748,1.14063e-05,-0.00016924,5.57137e-05,0.000120937,1.98205e-05,6.25168e-05
749,8.17733e-06,-0.00018683,6.02442e-05,0.000123761,2.12351e-05,4.23876e-05
750,8.49506e-06,-0.000205996,5.20075e-05,0.000126041,1.721e-05,2.13565e-05
751,1.26532e-05,-0.000211575,3.096e-05,0.000127222,1.23761e-05,1.29713e-06
752,1.7814e-05,-0.000191182,9.43051e-06,0.000126629,8.71911e-06,-1.87124e-05
753,1.85602e-05,-0.000160777,1.31859e-05,0.000126039,4.62732e-06,-3.85743e-05
754,1.45305e-05,-0.00013915,3.43403e-05,0.000126113,5.29278e-06,-5.85908e-05
755,1.1843e-05,-0.000129221,4.47986e-05,0.000126563,1.30755e-05,-7.70338e-05
756,1.1074e-05,-0.000132446,3.84948e-05,0.000125022,1.75748e-05,-8.81574e-05
757,1.10356e-05,-0.000140652,3.37284e-05,0.000119068,1.20305e-05,-9.11468e-05
758,9.96153e-06,-0.000137001,4.60787e-05,0.000110917,9.85417e-06,-9.36397e-05
759,8.89607e-06,-0.000120687,5.17407e-05,0.000106133,1.37998e-05,-0.000100317
760,8.84995e-06,-0.000107771,4.11631e-05,0.000107616,1.51156e-05,-0.000107038
761,6.85893e-06,-0.000108814,3.19964e-05,0.000113323,1.04553e-05,-0.000108214
762,3.89942e-06,-0.000120689,4.59547e-05,0.000119668,4.18703e-06,-0.000102921
763,3.56852e-06,-0.000125631,7.00643e-05,0.000122617,2.35523e-06,-9.49242e-05
764,5.93045e-06,-0.000104156,8.35584e-05,0.000118768,6.33069e-06,-9.00446e-05
765,1.02015e-05,-6.57162e-05,7.85303e-05,0.00011247,1.33218e-05,-8.95202e-05
766,1.26369e-05,-3.57999e-05,6.02671e-05,0.00010943,1.62829e-05,-8.92114e-05
767,9.41664e-06,-2.53065e-05,5.32002e-05,0.000108673,1.34786e-05,-8.64814e-05
768,2.93945e-06,-3.40259e-05,6.97983e-05,0.000110722,7.14961e-06,-8.33925e-05
769,-1.9843e-06,-4.48874e-05,9.37357e-05,0.000115839,2.46724e-06,-8.22391e-05
770,-2.90254e-06,-2.96506e-05,0.000104685,0.000120087,3.8053e-06,-8.27758e-05
771,1.01945e-06,-4.38924e-06,9.74309e-05,0.000119704,8.63297e-06,-8.54404e-05
772,8.79758e-06,-3.63057e-06,7.06896e-05,0.000113081,1.12986e-05,-9.13349e-05
773,1.33101e-05,-2.0031e-05,4.73152e-05,0.000102535,1.20997e-05,-9.88824e-05
774,1.06319e-05,-3.90661e-05,5.15938e-05,9.34345e-05,1.51987e-05,-0.000103131
775,7.14519e-06,-5.61677e-05,7.2473e-05,8.61436e-05,1.90781e-05,-9.89329e-05
776,6.78006e-06,-6.89341e-05,7.83349e-05,7.7739e-05,1.84574e-05,-8.99829e-05
777,3.95206e-06,-7.79066e-05,6.76912e-05,6.69846e-05,1.39672e-05,-8.52691e-05
778,-2.08307e-06,-7.04435e-05,4.71994e-05,5.28245e-05,1.34251e-05,-8.7821e-05
779,-3.52962e-06,-4.25175e-05,3.04548e-05,3.62455e-05,1.77023e-05,-9.34848e-05
780,-4.19987e-07,-1.86181e-05,3.94018e-05,2.05909e-05,1.8886e-05,-9.56613e-05
781,1.85083e-06,-1.87161e-05,6.08456e-05,8.58305e-06,1.66004e-05,-9.24741e-05
782,3.24005e-06,-3.84042e-05,6.21071e-05,-1.05626e-06,1.98171e-05,-8.57834e-05
783,1.29427e-06,-6.6336e-05,5.21955e-05,-1.05315e-05,2.19601e-05,-7.57657e-05
784,4.22828e-08,-8.9145e-05,5.878e-05,-1.85439e-05,1.77158e-05,-6.19905e-05
785,1.33727e-06,-9.42555e-05,7.42558e-05,-2.15089e-05,1.91088e-05,-4.65556e-05
786,4.15766e-06,-8.30614e-05,7.05595e-05,-1.8498e-05,2.72948e-05,-3.44394e-05
787,8.61077e-06,-7.06464e-05,4.92514e-05,-1.28529e-05,4.09668e-05,-2.88715e-05
788,1.04211e-05,-6.75605e-05,3.0188e-05,-7.18715e-06,5.61698e-05,-2.85046e-05
789,1.177e-05,-7.47457e-05,3.3473e-05,-1.76865e-06,6.57354e-05,-2.87687e-05
790,1.39154e-05,-8.03775e-05,4.68444e-05,3.80342e-06,6.66143e-05,-2.4866e-05
791,1.5462e-05,-6.59368e-05,5.43103e-05,1.31049e-05,5.3947e-05,-1.65337e-05
792,1.71027e-05,-3.37547e-05,4.60975e-05,2.77033e-05,2.11481e-05,-7.61825e-06
793,1.94347e-05,-4.23106e-06,2.37031e-05,4.20585e-05,-2.34564e-05,2.46187e-08
794,2.11914e-05,1.23796e-05,8.04695e-06,5.04146e-05,-5.46384e-05,8.39675e-06
795,2.08296e-05,2.06616e-05,1.78171e-05,5.02428e-05,-5.69628e-05,1.84707e-05
796,2.12823e-05,3.60462e-05,3.66695e-05,4.42385e-05,-3.75818e-05,2.64442e-05
797,2.21527e-05,7.46598e-05,4.27704e-05,3.83127e-05,-1.58961e-05,2.91942e-05
798,2.08209e-05,0.000115027,3.6297e-05,3.07342e-05,-3.16624e-06,2.94674e-05
799,1.68847e-05,0.000126719,2.05629e-05,1.80895e-05,8.68492e-07,2.76639e-05
800,1.23798e-05,0.00011992,1.03373e-05,9.32464e-06,-9.07346e-07,2.03185e-05
801,7.58248e-06,0.000107662,2.12088e-05,1.2033e-05,-4.9883e-06,1.00904e-05
802,3.07713e-06,9.27574e-05,4.16072e-05,2.0521e-05,-2.38594e-06,2.52062e-06
803,9.53151e-07,7.49634e-05,4.75401e-05,2.73259e-05,6.00797e-06,1.43766e-06
804,1.09294e-06,5.67541e-05,4.65607e-05,3.22097e-05,1.26979e-05,9.13157e-06
805,4.54815e-06,6.23565e-05,3.81796e-05,3.71135e-05,1.5021e-05,2.21611e-05
806,9.46255e-06,0.000102027,2.29068e-05,4.39804e-05,1.47542e-05,3.42706e-05
807,1.06186e-05,0.000147782,2.63224e-05,5.27101e-05,1.64486e-05,4.08391e-05
808,1.24776e-05,0.000168366,4.909e-05,6.02172e-05,2.03726e-05,4.02376e-05
809,2.05241e-05,0.000156645,6.07254e-05,6.53548e-05,2.35612e-05,3.58474e-05
810,2.61664e-05,0.000120332,5.68549e-05,6.56355e-05,2.63206e-05,3.04876e-05
811,2.61642e-05,8.33146e-05,5.37044e-05,5.82819e-05,2.90078e-05,2.21795e-05
812,2.38156e-05,6.82682e-05,5.74808e-05,4.58576e-05,3.06663e-05,1.03864e-05
813,2.47431e-05,6.86919e-05,5.18001e-05,3.43022e-05,3.20262e-05,-2.44902e-06
814,2.83209e-05,6.16947e-05,3.37132e-05,2.5754e-05,3.30924e-05,-1.28974e-05
815,2.81802e-05,3.72946e-05,2.21115e-05,2.01272e-05,3.47637e-05,-1.92377e-05
816,2.2828e-05,2.52778e-06,3.96446e-05,1.64108e-05,3.63974e-05,-2.43045e-05
817,1.50543e-05,-2.38256e-05,6.01571e-05,1.0185e-05,3.28726e-05,-3.15601e-05
818,1.01513e-05,-2.78522e-05,6.45087e-05,-6.11471e-07,2.24715e-05,-4.09607e-05
819,9.67564e-06,-2.16919e-05,5.52134e-05,-1.27198e-05,1.21256e-05,-5.2336e-05
820,1.30104e-05,-2.22784e-05,3.35454e-05,-2.47982e-05,7.25854e-06,-6.5123e-05
821,1.46818e-05,-2.78523e-05,2.10521e-05,-3.60851e-05,6.40552e-06,-7.67422e-05
822,1.03992e-05,-3.55943e-05,3.67731e-05,-4.19472e-05,6.76286e-06,-8.35528e-05
823,5.0119e-06,-4.15185e-05,6.15265e-05,-4.16616e-05,8.04026e-06,-8.46639e-05
824,4.49603e-06,-2.55085e-05,7.05555e-05,-4.01637e-05,1.01882e-05,-8.60782e-05
825,7.21046e-06,6.65521e-06,6.39784e-05,-4.15767e-05,1.19546e-05,-8.84771e-05
826,8.08409e-06,2.83632e-05,4.50906e-05,-4.60425e-05,1.40162e-05,-8.49594e-05
827,5.25744e-06,3.7854e-05,3.15545e-05,-4.87107e-05,2.00308e-05,-7.84385e-05
828,2.47722e-07,3.88836e-05,4.26629e-05,-4.55422e-05,3.27493e-05,-7.5353e-05
829,-2.04189e-06,3.23757e-05,6.67756e-05,-3.61546e-05,5.37187e-05,-7.40189e-05
830,-4.41871e-07,2.13276e-05,7.34834e-05,-1.9517e-05,7.05833e-05,-7.27914e-05
831,3.04491e-06,5.36761e-06,6.02368e-05,-7.54902e-07,6.327e-05,-6.79119e-05
832,7.42784e-06,-1.82955e-06,3.3412e-05,1.31582e-05,4.09235e-05,-5.39202e-05
833,1.25437e-05,1.27238e-05,1.21182e-05,2.36218e-05,2.6848e-05,-3.14875e-05
834,1.43237e-05,3.59443e-05,2.33698e-05,3.35582e-05,2.34034e-05,-5.50237e-06
835,1.17052e-05,4.90223e-05,5.28157e-05,4.10249e-05,1.56012e-05,1.90158e-05
836,9.59582e-06,4.67713e-05,6.49713e-05,4.23861e-05,-1.16537e-05,3.84426e-05
837,9.29886e-06,3.2484e-05,5.21125e-05,3.68693e-05,-5.09014e-05,5.03545e-05
838,1.03873e-05,2.07986e-05,4.03309e-05,2.9479e-05,-6.99902e-05,5.4765e-05
839,1.12159e-05,2.37418e-05,5.26672e-05,2.65472e-05,-5.2604e-05,5.51624e-05
840,1.54863e-05,3.39543e-05,5.56603e-05,2.78984e-05,-1.88096e-05,5.35629e-05
841,2.08838e-05,3.99209e-05,3.59486e-05,2.97975e-05,5.21034e-06,4.91549e-05
842,2.13744e-05,3.81125e-05,2.3924e-05,3.04511e-05,1.03697e-05,4.2319e-05
843,1.90541e-05,2.77346e-05,4.02978e-05,3.0089e-05,6.61119e-06,3.52634e-05
844,1.84237e-05,2.02904e-05,5.54877e-05,2.95316e-05,5.7868e-06,3.11836e-05
845,2.05626e-05,3.28731e-05,5.54787e-05,2.89912e-05,1.1119e-05,3.373e-05
846,2.18295e-05,5.87503e-05,3.85207e-05,2.6926e-05,1.82873e-05,4.36812e-05
847,2.12881e-05,7.77483e-05,1.29907e-05,2.38851e-05,2.00108e-05,5.59525e-05
848,1.8971e-05,7.95588e-05,6.31851e-06,2.34048e-05,1.65972e-05,6.42073e-05
849,1.5501e-05,5.98346e-05,2.9617e-05,2.30118e-05,1.49716e-05,7.07794e-05
850,1.41096e-05,3.37374e-05,5.51307e-05,2.10484e-05,1.95722e-05,7.97613e-05
851,1.46451e-05,3.46065e-05,5.50217e-05,2.56067e-05,2.57941e-05,8.41727e-05
852,1.42877e-05,5.33214e-05,4.11995e-05,3.61884e-05,2.94659e-05,7.60786e-05
853,1.27856e-05,5.54563e-05,2.45531e-05,4.38473e-05,2.92715e-05,5.65023e-05
854,1.18613e-05,4.22883e-05,1.73094e-05,5.02448e-05,2.4014e-05,3.32251e-05
855,1.02815e-05,2.72069e-05,3.34315e-05,5.81654e-05,1.78548e-05,1.37488e-05
856,6.04695e-06,1.43689e-05,6.33958e-05,6.33209e-05,1.60957e-05,1.27076e-06
857,3.54138e-06,1.08684e-06,7.64465e-05,6.59239e-05,1.63006e-05,-5.77223e-06
858,7.75305e-06,-1.84448e-05,6.93538e-05,7.02759e-05,1.30081e-05,-1.37358e-05
859,1.50135e-05,-3.10755e-05,5.19327e-05,7.76039e-05,6.50857e-06,-2.62393e-05
860,1.86819e-05,-1.91399e-05,4.43999e-05,8.46297e-05,3.12105e-06,-3.65137e-05
861,1.53036e-05,9.18606e-06,5.79705e-05,8.65948e-05,1.87714e-06,-3.6602e-05
862,7.80338e-06,3.29932e-05,7.84171e-05,8.30703e-05,-1.95128e-06,-2.72594e-05
863,2.9482e-06,3.99378e-05,8.39075e-05,7.952e-05,2.04614e-06,-1.44005e-05
864,6.43128e-06,2.89989e-05,7.55409e-05,8.00733e-05,1.30038e-05,-4.94953e-06
865,1.25289e-05,1.44257e-05,7.30911e-05,8.18208e-05,2.41778e-05,-1.54907e-06
866,1.11566e-05,9.94031e-06,8.24468e-05,8.08206e-05,3.48481e-05,-3.59743e-07
867,6.4097e-06,1.06388e-05,7.69362e-05,7.74414e-05,4.15089e-05,4.45983e-06
868,5.68102e-06,5.6616e-06,5.43116e-05,7.36531e-05,4.75573e-05,1.3337e-05
869,9.02411e-06,-8.18316e-06,4.83397e-05,7.14083e-05,4.86414e-05,1.87328e-05
870,8.37333e-06,-3.10799e-05,7.59965e-05,7.32283e-05,4.43094e-05,1.39414e-05
871,5.90017e-06,-5.28127e-05,0.000101347,7.94512e-05,3.98167e-05,2.98764e-06
872,5.18387e-06,-5.55091e-05,0.000106186,8.56281e-05,3.63898e-05,-5.92848e-06
873,7.10928e-06,-4.45904e-05,9.50959e-05,8.68777e-05,3.06791e-05,-1.11618e-05
874,1.08395e-05,-4.41497e-05,7.61507e-05,8.67812e-05,2.38697e-05,-1.48137e-05
875,1.20543e-05,-6.27844e-05,6.5413e-05,9.12178e-05,2.0631e-05,-1.95624e-05
876,9.8979e-06,-9.44575e-05,7.3764e-05,9.56274e-05,1.64258e-05,-2.49188e-05
877,8.6342e-06,-0.000125241,8.99519e-05,9.25191e-05,4.96115e-06,-2.94542e-05
878,1.21965e-05,-0.000132868,9.8134e-05,8.59893e-05,-9.16773e-06,-3.82054e-05
879,1.67167e-05,-0.000123013,9.40511e-05,8.41861e-05,-1.40931e-05,-5.33681e-05
880,1.90753e-05,-0.000118917,7.42251e-05,8.35353e-05,-8.74434e-06,-7.01561e-05
881,1.8913e-05,-0.000121026,5.5053e-05,7.7798e-05,7.80976e-07,-8.30183e-05
882,1.5912e-05,-0.000128926,5.66569e-05,6.93589e-05,8.45413e-06,-8.65977e-05
883,1.19181e-05,-0.000145859,6.87637e-05,6.07387e-05,1.2156e-05,-8.18003e-05
884,1.07237e-05,-0.000169742,6.72057e-05,5.19467e-05,1.36959e-05,-7.45884e-05
885,1.19937e-05,-0.000199574,5.85827e-05,4.23081e-05,1.62553e-05,-6.90371e-05
886,1.6234e-05,-0.000217824,4.04879e-05,3.11979e-05,1.88452e-05,-6.6404e-05
887,1.93536e-05,-0.000205985,2.06559e-05,2.27792e-05,2.09446e-05,-6.50731e-05
888,1.78085e-05,-0.000179933,2.42741e-05,2.02353e-05,2.08923e-05,-6.18563e-05
889,1.56506e-05,-0.000166532,4.22271e-05,2.05894e-05,1.99663e-05,-5.40967e-05
890,1.85668e-05,-0.000171437,4.17641e-05,2.0374e-05,1.89775e-05,-4.25315e-05
891,2.15137e-05,-0.000185332,2.49688e-05,1.87762e-05,2.20364e-05,-3.10353e-05
892,1.85979e-05,-0.000190817,1.68291e-05,1.71465e-05,2.85836e-05,-2.5134e-05
893,1.13176e-05,-0.000176889,2.31774e-05,1.86127e-05,2.99344e-05,-2.86777e-05
894,5.91988e-06,-0.000152999,2.13088e-05,2.24872e-05,3.11503e-05,-3.85281e-05
895,6.46049e-06,-0.000134166,1.00063e-05,2.30831e-05,3.23177e-05,-4.60022e-05
896,9.75174e-06,-0.000125458,4.39442e-06,1.96181e-05,3.06491e-05,-4.43042e-05
897,1.30258e-05,-0.000127816,1.59575e-05,1.65051e-05,3.03066e-05,-3.19354e-05
898,1.55733e-05,-0.000130961,2.60664e-05,1.36918e-05,3.16064e-05,-1.2753e-05
899,1.48011e-05,-0.000117166,2.79828e-05,7.72148e-06,3.35324e-05,3.16654e-06
900,9.99333e-06,-9.02598e-05,2.34994e-05,-1.3495e-07,3.50209e-05,8.84783e-06
901,8.42699e-06,-6.73908e-05,1.32867e-05,-5.45781e-06,3.20891e-05,8.65617e-06
902,1.07258e-05,-5.57874e-05,1.38379e-05,-5.72558e-06,2.73621e-05,7.53816e-06
903,1.11607e-05,-5.91558e-05,3.57726e-05,-1.89519e-06,2.68008e-05,4.77994e-06
904,8.33983e-06,-6.74757e-05,6.10377e-05,2.53389e-06,3.02795e-05,3.78268e-06
905,7.51246e-06,-5.10557e-05,7.04905e-05,5.18741e-06,3.25582e-05,1.47232e-05
906,1.12736e-05,-1.61596e-05,6.79223e-05,6.53171e-06,3.19147e-05,3.54758e-05
907,1.55524e-05,4.1471e-06,5.43086e-05,9.3617e-06,3.1856e-05,5.07496e-05
908,1.56409e-05,1.57658e-05,4.46762e-05,1.59338e-05,3.12095e-05,5.76286e-05
909,1.09014e-05,3.48068e-05,5.86873e-05,2.49169e-05,2.24382e-05,6.29966e-05
910,5.93846e-06,5.52822e-05,8.60691e-05,3.0583e-05,3.20697e-06,7.31937e-05
911,2.95693e-06,6.18994e-05,9.79722e-05,2.9453e-05,-1.41934e-05,9.16247e-05
912,2.46561e-08,4.80135e-05,9.68391e-05,2.76752e-05,-1.3985e-05,0.000116355
913,-1.24643e-06,3.26374e-05,8.17986e-05,2.80339e-05,2.6585e-06,0.000142506
914,2.02814e-06,3.1839e-05,6.3022e-05,2.73473e-05,2.07854e-05,0.00016241
915,6.52346e-06,3.30846e-05,6.90603e-05,2.68237e-05,3.19503e-05,0.000171951
916,8.66606e-06,2.29258e-05,9.50868e-05,2.58086e-05,3.60291e-05,0.000172316
917,9.85397e-06,4.13793e-06,0.000108087,2.25283e-05,3.82193e-05,0.00016587
918,1.17062e-05,-1.83637e-05,0.000100617,1.98174e-05,3.69995e-05,0.000155344
919,1.13859e-05,-3.31153e-05,8.53292e-05,2.03572e-05,3.00386e-05,0.000142256
920,5.82516e-06,-2.94193e-05,7.91877e-05,2.10074e-05,2.18078e-05,0.000125821
921,-1.55524e-07,-1.46733e-05,7.57142e-05,1.565e-05,1.68163e-05,0.00010673
922,1.17396e-06,-5.81176e-06,6.18645e-05,1.98873e-06,2.47052e-05,8.90911e-05
923,4.37887e-06,-1.49262e-05,5.52417e-05,-1.50325e-05,4.53373e-05,7.48502e-05
924,1.01083e-06,-4.52828e-05,7.04409e-05,-2.69775e-05,5.76046e-05,6.19895e-05
925,-4.40863e-06,-7.96769e-05,8.63035e-05,-3.03077e-05,4.76448e-05,5.1832e-05
926,-8.45722e-06,-9.13602e-05,8.98817e-05,-2.80709e-05,2.70925e-05,4.73465e-05
927,-8.24443e-06,-8.11104e-05,7.70576e-05,-2.3697e-05,1.58828e-05,4.5501e-05
928,-2.61919e-06,-6.65193e-05,4.9424e-05,-2.00737e-05,1.6848e-05,4.00909e-05
929,2.99751e-06,-5.36422e-05,3.09941e-05,-1.68909e-05,1.12263e-05,2.8198e-05
930,2.88844e-06,-4.95525e-05,4.10683e-05,-1.07684e-05,-6.35509e-06,1.35915e-05
931,1.08774e-06,-5.21198e-05,5.84392e-05,-3.85008e-06,-2.03326e-05,2.6868e-06
932,4.16383e-06,-3.49541e-05,6.29159e-05,2.07945e-07,-1.53576e-05,-5.27088e-06
933,1.17199e-05,2.91881e-06,5.55106e-05,2.87899e-06,3.44855e-06,-1.59349e-05
934,1.81841e-05,3.69593e-05,3.68354e-05,5.26933e-06,1.72873e-05,-3.04591e-05
935,1.9521e-05,6.68984e-05,2.13994e-05,6.35464e-06,2.1501e-05,-4.42263e-05
936,1.78487e-05,9.58754e-05,2.81163e-05,8.36843e-06,2.44593e-05,-5.46279e-05
937,1.68414e-05,0.000115989,5.12855e-05,1.2315e-05,2.84924e-05,-6.7504e-05
938,1.58946e-05,0.000120635,6.82128e-05,1.70309e-05,3.06475e-05,-8.7398e-05
939,1.57106e-05,0.000106392,7.29112e-05,2.20421e-05,3.15852e-05,-0.000111743
940,1.93011e-05,9.40172e-05,5.87633e-05,2.55404e-05,3.23214e-05,-0.000135921
941,2.33589e-05,0.00010593,3.98139e-05,2.79493e-05,3.02159e-05,-0.000156476
942,2.34623e-05,0.000126468,4.73629e-05,3.07419e-05,2.42863e-05,-0.000172715
943,2.22234e-05,0.000130634,6.91892e-05,3.34944e-05,2.00734e-05,-0.000183619
944,2.24206e-05,0.00011703,7.46565e-05,3.79536e-05,2.06791e-05,-0.000184022
945,2.21634e-05,9.40528e-05,6.59099e-05,4.52278e-05,2.31969e-05,-0.000169313
946,2.12802e-05,7.40566e-05,6.15582e-05,5.24405e-05,2.13298e-05,-0.000144124
947,1.645e-05,6.66093e-05,6.70461e-05,5.63454e-05,1.66407e-05,-0.00012132
948,1.25815e-05,6.66317e-05,6.42116e-05,5.79093e-05,1.49357e-05,-0.000109209
949,1.27395e-05,6.1312e-05,4.3525e-05,6.03032e-05,1.32149e-05,-0.000105299
950,1.47257e-05,4.6239e-05,2.07062e-05,6.2595e-05,7.85159e-06,-0.000103177
951,1.66365e-05,2.56183e-05,2.17021e-05,6.08392e-05,2.9592e-06,-9.88501e-05
952,1.99719e-05,1.17139e-05,2.71727e-05,5.35965e-05,-4.12163e-07,-9.0758e-05
953,2.47255e-05,1.8003e-05,2.55358e-05,4.51811e-05,3.8499e-07,-7.84566e-05
954,2.98146e-05,3.77492e-05,1.68652e-05,3.91578e-05,5.7941e-06,-6.42062e-05
955,3.42279e-05,5.55717e-05,3.01693e-06,3.39213e-05,9.57164e-06,-5.24202e-05
956,3.39729e-05,6.84616e-05,-1.93097e-06,2.88419e-05,8.9763e-06,-4.38052e-05
957,2.7312e-05,7.42262e-05,1.22848e-05,2.29387e-05,6.85624e-06,-3.47151e-05
958,1.85496e-05,7.64613e-05,2.9669e-05,1.76859e-05,5.49285e-06,-2.37104e-05
959,1.5066e-05,9.22673e-05,3.17907e-05,1.89929e-05,3.17498e-06,-1.32486e-05
960,1.77937e-05,0.000110597,2.25349e-05,2.50072e-05,1.00725e-06,-6.44824e-06
961,2.1784e-05,0.000109166,6.43802e-06,2.70926e-05,2.27922e-06,-4.71746e-06
962,2.19714e-05,9.95316e-05,-5.84879e-06,2.42974e-05,5.41134e-06,-5.12938e-06
963,1.99608e-05,9.43165e-05,2.16906e-06,2.35105e-05,8.11128e-06,-2.76509e-06
964,1.98674e-05,9.23199e-05,2.467e-05,2.44803e-05,1.31358e-05,1.18926e-06
965,2.18954e-05,8.85925e-05,3.66485e-05,2.1829e-05,1.94418e-05,2.8752e-06
966,2.25605e-05,7.97169e-05,4.04562e-05,1.43298e-05,2.09876e-05,3.45883e-06
967,2.09284e-05,8.15027e-05,3.66309e-05,7.19402e-06,1.60697e-05,6.96421e-06
968,1.80413e-05,0.000104726,2.79691e-05,7.05835e-06,1.17071e-05,1.46205e-05
969,1.58776e-05,0.000130971,3.36491e-05,1.01383e-05,7.57983e-06,2.32626e-05
970,1.44863e-05,0.0001389,4.84569e-05,1.01149e-05,3.00809e-06,2.84765e-05
971,1.62143e-05,0.000126775,4.59663e-05,9.43716e-06,8.25222e-07,2.66478e-05
972,1.58022e-05,0.000105506,2.71991e-05,1.21292e-05,2.63369e-07,1.69891e-05
973,1.18545e-05,9.30388e-05,1.59171e-05,1.70044e-05,6.74793e-07,2.63951e-06
974,9.3054e-06,9.73603e-05,2.32532e-05,2.20097e-05,3.72063e-07,-1.08929e-05
975,1.18346e-05,0.000103955,2.792e-05,2.76062e-05,3.33446e-07,-2.01277e-05
976,1.80899e-05,9.44047e-05,2.00256e-05,3.44996e-05,3.59367e-07,-2.64421e-05
977,1.96581e-05,6.5084e-05,1.36204e-05,4.35938e-05,3.55529e-07,-3.18621e-05
978,1.45816e-05,2.40706e-05,2.71385e-05,5.35744e-05,-2.10605e-06,-3.56373e-05
979,9.9749e-06,-9.45742e-06,3.74037e-05,6.12402e-05,-2.41085e-06,-3.68181e-05
980,1.04383e-05,-1.9055e-05,3.7368e-05,6.5512e-05,2.58174e-06,-3.62222e-05
981,1.20732e-05,-1.65785e-05,3.13156e-05,6.7239e-05,1.2437e-05,-3.46989e-05
982,1.32092e-05,-2.79755e-05,1.8354e-05,7.0102e-05,2.67056e-05,-3.22051e-05
983,1.46033e-05,-6.52484e-05,1.50425e-05,7.57378e-05,3.57254e-05,-2.75093e-05
984,1.47875e-05,-0.000123067,3.28662e-05,8.21198e-05,3.56256e-05,-1.97535e-05
985,1.17787e-05,-0.000175774,5.29694e-05,9.17865e-05,2.78279e-05,-1.22415e-05
986,7.9219e-06,-0.000194921,5.62594e-05,0.000108641,1.52008e-05,-9.99099e-06
987,8.02749e-06,-0.000191968,4.44536e-05,0.000129068,-2.44527e-06,-1.5652e-05
988,1.17389e-05,-0.00018997,2.4006e-05,0.000146586,-1.83488e-05,-2.48169e-05
989,1.38136e-05,-0.000187758,1.55451e-05,0.000161979,-2.46906e-05,-2.64559e-05
990,1.32378e-05,-0.000184791,2.84002e-05,0.000173232,-2.1169e-05,-1.89584e-05
991,1.39467e-05,-0.00018719,4.63979e-05,0.000176044,-1.11032e-05,-1.03241e-05
992,1.53791e-05,-0.000195801,5.05813e-05,0.000175353,-1.69798e-06,-3.37506e-06
993,1.62657e-05,-0.000204252,4.58792e-05,0.000175129,1.56776e-06,5.6573e-06
994,1.8999e-05,-0.000198164,3.4445e-05,0.000173471,7.50783e-07,1.75627e-05
995,2.15457e-05,-0.00017292,2.97392e-05,0.000165059,-1.73411e-06,2.82855e-05
996,1.96603e-05,-0.000145761,4.83445e-05,0.000150322,-1.67663e-06,3.58027e-05
997,1.52956e-05,-0.000133317,7.62036e-05,0.000138114,4.81443e-06,3.9498e-05
998,1.58584e-05,-0.000135901,8.60958e-05,0.00013364,1.0622e-05,4.04146e-05
999,2.05424e-05,-0.000146195,8.16099e-05,0.000130851,8.33861e-06,4.13652e-05
1000,2.58792e-05,-0.000150779,7.91367e-05,0.000122449,5.6997e-06,4.18641e-05
1001,2.78477e-05,-0.000138431,8.59238e-05,0.000108393,1.20137e-05,3.94315e-05
1002,2.47358e-05,-0.000116693,8.39338e-05,9.14261e-05,1.85434e-05,3.77394e-05
1003,2.22078e-05,-0.000102595,6.92532e-05,7.43346e-05,1.97679e-05,4.27567e-05
1004,2.29532e-05,-0.000102418,6.4978e-05,6.10255e-05,2.43867e-05,5.34423e-05
1005,2.16732e-05,-0.000113163,8.25561e-05,5.41985e-05,3.77627e-05,6.37708e-05
1006,1.64814e-05,-0.00012337,9.80226e-05,5.01026e-05,5.01621e-05,6.94838e-05
1007,1.31665e-05,-0.000118111,0.00010176,4.41797e-05,5.51374e-05,7.06409e-05
1008,1.30886e-05,-0.000103186,9.33902e-05,3.81229e-05,5.47003e-05,7.13322e-05
1009,1.40203e-05,-9.6693e-05,7.46067e-05,3.51764e-05,5.37173e-05,7.53386e-05
1010,1.30169e-05,-0.000100671,6.30054e-05,3.61555e-05,4.80297e-05,8.04704e-05
1011,7.50539e-06,-0.000112267,7.39099e-05,4.15157e-05,2.99761e-05,8.38524e-05
1012,1.59307e-06,-0.000127007,9.47467e-05,4.69058e-05,1.58686e-06,8.62209e-05
1013,-1.57138e-06,-0.000131094,0.000108568,4.8235e-05,-2.18783e-05,8.92922e-05
1014,-2.67184e-06,-0.000133631,0.000113348,4.67625e-05,-2.5416e-05,9.13636e-05
1015,-4.04674e-06,-0.000150838,0.000105139,4.44616e-05,-1.27495e-05,9.00913e-05
1016,-6.98475e-06,-0.000166827,9.63367e-05,4.36346e-05,2.13687e-06,8.65002e-05
1017,-9.78576e-06,-0.000167048,0.000100838,4.28156e-05,1.2112e-05,7.94973e-05
1018,-1.03247e-05,-0.000156045,0.000108202,3.91376e-05,2.16304e-05,6.89244e-05
1019,-9.88284e-06,-0.000144767,0.000105276,3.22585e-05,2.95404e-05,5.77815e-05
1020,-1.0916e-05,-0.000143674,9.52184e-05,2.29283e-05,2.90331e-05,4.74453e-05
1021,-1.29909e-05,-0.000136451,7.26317e-05,1.35776e-05,2.31088e-05,3.82903e-05
1022,-1.50443e-05,-0.000101124,5.52367e-05,7.78962e-06,1.89817e-05,3.12793e-05
1023,-1.47374e-05,-5.00497e-05,6.59629e-05,6.81568e-06,1.3794e-05,2.61105e-05
1024,-1.18192e-05,-4.8988e-06,8.77925e-05,7.21733e-06,7.54403e-06,2.09135e-05
1025,-7.74543e-06,2.59857e-05,8.86328e-05,7.73864e-06,4.97072e-06,1.59792e-05
1026,-8.89593e-06,4.36057e-05,7.34649e-05,8.3876e-06,3.46531e-06,1.28904e-05
1027,-1.40791e-05,6.2276e-05,6.30244e-05,7.18915e-06,1.15128e-06,1.1115e-05
1028,-1.48028e-05,9.64941e-05,6.40844e-05,2.34545e-06,-1.14352e-06,8.21316e-06
1029,-7.84736e-06,0.000138147,6.05747e-05,-4.52272e-06,-1.16075e-06,3.8084e-06
1030,2.10956e-06,0.000168318,4.5064e-05,-9.7773e-06,1.741e-06,-3.01732e-07
1031,7.84421e-06,0.000181275,3.70425e-05,-1.32891e-05,4.73114e-06,-2.70267e-06
1032,8.3147e-06,0.00018088,5.77493e-05,-1.68757e-05,9.02101e-06,-3.51885e-06
1033,6.27157e-06,0.00017788,7.82626e-05,-1.99965e-05,1.36553e-05,-7.54133e-06
1034,5.16424e-06,0.000186415,7.9644e-05,-1.84783e-05,1.7316e-05,-2.18169e-05
1035,5.82981e-06,0.000205333,6.58164e-05,-1.1285e-05,2.01604e-05,-4.49637e-05
1036,9.04279e-06,0.000221328,4.25941e-05,-5.74627e-06,1.73021e-05,-6.59466e-05
1037,1.28765e-05,0.000229576,2.90104e-05,-8.30507e-06,8.53665e-06,-7.747e-05
1038,1.44468e-05,0.000228806,3.99029e-05,-1.30026e-05,4.40219e-06,-8.13862e-05
1039,1.58458e-05,0.000223753,6.40694e-05,-1.48072e-05,7.87556e-06,-8.09637e-05
1040,1.67164e-05,0.000229702,7.82135e-05,-1.71712e-05,1.13769e-05,-7.75034e-05
1041,1.5502e-05,0.000237004,7.58636e-05,-2.08584e-05,9.536e-06,-7.29892e-05
1042,1.45811e-05,0.000225925,5.9703e-05,-2.52655e-05,4.06185e-06,-6.65295e-05
1043,1.654e-05,0.000206886,4.62015e-05,-2.7621e-05,-3.07493e-07,-5.59259e-05
1044,1.8203e-05,0.000189932,5.15218e-05,-2.67124e-05,2.26578e-06,-4.48162e-05
1045,1.7309e-05,0.000173757,6.75602e-05,-2.83508e-05,1.42647e-05,-3.78859e-05
1046,1.59745e-05,0.000157575,7.05712e-05,-3.41645e-05,2.88039e-05,-3.75027e-05
1047,1.66332e-05,0.000138196,6.12524e-05,-4.19494e-05,3.63084e-05,-3.97459e-05
1048,1.98255e-05,0.000125208,4.71885e-05,-4.96365e-05,3.61012e-05,-3.82405e-05
1049,2.49058e-05,0.000125965,4.19521e-05,-5.20664e-05,3.47491e-05,-3.61673e-05
1050,2.67905e-05,0.000126265,5.18239e-05,-4.68592e-05,2.69976e-05,-3.89395e-05
1051,2.64718e-05,0.000113736,6.82571e-05,-4.14029e-05,1.30491e-05,-4.55344e-05
1052,2.95583e-05,8.8945e-05,7.20286e-05,-4.13818e-05,8.51699e-06,-5.37249e-05
1053,3.29324e-05,5.54957e-05,5.69676e-05,-4.4196e-05,9.75628e-06,-6.37487e-05
1054,3.50202e-05,2.4329e-05,4.32922e-05,-4.58359e-05,9.26775e-06,-7.47953e-05
1055,3.41828e-05,6.27653e-06,4.96787e-05,-4.37754e-05,1.65806e-05,-8.57235e-05
1056,3.36634e-05,-6.17136e-06,5.39356e-05,-3.77425e-05,3.41866e-05,-9.546e-05
1057,3.55902e-05,-2.51813e-05,3.81205e-05,-2.7965e-05,4.76823e-05,-0.0001026
1058,3.6094e-05,-4.86017e-05,3.18913e-05,-1.45747e-05,4.42407e-05,-0.000106705
1059,3.18026e-05,-7.01582e-05,5.25778e-05,2.30505e-06,2.70303e-05,-0.00010826
1060,2.39892e-05,-8.41727e-05,7.27878e-05,2.0546e-05,7.08465e-06,-0.000107892
1061,1.66163e-05,-8.46741e-05,7.49454e-05,3.63497e-05,1.02188e-06,-0.000107546
1062,1.20452e-05,-7.76913e-05,5.87864e-05,4.71873e-05,2.64401e-06,-0.000109026
1063,1.26933e-05,-7.61213e-05,3.41852e-05,5.37926e-05,-1.30956e-05,-0.000109829
1064,1.60956e-05,-8.24039e-05,2.23009e-05,5.90974e-05,-4.19953e-05,-0.000108535
1065,1.61475e-05,-9.61375e-05,3.79974e-05,6.49255e-05,-5.47067e-05,-0.000107645
1066,1.44699e-05,-0.000108441,6.25266e-05,7.10764e-05,-3.75036e-05,-0.000108594
1067,1.66714e-05,-9.62853e-05,7.24356e-05,7.94226e-05,-1.02561e-05,-0.000109617
1068,2.07224e-05,-6.85006e-05,6.40889e-05,8.89782e-05,4.64947e-06,-0.000108493
1069,2.07595e-05,-5.31076e-05,4.34549e-05,9.25547e-05,6.19783e-06,-0.000107558
1070,1.65065e-05,-4.72854e-05,2.73894e-05,8.59554e-05,5.29224e-06,-0.000110179
1071,1.14692e-05,-4.0872e-05,3.44823e-05,6.91056e-05,6.46565e-06,-0.000113529
1072,7.71746e-06,-3.50599e-05,5.31417e-05,4.78896e-05,9.30888e-06,-0.000113231
1073,4.48247e-06,-3.98177e-05,5.7868e-05,3.02075e-05,1.31557e-05,-0.00010956
1074,2.34932e-06,-5.94591e-05,5.01688e-05,1.56791e-05,1.37999e-05,-0.000107506
1075,5.13592e-06,-7.23185e-05,3.24317e-05,2.11158e-06,1.09488e-05,-0.000110441
1076,1.03716e-05,-6.16888e-05,2.08263e-05,-8.98598e-06,9.49245e-06,-0.000115175
1077,1.37444e-05,-4.03198e-05,3.37014e-05,-1.70184e-05,1.23599e-05,-0.000116366
1078,1.26203e-05,-2.12754e-05,5.46123e-05,-2.35579e-05,1.90942e-05,-0.000114196
1079,1.04691e-05,-7.79638e-06,5.65942e-05,-2.89742e-05,2.80724e-05,-0.000111959
1080,1.14745e-05,-4.19881e-06,4.11245e-05,-3.24597e-05,3.21886e-05,-0.000106869
1081,1.04398e-05,-2.5915e-06,2.57682e-05,-3.44795e-05,2.73861e-05,-9.42135e-05
1082,4.73699e-06,9.331e-06,3.03381e-05,-3.56818e-05,2.35522e-05,-7.41451e-05
1083,6.73477e-07,2.31199e-05,3.29566e-05,-3.39087e-05,2.51697e-05,-5.09789e-05
1084,1.84504e-06,2.37767e-05,8.96728e-06,-2.80433e-05,2.34202e-05,-2.93439e-05
1085,4.19527e-06,1.77005e-05,-7.52822e-06,-2.1085e-05,1.7434e-05,-1.03688e-05
1086,2.76825e-06,1.55108e-05,1.34957e-05,-1.59065e-05,1.51438e-05,8.32114e-06
1087,2.97264e-07,1.83225e-05,4.21486e-05,-1.24848e-05,1.69698e-05,2.85141e-05
1088,9.77445e-07,2.60848e-05,5.48916e-05,-7.36404e-06,1.83649e-05,4.84306e-05
1089,2.01434e-06,3.22093e-05,5.0036e-05,2.5711e-06,2.16128e-05,6.68554e-05
1090,1.55943e-06,2.69054e-05,3.39605e-05,1.53672e-05,2.75244e-05,8.35884e-05
1091,-1.65469e-07,1.01689e-05,2.33392e-05,2.40279e-05,3.25425e-05,9.61999e-05
1092,-4.35892e-07,-1.48535e-05,3.03492e-05,2.41486e-05,3.32891e-05,0.000104237
1093,1.85398e-06,-3.65281e-05,4.19735e-05,2.10965e-05,3.20052e-05,0.000109849
1094,3.99867e-06,-2.98722e-05,4.59338e-05,2.07427e-05,3.36547e-05,0.000111931
1095,5.563e-06,-3.79585e-06,4.00493e-05,1.78207e-05,3.71884e-05,0.000109582
1096,9.17019e-06,1.24823e-05,2.20524e-05,9.13579e-06,3.9905e-05,0.000105861
1097,1.38175e-05,2.4248e-05,5.97448e-06,2.27861e-06,4.00848e-05,0.000104004
1098,1.55769e-05,3.84017e-05,1.33752e-05,3.71535e-06,3.72644e-05,0.000104671
1099,1.5246e-05,4.38286e-05,3.44044e-05,1.25226e-05,3.38111e-05,0.000106176
1100,1.54456e-05,3.25405e-05,4.057e-05,2.41365e-05,2.94444e-05,0.000107855
1101,1.55127e-05,1.23512e-05,3.44568e-05,3.33273e-05,2.42703e-05,0.00011254
1102,1.42064e-05,9.58569e-06,2.05963e-05,3.91227e-05,1.773e-05,0.000122952
1103,1.24927e-05,3.52931e-05,1.15157e-05,4.6682e-05,1.11725e-05,0.00013808
1104,1.06522e-05,6.73215e-05,2.74603e-05,5.69e-05,1.0628e-05,0.000154439
1105,1.08833e-05,8.19785e-05,5.41414e-05,6.60142e-05,1.27508e-05,0.000166318
1106,1.13343e-05,7.3845e-05,6.16681e-05,7.32765e-05,1.09298e-05,0.000167567
1107,7.95716e-06,4.88435e-05,4.82185e-05,8.02016e-05,6.31504e-06,0.000157977
1108,4.02679e-06,2.55508e-05,3.78501e-05,8.73204e-05,5.1117e-06,0.00014455
1109,1.61377e-06,1.7917e-05,4.82292e-05,9.38061e-05,9.74229e-06,0.000133306
1110,3.62351e-06,2.03416e-05,5.42699e-05,9.78797e-05,1.89932e-05,0.000125464
1111,1.12151e-05,2.46066e-05,4.36742e-05,9.91113e-05,2.18825e-05,0.00011943
1112,1.80481e-05,3.16056e-05,3.26839e-05,0.000101034,1.5399e-05,0.00011214
1113,1.96876e-05,3.82663e-05,4.28486e-05,0.000106486,7.13569e-06,0.000102623
1114,1.93271e-05,4.52491e-05,5.90102e-05,0.00011251,3.49044e-06,9.3917e-05
1115,1.88583e-05,6.11439e-05,6.57154e-05,0.000115117,6.60904e-06,8.64991e-05
1116,1.70313e-05,7.99321e-05,6.01884e-05,0.000115974,1.13712e-05,7.34185e-05
1117,1.62805e-05,8.79986e-05,4.21856e-05,0.000117048,1.44409e-05,5.05562e-05
1118,1.57646e-05,8.06634e-05,2.9219e-05,0.00011315,1.2619e-05,2.24094e-05
1119,1.54073e-05,5.63756e-05,3.41875e-05,9.96407e-05,7.47096e-06,-3.35349e-06
1120,1.53077e-05,3.00651e-05,4.81762e-05,8.14418e-05,3.65489e-06,-2.16604e-05
1121,1.48021e-05,2.96115e-05,5.46796e-05,6.8666e-05,3.36283e-06,-3.56291e-05
1122,1.71198e-05,4.40685e-05,4.97312e-05,6.65613e-05,3.5365e-06,-5.26466e-05
1123,2.36384e-05,5.11028e-05,3.35877e-05,6.90972e-05,2.90358e-06,-7.44007e-05
1124,2.86245e-05,6.07365e-05,2.42296e-05,6.76194e-05,6.42977e-06,-9.5606e-05
1125,2.52884e-05,7.45296e-05,3.733e-05,6.16759e-05,1.59429e-05,-0.000110778
1126,1.67608e-05,7.87145e-05,5.94882e-05,5.33992e-05,2.50249e-05,-0.00011907
1127,1.43683e-05,5.96508e-05,6.66194e-05,4.52926e-05,3.06063e-05,-0.000122464
1128,2.10794e-05,1.26775e-05,6.04843e-05,3.99764e-05,3.2792e-05,-0.000122221
1129,2.89501e-05,-3.64893e-05,4.37637e-05,3.55379e-05,2.7399e-05,-0.000119201
1130,3.12511e-05,-5.98265e-05,2.99624e-05,3.17803e-05,1.1479e-05,-0.000116072
1131,2.68538e-05,-6.26894e-05,4.45999e-05,3.04299e-05,-1.38386e-05,-0.000115448
1132,2.1208e-05,-6.54851e-05,7.29188e-05,3.06921e-05,-3.42549e-05,-0.000115568
1133,1.69442e-05,-7.89253e-05,8.39836e-05,2.98835e-05,-3.17758e-05,-0.000113677
1134,1.49426e-05,-0.000104029,7.591e-05,2.47616e-05,-1.67138e-05,-0.000108913
1135,1.60849e-05,-0.000125619,6.97872e-05,1.66701e-05,-6.58257e-06,-0.000100744
1136,1.56541e-05,-0.000125983,7.23329e-05,1.06489e-05,-1.18241e-06,-9.275e-05
1137,1.31244e-05,-0.000111195,6.21173e-05,7.50692e-06,3.87306e-06,-9.06735e-05
1138,1.49885e-05,-9.99199e-05,4.10855e-05,2.68876e-06,6.4808e-06,-9.31119e-05
1139,1.86487e-05,-0.00010058,3.63951e-05,-3.29508e-06,5.96189e-06,-9.43658e-05
1140,1.6842e-05,-0.000114088,5.64458e-05,-4.07466e-06,7.04163e-06,-9.2833e-05
1141,1.0913e-05,-0.000133012,7.21127e-05,1.29209e-06,1.01712e-05,-8.90681e-05
1142,5.52033e-06,-0.000141248,7.40731e-05,8.1414e-06,1.46201e-05,-8.28182e-05
1143,5.69387e-06,-0.000136911,6.37413e-05,1.54545e-05,1.70516e-05,-7.60195e-05
1144,1.15894e-05,-0.00013636,4.2516e-05,2.29637e-05,1.42551e-05,-7.2655e-05
1145,1.57484e-05,-0.000151591,3.0591e-05,2.78071e-05,7.8465e-06,-7.28782e-05
1146,1.57111e-05,-0.000181941,4.57397e-05,3.0227e-05,3.49935e-06,-7.147e-05
1147,1.347e-05,-0.000205889,6.83468e-05,3.3305e-05,3.80036e-06,-6.42984e-05
1148,9.82286e-06,-0.000194086,7.52556e-05,3.90749e-05,6.73658e-06,-5.44634e-05
1149,7.52862e-06,-0.000162563,6.74581e-05,4.66402e-05,8.50909e-06,-4.45457e-05
1150,9.98367e-06,-0.000146877,5.06344e-05,5.31887e-05,7.50805e-06,-3.13144e-05
1151,1.46549e-05,-0.000144235,3.92074e-05,5.78991e-05,4.94305e-06,-1.5952e-05
1152,1.5644e-05,-0.000143579,4.67216e-05,6.1055e-05,3.52785e-06,-4.63538e-06
1153,1.33672e-05,-0.000139359,6.36217e-05,6.31608e-05,6.25075e-06,1.12421e-06
1154,1.22229e-05,-0.000127116,6.93926e-05,6.75286e-05,9.14666e-06,1.9942e-06
1155,1.42052e-05,-0.000115863,6.48662e-05,7.60009e-05,1.08993e-05,-3.0632e-06
1156,1.75128e-05,-0.000102932,4.73253e-05,8.75534e-05,1.51007e-05,-1.07264e-05
1157,1.71778e-05,-7.84523e-05,3.43058e-05,9.85377e-05,1.94978e-05,-1.65859e-05
1158,1.22974e-05,-5.14855e-05,5.46613e-05,0.000105342,2.15823e-05,-2.2154e-05
1159,8.80408e-06,-3.58848e-05,8.38171e-05,0.000108246,2.456e-05,-2.95361e-05
1160,1.27239e-05,-3.50975e-05,8.79575e-05,0.000111436,3.12412e-05,-3.66152e-05
1161,1.87883e-05,-4.50395e-05,7.2894e-05,0.000117855,3.12725e-05,-4.01372e-05
1162,1.90014e-05,-4.8328e-05,6.22853e-05,0.000124617,2.1237e-05,-3.86877e-05
1163,1.56841e-05,-3.1072e-05,6.84976e-05,0.000130577,8.64171e-06,-3.52697e-05
1164,1.54893e-05,-4.1609e-06,6.65143e-05,0.000137682,1.89074e-06,-3.59079e-05
1165,1.9976e-05,1.41381e-05,4.39343e-05,0.000144176,5.38961e-06,-4.30016e-05
1166,2.49441e-05,1.78708e-05,2.73623e-05,0.000146294,1.15866e-05,-5.0772e-05
1167,2.8178e-05,8.53542e-06,4.34137e-05,0.000145395,1.96336e-05,-5.17114e-05
1168,2.64736e-05,-1.50615e-06,6.2925e-05,0.00014422,3.09588e-05,-4.73432e-05
1169,2.23356e-05,4.1355e-06,6.80356e-05,0.00014143,4.19329e-05,-4.41456e-05
1170,1.93686e-05,1.75132e-05,5.68271e-05,0.000135815,4.43436e-05,-4.2662e-05
1171,2.02654e-05,2.07958e-05,3.01576e-05,0.000129145,3.70205e-05,-3.98564e-05
1172,2.13428e-05,1.44295e-05,1.16541e-05,0.000123567,2.12285e-05,-3.59636e-05
1173,1.81335e-05,2.49077e-06,2.00095e-05,0.000118982,7.43014e-07,-2.93748e-05
1174,1.42939e-05,-3.40898e-06,3.73914e-05,0.000114016,-1.19622e-05,-1.67054e-05
1175,1.31764e-05,1.8773e-05,4.27012e-05,0.000107754,-1.04266e-05,-1.82006e-06
1176,1.3543e-05,5.26746e-05,3.68996e-05,0.000101005,5.74468e-07,1.02395e-05
1177,1.45561e-05,7.0104e-05,2.27813e-05,9.60352e-05,1.29965e-05,2.40368e-05
1178,1.79287e-05,7.89014e-05,1.24722e-05,9.35305e-05,2.09051e-05,4.39079e-05
1179,2.09047e-05,8.75233e-05,2.05757e-05,9.21725e-05,2.11225e-05,6.28672e-05
1180,2.00626e-05,9.27243e-05,4.14113e-05,8.85129e-05,1.90051e-05,7.52365e-05
1181,1.72069e-05,8.83009e-05,5.47872e-05,7.92946e-05,1.83527e-05,8.46806e-05
1182,2.01594e-05,7.10397e-05,5.82933e-05,6.61119e-05,1.76446e-05,9.27501e-05
1183,2.78803e-05,5.84126e-05,4.6431e-05,5.31265e-05,1.54095e-05,9.76959e-05
1184,3.0189e-05,6.79504e-05,3.23338e-05,4.40414e-05,1.18822e-05,0.000100505
1185,2.32357e-05,8.88869e-05,4.09959e-05,3.87009e-05,4.63438e-06,0.000102276
1186,1.59517e-05,0.000102914,6.3554e-05,3.58597e-05,2.57494e-07,0.00010455
1187,1.36205e-05,0.000106259,7.78689e-05,3.54122e-05,7.4709e-06,0.000109672
1188,1.13707e-05,0.000101488,7.95017e-05,3.61051e-05,1.71491e-05,0.000113803
1189,8.85477e-06,9.97957e-05,7.83137e-05,3.80271e-05,1.70328e-05,0.000108494
1190,7.81603e-06,0.000111814,8.81964e-05,4.10027e-05,5.47779e-06,9.19579e-05
1191,5.55291e-06,0.000128932,8.91169e-05,4.46245e-05,-3.71237e-06,7.22975e-05
1192,3.99782e-06,0.000134807,7.09699e-05,4.86373e-05,-1.11378e-06,5.81097e-05
1193,4.63275e-06,0.00012754,5.57666e-05,4.92903e-05,6.20187e-06,5.05888e-05
1194,4.71425e-06,0.0001107,6.50479e-05,4.64305e-05,9.76357e-06,4.4456e-05
1195,2.1094e-06,9.15939e-05,8.23942e-05,4.86829e-05,1.50976e-05,3.49321e-05
1196,-2.37069e-06,8.46864e-05,9.47234e-05,5.98854e-05,3.04449e-05,1.99665e-05
1197,-4.9276e-06,8.83776e-05,8.99366e-05,7.15327e-05,4.48681e-05,-2.09331e-07
1198,-1.15367e-06,8.8487e-05,6.39164e-05,7.66414e-05,4.22093e-05,-1.87863e-05
1199,5.17235e-06,8.22126e-05,4.34331e-05,7.70841e-05,2.4994e-05,-2.88356e-05
1200,7.7075e-06,7.0266e-05,5.50049e-05,7.53883e-05,1.29651e-05,-3.36925e-05
1201,8.49905e-06,6.10349e-05,8.16319e-05,7.10862e-05,1.69383e-05,-4.03954e-05
1202,1.12039e-05,7.5421e-05,9.23891e-05,6.6269e-05,2.2977e-05,-4.85557e-05
1203,1.5548e-05,0.000101252,8.30025e-05,6.44054e-05,1.1588e-05,-5.19457e-05
1204,1.89602e-05,0.000113895,6.13861e-05,6.54209e-05,-8.0812e-06,-4.66046e-05
1205,2.15006e-05,0.000121324,4.9349e-05,6.76051e-05,-1.23445e-05,-3.47987e-05
1206,2.22582e-05,0.000125412,6.03275e-05,6.94542e-05,2.30319e-06,-2.15341e-05
1207,2.11757e-05,0.000119759,7.82505e-05,6.99244e-05,1.96899e-05,-8.56567e-06
1208,1.86293e-05,0.00010793,8.0538e-05,7.07323e-05,2.65544e-05,3.10512e-06
1209,1.5575e-05,9.15696e-05,7.31149e-05,7.54135e-05,2.64944e-05,1.11914e-05
1210,1.50853e-05,8.33456e-05,5.57897e-05,8.35498e-05,2.64502e-05,1.62879e-05
1211,1.58277e-05,9.54917e-05,4.20103e-05,9.17371e-05,2.56541e-05,2.13664e-05
1212,1.55343e-05,0.000117955,5.32412e-05,9.60309e-05,2.25202e-05,2.85412e-05
1213,1.41855e-05,0.000132601,7.33429e-05,9.58049e-05,1.98724e-05,3.6618e-05
1214,1.16648e-05,0.000127377,7.63223e-05,9.47876e-05,2.04933e-05,4.1934e-05
1215,8.68217e-06,0.000101081,7.03688e-05,9.50564e-05,1.84293e-05,4.23891e-05
1216,6.33071e-06,7.36728e-05,6.77558e-05,9.49705e-05,1.85648e-05,4.15275e-05
1217,7.62456e-06,6.40347e-05,7.11291e-05,9.45602e-05,2.87658e-05,4.3466e-05
1218,1.22899e-05,6.4165e-05,5.98667e-05,9.61075e-05,4.07187e-05,4.6722e-05
1219,1.87226e-05,5.56488e-05,3.40232e-05,9.90964e-05,4.37512e-05,4.58793e-05
1220,2.09475e-05,3.51554e-05,2.25569e-05,9.94632e-05,3.63621e-05,4.00057e-05
1221,1.70448e-05,9.00832e-06,3.60829e-05,9.46835e-05,2.85211e-05,3.39925e-05
1222,1.35483e-05,-1.43554e-05,5.27744e-05,8.7251e-05,1.62165e-05,3.07947e-05
1223,1.41996e-05,-2.49957e-05,6.19292e-05,8.06531e-05,-9.13336e-06,2.93836e-05
1224,1.53179e-05,-2.5286e-05,5.79053e-05,7.38493e-05,-3.39426e-05,2.51573e-05
1225,1.41583e-05,-2.66366e-05,3.62127e-05,6.25702e-05,-3.83641e-05,1.07357e-05
1226,1.18813e-05,-3.65142e-05,2.01656e-05,4.88831e-05,-2.59472e-05,-1.50574e-05
1227,6.64398e-06,-6.29945e-05,3.06317e-05,3.92121e-05,-1.41864e-05,-4.10998e-05
1228,1.14089e-06,-9.72944e-05,5.19854e-05,3.29973e-05,-8.98443e-06,-5.6874e-05
1229,-1.32784e-06,-0.00011018,6.2657e-05,2.61242e-05,-4.25609e-06,-6.2297e-05
1230,-7.74627e-07,-0.000107004,5.86917e-05,1.69802e-05,3.87512e-06,-6.26884e-05
1231,3.50896e-07,-0.000112888,4.09458e-05,4.89156e-06,1.2787e-05,-6.24266e-05
1232,-2.44066e-07,-0.000123734,2.74828e-05,-8.99432e-06,1.94657e-05,-6.24586e-05
1233,-4.88022e-06,-0.000132172,3.98198e-05,-2.04025e-05,2.15029e-05,-6.25311e-05
1234,-1.06399e-05,-0.000140145,6.48133e-05,-2.75887e-05,1.98007e-05,-6.09035e-05
1235,-1.34583e-05,-0.00015042,7.51926e-05,-3.37369e-05,1.8051e-05,-5.47221e-05
1236,-1.26447e-05,-0.000162978,7.09267e-05,-4.01108e-05,1.55711e-05,-4.72637e-05
1237,-9.87613e-06,-0.000161826,5.22229e-05,-4.44545e-05,8.3686e-06,-4.25823e-05
1238,-6.9629e-06,-0.000138381,3.60677e-05,-4.29439e-05,-1.75156e-07,-3.91362e-05
1239,-4.67297e-06,-0.000110616,4.24334e-05,-3.71056e-05,-3.53675e-07,-3.55807e-05
1240,-2.40134e-06,-9.93322e-05,5.84548e-05,-3.29888e-05,7.52104e-06,-3.35937e-05
1241,-2.71634e-06,-0.000109363,6.11497e-05,-3.32335e-05,1.42663e-05,-3.48318e-05
1242,-4.51277e-06,-0.00013601,4.76358e-05,-3.61961e-05,1.7282e-05,-3.83954e-05
1243,-5.39621e-07,-0.000163263,3.58879e-05,-4.09767e-05,2.16675e-05,-4.09211e-05
1244,3.625e-06,-0.000174342,3.58291e-05,-4.608e-05,2.51024e-05,-3.96193e-05
1245,6.37858e-06,-0.000171728,2.80894e-05,-4.56932e-05,2.55268e-05,-3.46325e-05
1246,1.1116e-05,-0.000171566,9.61986e-06,-3.76331e-05,2.22654e-05,-2.8499e-05
1247,1.41377e-05,-0.000183795,6.40693e-06,-2.87346e-05,1.36559e-05,-2.35245e-05
1248,1.24835e-05,-0.000206233,2.91217e-05,-2.69801e-05,1.0698e-05,-1.98331e-05
1249,8.0851e-06,-0.000223188,4.93292e-05,-3.17059e-05,1.39819e-05,-1.62951e-05
1250,3.8355e-06,-0.000213974,5.4288e-05,-3.79862e-05,1.66519e-05,-1.22401e-05
1251,2.52657e-06,-0.000180871,4.5049e-05,-4.20998e-05,1.69539e-05,-7.89638e-06
1252,5.57816e-06,-0.000146984,2.99458e-05,-4.1219e-05,2.03121e-05,-2.36381e-07
1253,9.62302e-06,-0.000126416,2.6395e-05,-3.62775e-05,2.68511e-05,1.46441e-05
1254,1.05926e-05,-0.000120901,4.4177e-05,-3.05967e-05,3.22127e-05,3.03021e-05
1255,8.0213e-06,-0.000121945,6.25263e-05,-2.65566e-05,3.66925e-05,3.71781e-05
1256,3.58813e-06,-0.000111604,6.80276e-05,-2.61216e-05,3.81847e-05,3.50715e-05
1257,9.68336e-07,-0.00010201,6.57727e-05,-2.8133e-05,3.52353e-05,2.92643e-05
1258,1.66513e-06,-0.000112475,5.66883e-05,-3.06988e-05,3.07795e-05,2.31434e-05
1259,3.83581e-06,-0.000126602,5.21119e-05,-3.27448e-05,2.79643e-05,1.71586e-05
1260,5.47308e-06,-0.000133846,6.8243e-05,-3.58517e-05,2.44452e-05,1.13861e-05
1261,6.65645e-06,-0.000136159,9.23466e-05,-4.10218e-05,2.11546e-05,2.46649e-06
1262,7.80666e-06,-0.000135371,9.5178e-05,-4.16221e-05,2.32768e-05,-7.72677e-06
1263,8.25618e-06,-0.000136014,8.03642e-05,-3.71628e-05,2.72793e-05,-1.31709e-05
1264,9.17077e-06,-0.000125595,5.75989e-05,-3.4859e-05,2.62622e-05,-1.33465e-05
1265,9.72251e-06,-9.59856e-05,3.76014e-05,-3.5832e-05,2.47306e-05,-1.0787e-05
1266,8.215e-06,-6.55513e-05,3.9627e-05,-3.74097e-05,2.58444e-05,-8.46116e-06
1267,7.43593e-06,-5.45307e-05,5.73412e-05,-3.77946e-05,3.18864e-05,-5.29784e-06
1268,1.0294e-05,-6.50148e-05,6.27731e-05,-3.88321e-05,4.15335e-05,-5.39886e-07
1269,1.31099e-05,-8.71084e-05,6.41161e-05,-4.34486e-05,4.71041e-05,3.51239e-06
1270,1.63288e-05,-0.000102309,6.98091e-05,-4.99996e-05,4.6829e-05,5.21213e-06
1271,1.93909e-05,-9.95163e-05,7.54605e-05,-5.48032e-05,4.30184e-05,3.86527e-06
1272,1.90844e-05,-8.99568e-05,6.74548e-05,-5.5574e-05,3.39077e-05,-4.78366e-07
1273,1.55297e-05,-8.8537e-05,4.5443e-05,-5.27064e-05,1.90295e-05,-5.94305e-06
1274,1.20206e-05,-9.62114e-05,3.48678e-05,-4.91691e-05,1.13899e-06,-1.15148e-05
1275,1.03662e-05,-0.000108662,5.31664e-05,-4.66468e-05,-1.13439e-05,-1.74716e-05
1276,1.00952e-05,-0.000115659,7.21474e-05,-4.37072e-05,-1.41444e-05,-2.19193e-05
1277,1.09705e-05,-0.000102995,7.64862e-05,-3.8919e-05,-9.02558e-06,-2.33165e-05
1278,9.06142e-06,-7.72013e-05,6.81238e-05,-3.26755e-05,-7.45732e-07,-2.34975e-05
1279,7.59441e-06,-5.72944e-05,4.68996e-05,-2.56636e-05,6.51478e-06,-2.58084e-05
1280,8.75329e-06,-5.06656e-05,3.0795e-05,-1.84508e-05,1.27257e-05,-3.10589e-05
1281,8.97786e-06,-5.55423e-05,3.94963e-05,-1.11776e-05,1.68154e-05,-3.62127e-05
1282,7.21612e-06,-5.84436e-05,6.15659e-05,-2.49095e-06,1.66099e-05,-3.74493e-05
1283,5.78251e-06,-3.76864e-05,7.48259e-05,6.44659e-06,1.15825e-05,-3.32498e-05
1284,6.95837e-06,-5.87527e-06,7.27766e-05,1.1436e-05,9.28287e-06,-2.70903e-05
1285,9.73129e-06,9.18286e-06,5.77359e-05,9.49521e-06,1.04344e-05,-2.07948e-05
1286,1.18068e-05,1.63008e-05,4.54216e-05,4.34011e-06,9.81016e-06,-1.00314e-05
1287,1.18844e-05,2.918e-05,5.26833e-05,2.76965e-06,6.9037e-06,1.84623e-06
1288,1.2739e-05,4.50268e-05,6.84526e-05,4.87658e-06,6.59174e-06,7.94328e-06
1289,1.75612e-05,5.39552e-05,7.32391e-05,6.32367e-06,9.06106e-06,8.10014e-06
1290,2.13663e-05,5.28902e-05,7.22954e-05,5.2805e-06,1.2772e-05,5.36709e-06
1291,1.98185e-05,6.48022e-05,5.64948e-05,3.93992e-06,1.4855e-05,4.46858e-06
1292,1.88834e-05,0.000102584,3.2659e-05,4.38771e-06,1.23913e-05,8.98578e-06
1293,1.98475e-05,0.000144291,2.98332e-05,5.9096e-06,1.08251e-05,1.596e-05
1294,2.06389e-05,0.000167806,5.10544e-05,7.87318e-06,1.61255e-05,1.91747e-05
1295,2.38919e-05,0.000169376,6.07864e-05,9.86667e-06,2.21187e-05,2.00049e-05
1296,3.04357e-05,0.000154553,4.99288e-05,1.02469e-05,1.94165e-05,2.09919e-05
1297,3.18834e-05,0.000141794,4.30358e-05,9.42155e-06,1.31044e-05,1.87197e-05
1298,2.64395e-05,0.000147733,5.046e-05,7.5714e-06,1.0406e-05,1.12585e-05
1299,1.99245e-05,0.00016742,5.05303e-05,2.55338e-06,6.97217e-06,2.4835e-06
1300,1.61403e-05,0.000184295,2.71014e-05,-3.54401e-06,-2.75387e-07,-4.99191e-06
1301,1.53211e-05,0.000187865,5.86793e-06,-3.02077e-06,-5.96057e-06,-1.32198e-05
1302,1.31966e-05,0.00017499,1.59498e-05,9.17518e-06,-6.54067e-06,-2.37082e-05
1303,9.33618e-06,0.000156095,3.89905e-05,2.85644e-05,-2.54052e-06,-3.31184e-05
1304,4.23578e-06,0.000145029,5.04228e-05,4.62408e-05,1.16446e-06,-3.59663e-05
1305,1.51811e-06,0.00013354,4.15683e-05,5.69906e-05,3.44988e-06,-3.25202e-05
1306,2.79141e-06,0.000107935,2.09349e-05,6.01385e-05,6.17637e-06,-2.90244e-05
1307,3.83287e-06,7.06608e-05,9.71816e-06,5.66724e-05,9.14628e-06,-2.91627e-05
1308,2.22478e-06,3.32501e-05,2.31734e-05,5.04679e-05,1.39463e-05,-3.06666e-05
1309,2.14799e-06,1.42567e-05,4.65894e-05,4.73449e-05,1.89113e-05,-3.39829e-05
1310,3.32255e-06,2.92705e-05,5.5218e-05,4.69455e-05,1.83996e-05,-3.80588e-05
1311,4.60997e-06,5.44627e-05,3.99104e-05,4.5026e-05,1.22244e-05,-3.77229e-05
1312,7.60205e-06,5.67404e-05,9.18004e-06,4.36009e-05,5.95788e-06,-3.56224e-05
1313,1.08153e-05,4.66291e-05,-6.78498e-06,4.74594e-05,3.92668e-06,-3.4882e-05
1314,9.79031e-06,4.33152e-05,1.07777e-05,5.23767e-05,7.80652e-06,-3.40426e-05
1315,6.03196e-06,4.56789e-05,4.1345e-05,4.90961e-05,1.04981e-05,-3.33157e-05
1316,4.52792e-06,4.43875e-05,5.53855e-05,3.92353e-05,3.40022e-06,-3.35345e-05
1317,3.64373e-06,3.51943e-05,4.91789e-05,3.14542e-05,-7.48026e-06,-3.42699e-05
1318,2.42614e-06,3.24785e-05,3.00988e-05,2.51446e-05,-8.477e-06,-3.49718e-05
1319,3.56319e-06,4.65695e-05,1.6983e-05,1.77036e-05,9.49998e-07,-3.52884e-05
1320,6.29644e-06,6.12663e-05,2.80674e-05,1.30867e-05,9.12654e-06,-3.67262e-05
1321,6.4035e-06,6.05646e-05,4.76925e-05,1.34479e-05,1.60842e-05,-4.25376e-05
1322,5.56086e-06,4.60221e-05,4.67359e-05,1.76769e-05,2.12731e-05,-5.20351e-05
1323,3.56532e-06,2.47718e-05,3.68954e-05,2.31035e-05,2.24307e-05,-6.18069e-05
1324,1.66863e-06,1.15609e-05,3.99257e-05,2.72903e-05,1.73666e-05,-6.71788e-05
1325,2.62714e-07,1.73137e-05,5.62126e-05,2.98181e-05,7.08716e-06,-6.33399e-05
1326,-1.25258e-06,3.30733e-05,5.81557e-05,3.17944e-05,-5.81109e-07,-4.81619e-05
1327,4.85751e-07,4.27126e-05,4.08788e-05,3.49053e-05,-4.95622e-06,-2.589e-05
1328,3.48817e-06,3.94767e-05,2.89065e-05,4.10419e-05,-4.57666e-06,-5.89832e-06
1329,3.83987e-06,2.52996e-05,4.15341e-05,5.19821e-05,-2.03801e-06,5.64677e-06
1330,2.37736e-06,1.48922e-05,6.13419e-05,6.66359e-05,4.67065e-06,1.11779e-05
1331,2.25698e-06,2.76255e-05,7.12044e-05,8.23665e-05,1.62678e-05,1.66154e-05
1332,4.98097e-06,5.75174e-05,6.18311e-05,9.77263e-05,3.03209e-05,2.53582e-05
1333,9.5305e-06,7.94993e-05,3.29891e-05,0.000109148,4.71883e-05,3.62616e-05
1334,1.36108e-05,8.12269e-05,1.19222e-05,0.000112963,5.84023e-05,4.30689e-05
1335,1.62114e-05,6.55425e-05,2.10468e-05,0.000112397,4.97551e-05,4.20686e-05
1336,1.8755e-05,4.98721e-05,4.47854e-05,0.000110724,1.90273e-05,3.5693e-05
1337,2.15671e-05,5.8945e-05,5.82497e-05,0.000105282,-1.69287e-05,3.0557e-05
1338,2.45236e-05,7.72391e-05,6.04746e-05,9.59382e-05,-3.37747e-05,3.48439e-05
1339,2.93082e-05,7.46283e-05,5.55671e-05,8.71607e-05,-2.73542e-05,4.9296e-05
1340,3.37566e-05,6.63737e-05,5.33853e-05,8.14418e-05,-2.25705e-05,6.61242e-05
1341,3.03917e-05,7.15879e-05,6.51304e-05,7.88319e-05,-3.03573e-05,7.8663e-05
1342,1.92715e-05,8.39889e-05,8.09125e-05,8.03878e-05,-3.30511e-05,8.72694e-05
1343,1.01066e-05,8.838e-05,8.24387e-05,8.29991e-05,-1.71467e-05,9.8154e-05
1344,8.90143e-06,7.89915e-05,7.8802e-05,8.05329e-05,7.39606e-06,0.000110527
1345,1.34761e-05,8.03196e-05,6.81167e-05,7.58049e-05,2.44746e-05,0.000116959
1346,1.62765e-05,0.00010937,5.40663e-05,7.55223e-05,3.06403e-05,0.000114615
1347,1.24119e-05,0.000139668,6.17583e-05,8.01807e-05,3.46609e-05,0.000106454
1348,8.76946e-06,0.000141289,8.51857e-05,8.31913e-05,3.8262e-05,9.77026e-05
1349,1.00098e-05,0.00011733,9.37657e-05,8.01353e-05,3.84269e-05,9.16337e-05
1350,1.42103e-05,8.70522e-05,8.20664e-05,7.55245e-05,3.56679e-05,8.58156e-05
1351,1.65739e-05,6.95646e-05,7.35056e-05,7.57756e-05,2.34053e-05,7.41738e-05
1352,1.67377e-05,7.21333e-05,8.32049e-05,7.99904e-05,2.02559e-06,5.55948e-05
1353,1.96221e-05,8.05038e-05,8.65835e-05,8.3995e-05,-1.07409e-05,3.53447e-05
1354,2.13766e-05,7.43309e-05,7.10854e-05,8.7596e-05,-8.04946e-06,1.66506e-05
1355,2.07116e-05,5.00506e-05,5.59991e-05,8.98845e-05,1.85548e-06,-2.48616e-06
1356,1.79319e-05,1.79416e-05,6.42657e-05,8.71607e-05,1.42169e-05,-2.2412e-05
1357,1.44975e-05,-2.65036e-06,8.41888e-05,7.982e-05,2.36453e-05,-3.96752e-05
1358,1.37268e-05,1.75642e-06,9.84512e-05,7.2518e-05,2.88306e-05,-5.1724e-05
1359,1.51456e-05,1.56474e-05,9.80469e-05,6.77744e-05,3.16979e-05,-5.91432e-05
1360,1.56067e-05,1.86551e-05,8.27777e-05,6.79246e-05,3.33385e-05,-6.78475e-05
1361,1.3815e-05,1.23457e-05,7.15026e-05,7.36735e-05,3.42864e-05,-8.39935e-05
1362,1.16572e-05,-1.4724e-07,7.87332e-05,8.03468e-05,3.24979e-05,-0.000100133
1363,1.20642e-05,-1.17437e-05,9.51235e-05,8.13005e-05,2.74893e-05,-0.000107467
1364,1.38134e-05,-4.19132e-06,0.000103,7.74928e-05,2.39532e-05,-0.000112276
1365,1.48548e-05,6.2355e-06,9.58842e-05,7.78576e-05,2.47902e-05,-0.000124153
1366,1.48151e-05,-9.2131e-06,7.35702e-05,8.15855e-05,2.6805e-05,-0.000143582
1367,1.35076e-05,-3.80317e-05,5.5095e-05,8.26079e-05,2.82806e-05,-0.00016114
1368,1.18866e-05,-6.32173e-05,5.89291e-05,8.34284e-05,2.89689e-05,-0.000169684
1369,1.15578e-05,-8.50572e-05,7.21431e-05,8.37972e-05,2.88418e-05,-0.00016982
1370,1.08423e-05,-0.000108245,7.55584e-05,8.07136e-05,2.97647e-05,-0.0001655
1371,8.08267e-06,-0.000136307,7.03565e-05,7.34632e-05,3.14499e-05,-0.000160971
1372,9.58323e-06,-0.000155515,5.41306e-05,6.40424e-05,3.00942e-05,-0.000155844
1373,1.64166e-05,-0.000154374,3.92224e-05,5.36535e-05,2.73944e-05,-0.000147497
1374,1.81039e-05,-0.000149066,4.48838e-05,4.23929e-05,2.78374e-05,-0.00013466
1375,1.29911e-05,-0.000158429,5.9755e-05,3.37117e-05,3.06288e-05,-0.000117856
1376,8.88888e-06,-0.000180208,5.89373e-05,2.88149e-05,3.03003e-05,-9.7738e-05
1377,1.00884e-05,-0.000204575,4.17549e-05,2.43455e-05,2.46005e-05,-7.58989e-05
1378,1.43643e-05,-0.000215037,2.69776e-05,1.75133e-05,2.30878e-05,-5.31574e-05
1379,1.72052e-05,-0.000202079,2.55083e-05,1.18576e-05,2.65482e-05,-2.84928e-05
1380,1.96208e-05,-0.000183889,2.02103e-05,1.21213e-05,2.52885e-05,-3.42263e-06
1381,2.01938e-05,-0.000180446,4.56257e-06,1.71089e-05,2.004e-05,1.85869e-05
1382,2.01244e-05,-0.000186373,2.71546e-07,2.1891e-05,1.78187e-05,3.44434e-05
1383,2.03291e-05,-0.000189488,2.68999e-05,2.51419e-05,2.15976e-05,4.49366e-05
1384,2.24486e-05,-0.000182326,5.38034e-05,2.71398e-05,2.51635e-05,5.48753e-05
1385,2.27491e-05,-0.000158862,6.13236e-05,2.61797e-05,2.54355e-05,6.4825e-05
1386,1.99996e-05,-0.000131747,5.49702e-05,2.14153e-05,2.58528e-05,7.1484e-05
1387,1.77083e-05,-0.00012432,3.64703e-05,1.51712e-05,2.70824e-05,7.62131e-05
1388,1.66494e-05,-0.000137037,2.25994e-05,8.61881e-06,2.4787e-05,8.34191e-05
1389,1.54111e-05,-0.000154097,3.04467e-05,9.73696e-08,1.90806e-05,9.19526e-05
1390,1.32161e-05,-0.000157378,4.82863e-05,-9.90734e-06,1.44871e-05,9.4481e-05
1391,1.27474e-05,-0.000128778,5.31231e-05,-1.81417e-05,1.17822e-05,8.82198e-05
1392,1.42302e-05,-8.89686e-05,4.50554e-05,-2.04255e-05,1.03273e-05,7.8358e-05
1393,1.59214e-05,-7.25723e-05,3.00968e-05,-1.56923e-05,1.0827e-05,6.92373e-05
1394,1.67202e-05,-6.79848e-05,2.18164e-05,-9.71567e-06,1.18343e-05,5.72317e-05
1395,1.63977e-05,-5.56354e-05,3.5153e-05,-5.60963e-06,1.1265e-05,3.97221e-05
1396,1.54277e-05,-3.70521e-05,5.88326e-05,-9.50005e-07,1.06453e-05,2.26781e-05
1397,1.45564e-05,-2.46797e-05,6.67492e-05,4.00665e-06,1.40244e-05,9.73872e-06
1398,1.22812e-05,-2.86636e-05,6.00305e-05,9.34465e-06,1.94467e-05,-2.12805e-06
1399,1.17405e-05,-2.68165e-05,4.36793e-05,1.3159e-05,2.1026e-05,-1.49698e-05
1400,1.24463e-05,3.77223e-06,2.88672e-05,1.39453e-05,2.05794e-05,-2.34832e-05
1401,9.90682e-06,4.44767e-05,3.45575e-05,1.34177e-05,1.86574e-05,-2.19259e-05
1402,3.63224e-06,6.52804e-05,5.04088e-05,1.36612e-05,1.51582e-05,-1.44756e-05
1403,-1.22969e-06,6.18665e-05,5.14531e-05,1.54896e-05,1.47603e-05,-8.7693e-06
1404,3.39002e-06,4.81219e-05,3.97587e-05,1.7125e-05,1.52328e-05,-6.45906e-06
1405,1.5182e-05,4.39327e-05,4.12481e-05,1.83589e-05,1.32347e-05,-4.13611e-06
1406,1.95071e-05,5.59009e-05,5.46017e-05,2.24583e-05,1.61428e-05,-1.41645e-07
1407,1.63956e-05,6.97478e-05,5.57326e-05,3.22784e-05,1.66913e-05,3.67353e-06
1408,1.43826e-05,7.28109e-05,4.15792e-05,4.57611e-05,1.26586e-05,4.09561e-06
1409,1.61356e-05,6.75489e-05,2.94889e-05,5.99181e-05,1.17335e-05,-2.18359e-06
1410,1.76363e-05,5.84816e-05,4.312e-05,7.35965e-05,1.1086e-05,-1.55388e-05
1411,1.91015e-05,5.19713e-05,5.88881e-05,8.28478e-05,8.45691e-06,-3.17229e-05
1412,2.03611e-05,5.87494e-05,6.22365e-05,8.42566e-05,4.11908e-06,-4.53216e-05
1413,1.84292e-05,7.04827e-05,5.10063e-05,8.21486e-05,1.65762e-06,-5.25965e-05
1414,1.4857e-05,6.96996e-05,2.92217e-05,7.9718e-05,2.75834e-06,-5.34472e-05
1415,1.02677e-05,5.56358e-05,1.92986e-05,7.7248e-05,7.43204e-06,-4.92095e-05
1416,6.29319e-06,3.0351e-05,3.40235e-05,7.71498e-05,1.29991e-05,-4.03723e-05
1417,6.89947e-06,2.0066e-06,5.37399e-05,7.7242e-05,1.51431e-05,-3.1132e-05
1418,1.26744e-05,-7.43436e-06,5.79941e-05,7.37594e-05,1.27188e-05,-2.45884e-05
1419,1.82183e-05,-4.30599e-06,4.8883e-05,6.94443e-05,9.61448e-06,-1.86773e-05
1420,2.00212e-05,-7.94229e-06,2.85976e-05,6.6655e-05,1.04355e-05,-1.35626e-05
1421,1.66969e-05,-1.48673e-05,1.23687e-05,6.55082e-05,1.59147e-05,-1.4961e-05
1422,1.1233e-05,-2.26727e-05,2.07321e-05,6.68232e-05,2.12985e-05,-2.24503e-05
1423,8.57866e-06,-2.90844e-05,4.71037e-05,6.87239e-05,2.32145e-05,-2.66098e-05
1424,9.76985e-06,-3.18211e-05,5.99336e-05,7.21149e-05,2.85206e-05,-2.46427e-05
1425,1.19565e-05,-3.78194e-05,5.45869e-05,7.73995e-05,4.17144e-05,-2.08548e-05
1426,1.28848e-05,-3.99617e-05,3.5645e-05,7.89571e-05,4.67046e-05,-1.8304e-05
1427,8.95001e-06,-2.87639e-05,2.33106e-05,7.33718e-05,3.28662e-05,-1.675e-05
1428,4.25553e-06,-1.6097e-05,3.70566e-05,6.48177e-05,1.10516e-05,-1.25072e-05
1429,2.30096e-06,-1.60522e-05,5.84534e-05,5.87649e-05,1.34276e-07,-3.25244e-06
1430,7.64594e-07,-3.08646e-05,6.08304e-05,5.64016e-05,6.13291e-06,6.2672e-06
1431,-1.30182e-07,-5.707e-05,5.25359e-05,5.53585e-05,6.01317e-06,8.7137e-06
1432,-1.33919e-06,-8.11239e-05,4.71168e-05,5.21239e-05,-6.05196e-06,9.95729e-07
1433,-1.68345e-06,-9.17237e-05,4.28338e-05,4.55279e-05,-1.16942e-05,-1.59792e-05
1434,7.99466e-07,-9.65535e-05,3.13124e-05,3.73229e-05,5.37497e-07,-3.55713e-05
1435,4.84861e-06,-0.000110896,1.47377e-05,3.21862e-05,2.30944e-05,-4.89667e-05
1436,7.25712e-06,-0.000139552,7.42831e-06,3.29805e-05,3.84408e-05,-5.33945e-05
1437,5.02406e-06,-0.000175738,2.31059e-05,3.61844e-05,4.05211e-05,-5.3812e-05
1438,2.47078e-06,-0.000199524,4.15805e-05,3.60029e-05,2.71127e-05,-5.51645e-05
1439,2.13052e-06,-0.000191926,4.69688e-05,3.16147e-05,6.80667e-07,-5.79536e-05
1440,3.2219e-06,-0.00016759,3.27331e-05,2.62839e-05,-2.51648e-05,-6.12215e-05
1441,7.12862e-06,-0.00015713,6.74553e-06,2.29102e-05,-2.95557e-05,-6.32878e-05
1442,1.29018e-05,-0.000165657,-6.16053e-06,2.08301e-05,-1.18604e-05,-6.04475e-05
1443,1.52747e-05,-0.000181067,4.64471e-06,1.55244e-05,9.8556e-06,-5.03283e-05
1444,1.29226e-05,-0.000184582,2.39388e-05,7.45113e-06,2.14826e-05,-3.74401e-05
1445,1.01976e-05,-0.000153881,3.75986e-05,1.68665e-06,2.28627e-05,-2.50048e-05
1446,9.84154e-06,-0.000104283,4.23365e-05,-1.46156e-06,2.15542e-05,-1.35258e-05
1447,1.05151e-05,-6.73713e-05,2.99853e-05,-2.8394e-06,2.2185e-05,-8.53723e-06
1448,1.13211e-05,-4.28753e-05,1.59203e-05,-7.02352e-07,2.31304e-05,-1.30657e-05
1449,1.184e-05,-2.52708e-05,2.32088e-05,5.48214e-06,2.47094e-05,-2.06471e-05
1450,1.03336e-05,-1.24499e-05,3.99394e-05,1.44644e-05,3.26938e-05,-2.05846e-05
1451,7.36433e-06,-4.53461e-06,3.93257e-05,2.53518e-05,4.62858e-05,-1.34343e-05
1452,6.41936e-06,-9.02364e-06,2.99701e-05,3.51672e-05,5.91992e-05,-7.53641e-06
1453,1.16085e-05,-1.28187e-05,1.72275e-05,4.19989e-05,5.99429e-05,-5.5192e-06
1454,1.57457e-05,1.59023e-06,8.79404e-06,4.80022e-05,4.76202e-05,-6.9765e-06
1455,1.25201e-05,2.26246e-05,2.27294e-05,5.21922e-05,3.13119e-05,-8.04484e-06
1456,7.93157e-06,3.02061e-05,4.89597e-05,5.30094e-05,1.53633e-05,-4.52287e-06
1457,8.47649e-06,2.21552e-05,5.87228e-05,5.06802e-05,-2.66127e-06,1.64902e-06
1458,1.24126e-05,7.10001e-06,5.07651e-05,4.37119e-05,-1.78924e-05,5.68582e-06
1459,1.43859e-05,-6.79727e-08,4.71003e-05,3.19507e-05,-1.83628e-05,8.04509e-06
1460,1.12228e-05,9.32642e-06,5.63022e-05,2.02638e-05,-8.94096e-06,1.32263e-05
1461,9.77188e-06,2.51227e-05,5.53008e-05,1.1372e-05,-3.28458e-06,2.2744e-05
1462,1.52672e-05,3.38967e-05,3.63184e-05,2.45148e-06,-4.65367e-06,3.19779e-05
1463,2.07867e-05,3.20235e-05,2.35324e-05,-7.21836e-06,-6.28359e-06,3.71941e-05
1464,2.13783e-05,1.96547e-05,4.02046e-05,-1.47492e-05,-3.84242e-06,3.75139e-05
1465,1.94893e-05,9.68801e-06,6.6217e-05,-1.99722e-05,1.31227e-06,3.26284e-05
1466,2.0305e-05,2.31276e-05,8.07768e-05,-2.43184e-05,5.4532e-06,2.6108e-05
1467,2.454e-05,5.40908e-05,7.6456e-05,-2.67087e-05,5.37032e-06,2.16068e-05
1468,2.87263e-05,7.75816e-05,5.55783e-05,-2.71428e-05,5.26455e-06,1.86793e-05
1469,3.0392e-05,8.32788e-05,3.98233e-05,-2.54809e-05,8.16073e-06,1.83238e-05
1470,3.21885e-05,7.67598e-05,4.71071e-05,-2.01893e-05,1.24031e-05,2.20737e-05
1471,3.69882e-05,7.42239e-05,6.34776e-05,-1.33579e-05,1.70184e-05,2.58682e-05
1472,4.15667e-05,8.99285e-05,7.23218e-05,-9.28014e-06,1.95295e-05,2.33896e-05
1473,4.31604e-05,0.000101133,7.38562e-05,-6.93317e-06,1.58282e-05,1.43506e-05
1474,4.08546e-05,8.45904e-05,6.67515e-05,-1.65681e-06,9.72189e-06,4.27425e-06
1475,3.77004e-05,6.40127e-05,5.89393e-05,7.43282e-06,1.05014e-05,-2.57958e-06
1476,3.55441e-05,5.81041e-05,6.57834e-05,1.66906e-05,1.73918e-05,-6.96513e-06
1477,3.302e-05,5.67967e-05,7.83088e-05,2.33065e-05,1.87931e-05,-1.05119e-05
1478,3.1843e-05,4.7757e-05,7.83888e-05,3.11083e-05,1.12533e-05,-1.06746e-05
1479,3.19195e-05,2.97733e-05,7.44483e-05,4.13092e-05,4.93856e-06,-8.62783e-06
1480,3.17178e-05,2.03447e-05,6.63079e-05,4.93229e-05,8.53998e-06,-8.96511e-06
1481,3.08266e-05,2.89167e-05,5.93767e-05,5.35516e-05,1.54276e-05,-1.3759e-05
1482,2.79008e-05,4.3186e-05,6.83395e-05,5.40114e-05,2.01979e-05,-2.16636e-05
1483,2.21909e-05,5.23771e-05,8.7222e-05,5.27007e-05,2.73179e-05,-3.10414e-05
1484,1.59289e-05,5.62597e-05,9.35528e-05,5.27218e-05,3.22467e-05,-4.01659e-05
1485,1.28973e-05,5.58076e-05,8.20255e-05,5.37603e-05,3.03e-05,-4.68522e-05
1486,1.28967e-05,6.15391e-05,6.9467e-05,5.17598e-05,2.84773e-05,-5.00552e-05
1487,1.46376e-05,8.56232e-05,7.2491e-05,4.66402e-05,2.9214e-05,-4.99088e-05
1488,1.56843e-05,0.00012187,7.64832e-05,4.2068e-05,2.84035e-05,-4.95924e-05
1489,1.70225e-05,0.000153729,7.08958e-05,3.79927e-05,2.30527e-05,-5.14649e-05
1490,1.77942e-05,0.000171185,6.26633e-05,3.21229e-05,1.78284e-05,-5.28662e-05
1491,1.42749e-05,0.000172474,7.17496e-05,2.41753e-05,1.73701e-05,-4.9963e-05
1492,1.11737e-05,0.000171163,8.76876e-05,1.50855e-05,1.73507e-05,-4.19365e-05
1493,1.08256e-05,0.000189242,9.64698e-05,5.18211e-06,1.46132e-05,-3.11066e-05
1494,1.42841e-05,0.000220361,9.13541e-05,-3.7756e-06,7.44062e-06,-2.18898e-05
1495,2.08343e-05,0.000235616,7.05145e-05,-6.54056e-06,1.93676e-06,-1.82358e-05
1496,2.53642e-05,0.000222437,5.46155e-05,-9.25098e-07,-3.07823e-07,-1.99686e-05
1497,2.47646e-05,0.000187701,6.25511e-05,9.29509e-06,4.77278e-06,-2.06051e-05
1498,2.3136e-05,0.000148915,8.3536e-05,2.16647e-05,1.45828e-05,-1.39143e-05
1499,2.07451e-05,0.000124671,9.29342e-05,3.12697e-05,1.82117e-05,-1.77976e-06
1500,1.68165e-05,0.000103856,8.06399e-05,3.14558e-05,1.42456e-05,8.03903e-06
1501,1.33806e-05,7.00948e-05,5.06028e-05,2.59864e-05,1.00417e-05,8.49875e-06
1502,1.26491e-05,3.28043e-05,3.00611e-05,2.21049e-05,1.03805e-05,-1.39474e-06
1503,1.37876e-05,4.78838e-07,3.92879e-05,2.07334e-05,1.11973e-05,-1.35804e-05
1504,1.57282e-05,-2.64596e-05,5.91838e-05,2.08753e-05,9.94677e-06,-1.84823e-05
1505,1.77363e-05,-5.12505e-05,6.18836e-05,2.15066e-05,7.4141e-06,-1.47582e-05
1506,1.76715e-05,-7.87836e-05,5.66874e-05,2.15224e-05,4.57112e-06,-5.80206e-06
1507,1.70545e-05,-9.56367e-05,4.35073e-05,1.84393e-05,1.94533e-06,5.11739e-06
1508,1.60535e-05,-8.86993e-05,3.02132e-05,1.28736e-05,-2.12087e-06,1.57658e-05
1509,1.24546e-05,-7.36789e-05,3.77019e-05,7.3996e-06,-7.227e-06,2.59701e-05
1510,9.41635e-06,-6.76585e-05,5.63345e-05,2.92908e-06,-4.7048e-06,3.51741e-05
1511,1.0287e-05,-6.98308e-05,6.11539e-05,1.42358e-06,4.47439e-06,4.22217e-05
1512,9.63098e-06,-7.4726e-05,4.97673e-05,2.93499e-06,9.30245e-06,4.49331e-05
1513,6.28233e-06,-7.19014e-05,4.25108e-05,6.61916e-06,3.55322e-06,4.28034e-05
1514,5.16927e-06,-5.35793e-05,4.53703e-05,1.31957e-05,-1.21526e-07,3.74442e-05
1515,8.54583e-06,-2.93067e-05,3.75097e-05,2.18986e-05,6.58861e-06,2.86861e-05
1516,1.29188e-05,-1.54614e-05,1.63119e-05,3.23637e-05,1.30511e-05,1.58521e-05
1517,1.46265e-05,-1.57777e-05,7.4322e-06,4.67884e-05,1.02774e-05,1.04301e-06
1518,1.30683e-05,-2.12493e-05,3.23391e-05,6.16615e-05,5.04844e-06,-1.13727e-05
1519,1.19825e-05,-1.40759e-05,6.20966e-05,6.88037e-05,6.32956e-06,-1.94675e-05
1520,9.07058e-06,1.65268e-05,6.98274e-05,6.8649e-05,1.00442e-05,-2.44064e-05
1521,2.83483e-06,5.48034e-05,5.56096e-05,6.80229e-05,7.52248e-06,-2.49903e-05
1522,-1.56585e-06,7.99657e-05,3.24232e-05,6.95813e-05,3.63437e-06,-1.83897e-05
1523,-3.58877e-06,9.02235e-05,2.32216e-05,7.20729e-05,4.42301e-06,-7.6194e-06
1524,-7.18423e-06,8.89495e-05,3.83956e-05,7.37395e-05,7.59938e-06,2.98626e-06
1525,-1.22431e-05,8.39935e-05,5.74855e-05,7.54302e-05,1.07448e-05,1.35364e-05
1526,-1.57696e-05,9.50901e-05,6.3381e-05,7.93469e-05,1.3897e-05,2.566e-05
1527,-1.4913e-05,0.000114867,5.88654e-05,8.35137e-05,1.74263e-05,3.57947e-05
1528,-9.30168e-06,0.000117528,4.66325e-05,8.74112e-05,1.99496e-05,3.3689e-05
1529,-3.69952e-06,0.000110144,3.99559e-05,9.42622e-05,1.9493e-05,1.70519e-05
1530,-2.62773e-06,0.00010482,5.17156e-05,0.000103111,1.48719e-05,-6.22208e-06
1531,-5.29039e-06,9.48367e-05,6.88248e-05,0.000109911,9.56223e-06,-2.54937e-05
1532,-6.72819e-06,6.56549e-05,7.17486e-05,0.000111299,9.74717e-06,-2.94011e-05
1533,-4.01919e-06,1.39358e-05,6.44548e-05,0.000108583,1.99793e-05,-1.63176e-05
1534,2.32198e-06,-3.1419e-05,4.6486e-05,0.000103611,3.44122e-05,2.25929e-06
1535,7.99181e-06,-4.94543e-05,2.97126e-05,9.74546e-05,3.77446e-05,1.25367e-05
1536,7.70587e-06,-5.70246e-05,4.27431e-05,9.06151e-05,2.49857e-05,1.04104e-05
1537,3.19386e-06,-7.42892e-05,7.78039e-05,8.10121e-05,1.19181e-05,-4.07891e-07
1538,1.66002e-06,-0.00010305,9.33226e-05,6.96357e-05,5.26253e-06,-1.22746e-05
1539,2.25719e-06,-0.000136385,8.5529e-05,6.09159e-05,4.36218e-06,-1.79037e-05
1540,1.73593e-06,-0.000157833,7.65435e-05,5.76734e-05,6.59502e-06,-1.95539e-05
1541,5.44752e-07,-0.000158181,7.71579e-05,5.62169e-05,1.25957e-05,-2.45063e-05
1542,5.65345e-07,-0.000153035,7.7647e-05,5.29372e-05,2.17857e-05,-3.41277e-05
1543,4.16294e-06,-0.000160501,6.51205e-05,4.90475e-05,2.62618e-05,-4.57222e-05
1544,9.98438e-06,-0.00017827,5.28286e-05,4.56436e-05,2.4732e-05,-5.70738e-05
1545,1.16236e-05,-0.000196132,6.37201e-05,4.07266e-05,2.52757e-05,-6.69169e-05
1546,8.12029e-06,-0.000197915,7.99306e-05,3.35745e-05,3.18963e-05,-7.3124e-05
1547,5.39582e-06,-0.000167183,8.90301e-05,2.86487e-05,4.27479e-05,-6.93905e-05
1548,6.76043e-06,-0.000114337,8.34038e-05,2.92531e-05,5.5704e-05,-5.26064e-05
1549,1.14158e-05,-6.6499e-05,6.26859e-05,3.2579e-05,6.43091e-05,-3.06138e-05
1550,1.39112e-05,-3.97308e-05,4.58126e-05,3.77396e-05,6.50112e-05,-1.31412e-05
1551,1.06695e-05,-3.44565e-05,5.05611e-05,4.74834e-05,5.44504e-05,7.46863e-08
1552,6.4327e-06,-2.71703e-05,6.66242e-05,5.82751e-05,3.14961e-05,9.81912e-06
1553,5.39734e-06,1.34048e-05,7.41156e-05,6.43275e-05,-2.50003e-06,1.23551e-05
