Time_Index,DELTOID_Affected,DELTOID_NonAffected,BICEPS_Affected,BICEPS_NonAffected,FOREARM_Affected,FOREARM_NonAffected
1,1.11852e-05,-4.31319e-06,6.86919e-05,3.47641e-05,2.95854e-05,-3.66777e-05
2,1.34044e-05,1.78861e-06,5.41168e-05,2.98642e-05,2.81609e-05,-4.48374e-05
3,1.5024e-05,4.88631e-06,5.3684e-05,2.57639e-05,2.41954e-05,-3.39251e-05
4,1.33181e-05,-2.68936e-06,6.33628e-05,3.19778e-05,1.74154e-05,-6.3341e-06
5,9.1395e-06,-1.97997e-05,6.90837e-05,4.44246e-05,1.07875e-05,1.8507e-05
6,5.88818e-06,-2.60388e-05,6.51835e-05,4.57983e-05,8.42088e-06,2.32561e-05
7,5.93421e-06,-1.17691e-05,5.0219e-05,3.84619e-05,1.12383e-05,1.12679e-05
8,8.59651e-06,6.54926e-06,2.84891e-05,3.63758e-05,1.72146e-05,-4.81832e-06
9,1.04746e-05,1.36154e-05,1.83542e-05,4.17266e-05,2.28544e-05,-1.50277e-05
10,9.67558e-06,3.20419e-06,2.72048e-05,5.19355e-05,2.5006e-05,-1.63487e-05
11,8.93842e-06,-1.62346e-05,3.84835e-05,5.95741e-05,2.53665e-05,-1.44827e-05
12,1.20919e-05,-2.08161e-05,3.90672e-05,5.41019e-05,2.64909e-05,-1.32433e-05
13,1.85958e-05,-1.69983e-06,3.22243e-05,3.95914e-05,2.86699e-05,-1.04526e-05
14,2.30611e-05,2.0418e-05,2.22838e-05,3.07022e-05,2.83382e-05,-6.70197e-06
15,2.10709e-05,2.55345e-05,2.01609e-05,3.32702e-05,2.206e-05,-6.99378e-06
16,1.38933e-05,1.20957e-05,3.64166e-05,4.52849e-05,1.33454e-05,-9.81727e-06
17,7.13162e-06,-1.23235e-05,5.77548e-05,5.80353e-05,8.65645e-06,-9.07432e-06
18,5.51737e-06,-2.62362e-05,6.57183e-05,5.46004e-05,6.8314e-06,-2.87334e-06
19,9.73207e-06,-1.32667e-05,6.19101e-05,3.56291e-05,6.26754e-06,8.13496e-06
20,1.46223e-05,8.09824e-06,5.7246e-05,2.32789e-05,9.88255e-06,1.99656e-05
21,1.49638e-05,1.39923e-05,5.38869e-05,2.5286e-05,1.46437e-05,2.14193e-05
22,1.45231e-05,5.14011e-06,4.36104e-05,3.51406e-05,1.58343e-05,6.9042e-06
23,1.73885e-05,-1.71689e-05,3.19168e-05,5.08003e-05,1.33936e-05,-1.64474e-05
24,1.84444e-05,-3.51122e-05,3.79225e-05,5.60073e-05,8.5551e-06,-3.95332e-05
25,1.41419e-05,-2.35226e-05,6.2786e-05,4.24801e-05,4.48431e-06,-5.73299e-05
26,9.50473e-06,-2.48605e-06,8.29922e-05,3.30385e-05,2.47161e-06,-6.06137e-05
27,8.74495e-06,5.21953e-06,8.40933e-05,3.65303e-05,1.7354e-06,-4.76306e-05
28,1.15018e-05,5.44305e-06,6.75045e-05,4.31114e-05,3.73609e-06,-3.31187e-05
29,1.38014e-05,4.97846e-06,4.79858e-05,4.45895e-05,9.48706e-06,-2.52101e-05
30,1.10945e-05,4.69037e-06,4.59156e-05,3.926e-05,1.47973e-05,-2.31572e-05
31,4.44035e-06,-4.79846e-06,6.08553e-05,3.99731e-05,1.8616e-05,-2.48664e-05
32,-5.70006e-07,-2.29189e-05,7.27736e-05,4.79434e-05,2.25107e-05,-2.65162e-05
33,-1.84167e-06,-2.67571e-05,6.98611e-05,4.92122e-05,2.3661e-05,-2.71269e-05
34,-2.80733e-06,-5.48123e-06,5.59404e-05,4.38276e-05,2.01954e-05,-2.47898e-05
35,-4.74656e-06,1.82066e-05,3.99846e-05,4.02863e-05,1.56644e-05,-1.89338e-05
36,-4.41657e-06,2.43746e-05,3.93009e-05,4.06926e-05,1.22296e-05,-1.50361e-05
37,-8.37728e-07,1.10582e-05,6.18428e-05,4.55522e-05,1.11713e-05,-1.70202e-05
38,3.30992e-06,-8.76439e-06,8.63059e-05,5.23835e-05,1.63045e-05,-2.21564e-05
39,5.46969e-06,-1.30489e-05,8.85821e-05,5.04499e-05,2.22187e-05,-2.60265e-05
40,5.68198e-06,4.38281e-06,7.37579e-05,3.73655e-05,1.87463e-05,-2.68254e-05
41,8.80136e-06,2.41791e-05,5.40679e-05,2.56284e-05,7.78478e-06,-2.45813e-05
42,1.62298e-05,2.97582e-05,3.78091e-05,2.30492e-05,-1.40992e-06,-2.00401e-05
43,2.28384e-05,2.15996e-05,3.83545e-05,2.86645e-05,-4.40254e-06,-1.47928e-05
44,2.82624e-05,3.61832e-06,5.43896e-05,3.83951e-05,1.01113e-06,-1.11723e-05
45,3.38648e-05,-8.7413e-06,6.73479e-05,3.8981e-05,8.82473e-06,-1.06558e-05
46,3.50778e-05,1.45618e-06,6.37995e-05,2.65034e-05,7.12143e-06,-1.31337e-05
47,2.92624e-05,2.30382e-05,5.05426e-05,1.85346e-05,3.09605e-06,-1.5202e-05
48,2.31904e-05,3.0697e-05,4.17547e-05,2.28916e-05,7.98502e-06,-1.48475e-05
49,2.48419e-05,1.73093e-05,3.43443e-05,3.18983e-05,1.504e-05,-1.36326e-05
50,3.18164e-05,-1.06061e-05,2.7322e-05,4.22035e-05,1.54741e-05,-1.1563e-05
51,3.34486e-05,-2.59526e-05,3.37486e-05,4.30059e-05,6.76535e-06,-9.20716e-06
52,2.57695e-05,-8.31468e-06,5.62485e-05,2.85743e-05,-1.91235e-06,-8.93315e-06
53,1.73348e-05,1.06552e-05,7.64561e-05,1.89404e-05,-2.56356e-06,-1.04569e-05
54,1.42449e-05,8.08403e-06,7.90405e-05,1.9589e-05,1.30404e-06,-9.91003e-06
55,1.50718e-05,4.16592e-06,6.20303e-05,2.19668e-05,4.25812e-06,-7.2981e-06
56,1.61051e-05,7.0955e-06,3.96342e-05,2.61964e-05,4.83591e-06,-6.63721e-06
57,1.54922e-05,9.18906e-06,3.62233e-05,3.13671e-05,3.93422e-06,-6.69105e-06
58,1.50079e-05,-5.6958e-07,5.62351e-05,3.86813e-05,2.78916e-06,-5.86442e-06
59,1.56127e-05,-2.14853e-05,7.59505e-05,4.40872e-05,3.95717e-06,-6.09179e-06
60,1.58481e-05,-2.96063e-05,7.54096e-05,3.65746e-05,7.56714e-06,-7.7735e-06
61,1.48967e-05,-1.46903e-05,5.86946e-05,2.32126e-05,9.29667e-06,-7.76511e-06
62,1.36751e-05,1.77192e-06,4.05869e-05,1.81494e-05,6.83415e-06,-5.6767e-06
63,1.175e-05,3.91617e-06,3.80808e-05,2.0758e-05,3.92368e-06,-3.01813e-06
64,9.1808e-06,-8.10336e-06,5.69171e-05,3.03482e-05,5.54171e-06,-2.31565e-06
65,6.11059e-06,-2.74496e-05,7.71735e-05,4.24597e-05,1.25874e-05,-6.27434e-06
66,1.74809e-06,-3.62676e-05,7.90252e-05,4.20271e-05,1.72187e-05,-1.2396e-05
67,-1.88992e-06,-2.38854e-05,6.5799e-05,2.68202e-05,1.39189e-05,-1.60143e-05
68,-3.22424e-06,-5.07528e-06,5.05089e-05,1.38019e-05,1.0161e-05,-1.37235e-05
69,-5.49284e-06,1.32433e-06,5.09235e-05,1.3342e-05,1.09974e-05,-7.81042e-06
70,-1.02461e-05,-8.37515e-06,6.8529e-05,2.40817e-05,9.80946e-06,-4.57658e-06
71,-1.25288e-05,-2.76216e-05,7.88189e-05,3.8819e-05,3.17033e-06,-5.01615e-06
72,-1.04782e-05,-3.78994e-05,6.52944e-05,4.1981e-05,-2.12391e-06,-5.71252e-06
73,-7.35866e-06,-2.45874e-05,4.16953e-05,3.18752e-05,-2.26529e-07,-8.40471e-06
74,-3.23511e-06,-2.61852e-06,3.23976e-05,2.60547e-05,6.57015e-06,-1.51906e-05
75,3.19359e-06,4.35955e-06,3.88128e-05,2.9773e-05,1.65112e-05,-2.12056e-05
76,1.22537e-05,-6.90589e-06,4.08711e-05,3.64727e-05,2.81121e-05,-2.11038e-05
77,1.98227e-05,-2.99923e-05,3.19813e-05,4.63853e-05,3.62178e-05,-1.2063e-05
78,1.9926e-05,-4.34356e-05,2.5952e-05,5.12392e-05,3.63009e-05,4.08309e-06
79,1.47136e-05,-2.58093e-05,3.0451e-05,3.97592e-05,2.89496e-05,1.9809e-05
80,1.02668e-05,-8.57909e-07,3.75539e-05,2.9415e-05,1.69887e-05,2.23655e-05
81,8.78411e-06,5.66464e-06,4.07683e-05,2.92275e-05,4.54745e-06,4.68379e-06
82,1.04868e-05,5.94209e-06,3.65182e-05,2.97284e-05,-5.8815e-07,-2.12176e-05
83,1.29753e-05,7.70016e-06,2.87656e-05,2.99559e-05,2.85454e-06,-4.06275e-05
84,1.24412e-05,6.31013e-06,3.03185e-05,3.09821e-05,6.72756e-06,-4.64124e-05
85,9.53969e-06,-5.79493e-06,4.4043e-05,3.77343e-05,7.03948e-06,-4.07742e-05
86,8.38795e-06,-2.45963e-05,5.64461e-05,4.46826e-05,9.32903e-06,-3.15003e-05
87,1.14291e-05,-2.84993e-05,5.61963e-05,3.88845e-05,1.53017e-05,-2.28488e-05
88,1.68366e-05,-9.82881e-06,4.48507e-05,2.68734e-05,1.95532e-05,-1.54027e-05
89,2.11757e-05,1.15768e-05,3.26298e-05,2.38987e-05,1.86993e-05,-1.0367e-05
90,2.23877e-05,1.8429e-05,3.36453e-05,2.9843e-05,1.37086e-05,-8.27595e-06
91,2.11014e-05,6.67265e-06,4.93877e-05,4.25369e-05,8.76617e-06,-7.38266e-06
92,1.89756e-05,-1.50591e-05,6.24054e-05,5.42918e-05,8.25927e-06,-6.17553e-06
93,1.69378e-05,-2.476e-05,6.28655e-05,4.81428e-05,1.16327e-05,-5.40008e-06
94,1.53541e-05,-1.25413e-05,5.49744e-05,2.64091e-05,1.55952e-05,-5.17646e-06
95,1.57704e-05,6.33199e-06,4.02073e-05,1.16098e-05,1.88362e-05,-4.49667e-06
96,1.74681e-05,1.44619e-05,3.13258e-05,1.30136e-05,2.0646e-05,-5.08763e-06
97,1.5454e-05,5.57014e-06,4.1805e-05,2.2573e-05,1.87741e-05,-7.58747e-06
98,1.00086e-05,-1.85106e-05,5.47659e-05,3.13717e-05,1.61788e-05,-1.02668e-05
99,7.91359e-06,-3.61102e-05,4.90337e-05,2.96275e-05,1.80149e-05,-1.1788e-05
100,9.82624e-06,-2.64681e-05,3.29759e-05,1.70329e-05,2.51949e-05,-9.71045e-06
101,1.25731e-05,-3.37208e-06,2.6973e-05,9.43052e-06,4.11927e-05,-1.09853e-06
102,1.59586e-05,1.04544e-05,3.50253e-05,1.78438e-05,6.08612e-05,9.42381e-06
103,2.02377e-05,7.76078e-06,4.06822e-05,3.64618e-05,6.85255e-05,1.52615e-05
104,2.46393e-05,-1.56394e-05,3.82179e-05,5.4017e-05,5.66216e-05,1.92874e-05
105,2.65921e-05,-3.70379e-05,4.12001e-05,5.5049e-05,3.40155e-05,2.68236e-05
106,2.54827e-05,-2.38883e-05,5.41903e-05,3.87523e-05,1.1577e-05,2.46926e-05
107,2.29334e-05,1.73515e-06,6.55984e-05,3.19374e-05,-9.21567e-06,-2.29165e-06
108,2.15412e-05,1.06551e-05,6.63931e-05,3.87528e-05,-2.7228e-05,-3.93364e-05
109,2.34156e-05,1.2449e-05,5.1981e-05,4.27807e-05,-3.43272e-05,-5.67743e-05
110,2.74327e-05,1.58774e-05,3.44327e-05,4.25939e-05,-2.58599e-05,-4.97782e-05
111,2.92156e-05,1.80162e-05,3.40332e-05,4.39847e-05,-1.1736e-05,-3.34087e-05
112,2.74672e-05,5.28738e-06,4.82192e-05,5.50888e-05,-2.25896e-06,-2.00054e-05
113,2.6703e-05,-1.82936e-05,5.82795e-05,6.66084e-05,2.4281e-06,-1.57922e-05
114,2.99384e-05,-2.5132e-05,5.91959e-05,6.09746e-05,7.53313e-06,-1.73413e-05
115,3.64265e-05,-7.54267e-06,5.52542e-05,4.38127e-05,1.28566e-05,-1.81185e-05
116,4.17076e-05,1.13844e-05,4.58797e-05,3.54317e-05,1.45418e-05,-1.58144e-05
117,4.00759e-05,1.63188e-05,3.91052e-05,3.94888e-05,1.26176e-05,-1.03102e-05
118,3.18713e-05,5.68552e-06,4.4382e-05,4.91232e-05,1.20273e-05,-2.16548e-06
119,2.55874e-05,-1.40391e-05,5.4368e-05,5.8101e-05,1.55169e-05,5.40799e-06
120,2.61078e-05,-2.35993e-05,5.67453e-05,5.94563e-05,1.90875e-05,8.79915e-06
121,2.83048e-05,-1.27299e-05,4.71672e-05,5.31012e-05,1.93051e-05,8.57521e-06
122,2.63592e-05,3.52991e-06,2.78485e-05,4.72528e-05,1.75573e-05,1.02284e-05
123,2.05435e-05,8.05173e-06,1.8314e-05,4.66634e-05,1.60219e-05,1.47091e-05
124,1.61362e-05,-1.11733e-06,3.23257e-05,5.05745e-05,1.62718e-05,1.37167e-05
125,1.6662e-05,-2.1207e-05,5.64364e-05,5.58682e-05,1.89415e-05,-5.40413e-08
126,1.88034e-05,-3.45637e-05,7.18998e-05,5.09916e-05,2.03539e-05,-1.96054e-05
127,1.73358e-05,-2.24148e-05,7.21176e-05,3.55591e-05,2.09435e-05,-2.72847e-05
128,1.34627e-05,1.44128e-06,6.62533e-05,2.49428e-05,2.54267e-05,-1.65398e-05
129,1.12002e-05,1.10218e-05,6.26705e-05,2.39463e-05,3.07743e-05,-5.24655e-07
130,1.2982e-05,2.50393e-06,5.55234e-05,2.6441e-05,3.2532e-05,7.86275e-06
131,1.6031e-05,-2.17063e-05,4.68753e-05,3.34994e-05,3.11676e-05,4.2493e-06
132,1.41939e-05,-4.02638e-05,4.80847e-05,3.62948e-05,2.67678e-05,-1.34264e-05
133,7.25524e-06,-2.58943e-05,5.82733e-05,2.98881e-05,2.15022e-05,-3.65331e-05
134,-1.22494e-06,-1.70033e-06,6.47688e-05,2.73918e-05,2.09222e-05,-4.42663e-05
135,-5.90593e-06,6.31476e-06,6.51058e-05,2.83732e-05,2.64956e-05,-3.0494e-05
136,-4.05311e-06,8.41213e-06,5.76196e-05,2.84931e-05,3.36955e-05,-1.19949e-05
137,9.01377e-07,8.48525e-06,4.48665e-05,2.71906e-05,3.90704e-05,-3.41741e-06
138,2.7447e-06,6.37711e-06,4.30173e-05,2.3586e-05,3.94795e-05,-3.91301e-06
139,1.48527e-06,-2.9391e-06,5.74931e-05,2.91544e-05,3.50278e-05,-4.45585e-06
140,3.11501e-06,-2.17446e-05,7.30815e-05,4.26736e-05,2.86241e-05,-2.49611e-06
141,8.16207e-06,-3.02075e-05,7.50865e-05,4.01165e-05,2.0416e-05,-9.74896e-07
142,1.34671e-05,-1.72517e-05,6.33497e-05,2.20958e-05,8.47421e-06,6.43879e-07
143,1.90733e-05,-7.7781e-07,4.72545e-05,1.18082e-05,-4.32386e-06,4.3082e-06
144,2.5682e-05,4.17098e-06,4.24653e-05,1.63604e-05,-1.15204e-05,7.20789e-06
145,2.8486e-05,-5.11334e-06,5.28684e-05,2.96355e-05,-1.12785e-05,4.76587e-06
146,2.54172e-05,-2.24377e-05,5.8353e-05,4.1264e-05,-8.65315e-06,-2.87213e-06
147,2.08416e-05,-2.94399e-05,4.48643e-05,3.97369e-05,-7.01642e-06,-1.04625e-05
148,1.7819e-05,-1.58436e-05,2.46554e-05,2.80518e-05,-2.17254e-06,-1.24042e-05
149,1.67688e-05,3.7606e-06,1.28113e-05,2.18582e-05,7.47472e-06,-7.21662e-06
150,1.42455e-05,1.09642e-05,2.03295e-05,2.62233e-05,1.59681e-05,8.73067e-07
151,7.20055e-06,2.51476e-06,4.72398e-05,3.62215e-05,1.69767e-05,5.89491e-06
152,1.74483e-06,-1.7364e-05,6.96182e-05,4.74584e-05,1.52008e-05,5.57913e-06
153,4.39207e-07,-2.97564e-05,6.86943e-05,4.98865e-05,1.78252e-05,1.34187e-06
154,-1.4959e-06,-1.73504e-05,5.6006e-05,3.81598e-05,2.15173e-05,-1.51716e-06
155,-4.50921e-06,6.32933e-06,5.06219e-05,2.81025e-05,2.08969e-05,-4.66232e-07
156,-7.2974e-06,1.7404e-05,5.73205e-05,3.19677e-05,1.5143e-05,1.1638e-06
157,-8.85656e-06,1.0915e-05,6.00005e-05,4.46274e-05,8.59402e-06,1.18118e-06
158,-1.02984e-05,-1.31666e-05,5.09973e-05,6.05989e-05,6.10083e-06,-1.76056e-06
159,-1.42732e-05,-3.37786e-05,5.02371e-05,6.61847e-05,6.64818e-06,-5.69017e-06
160,-1.75033e-05,-2.25282e-05,6.49498e-05,5.11264e-05,6.96135e-06,-4.35612e-06
161,-1.53916e-05,-9.92077e-08,7.55536e-05,3.86116e-05,6.62082e-06,5.09214e-07
162,-1.02786e-05,7.21231e-06,7.2509e-05,3.96433e-05,8.20932e-06,3.44739e-06
163,-6.92876e-06,8.23871e-06,5.9741e-05,4.4451e-05,1.27148e-05,3.37608e-06
164,-6.29826e-06,8.3633e-06,4.43685e-05,4.90717e-05,1.75968e-05,1.32936e-06
165,-7.18481e-06,5.45629e-06,3.96725e-05,4.89675e-05,1.83982e-05,-1.15732e-06
166,-7.85479e-06,-5.07272e-06,5.43881e-05,5.00021e-05,1.53853e-05,-4.06979e-06
167,-6.28546e-06,-2.31457e-05,7.64948e-05,5.3856e-05,1.12612e-05,-6.681e-06
168,-2.26595e-06,-2.88156e-05,8.65546e-05,4.91974e-05,6.83242e-06,-8.64453e-06
169,3.05339e-06,-1.35737e-05,7.59272e-05,3.72766e-05,1.08748e-06,-8.36678e-06
170,7.28583e-06,2.82657e-06,5.24669e-05,3.15961e-05,-4.10687e-06,-6.39534e-06
171,8.64542e-06,6.97378e-06,3.79443e-05,3.21394e-05,-4.78815e-06,-7.39421e-06
172,6.7975e-06,-3.09645e-06,4.51416e-05,3.83201e-05,2.04901e-06,-1.14414e-05
173,4.43991e-06,-2.14314e-05,6.0048e-05,4.96778e-05,1.57972e-05,-1.35359e-05
174,5.46166e-06,-2.82804e-05,6.43413e-05,5.30019e-05,2.68815e-05,-1.3173e-05
175,9.24e-06,-1.34931e-05,5.67688e-05,4.25546e-05,2.76515e-05,-1.36783e-05
176,1.18473e-05,5.05979e-06,4.30882e-05,3.25166e-05,2.2066e-05,-1.44984e-05
177,1.17617e-05,8.28572e-06,3.72197e-05,3.34888e-05,1.52689e-05,-1.39136e-05
178,7.83789e-06,-5.17671e-06,4.87044e-05,4.33491e-05,9.90203e-06,-1.33429e-05
179,2.79745e-06,-2.77945e-05,6.52216e-05,5.62531e-05,1.10459e-05,-1.37065e-05
180,2.95346e-06,-4.00883e-05,6.82281e-05,5.7728e-05,1.72963e-05,-1.38681e-05
181,6.7146e-06,-2.84063e-05,6.4135e-05,4.35911e-05,2.08012e-05,-1.45365e-05
182,7.35207e-06,-1.04528e-05,7.01485e-05,3.08272e-05,2.03306e-05,-1.51251e-05
183,3.98892e-06,-5.85413e-06,7.75052e-05,2.93879e-05,2.09243e-05,-1.51978e-05
184,3.65628e-07,-1.21056e-05,6.79281e-05,3.71774e-05,2.31007e-05,-1.57723e-05
185,-2.05956e-06,-2.90592e-05,5.05172e-05,4.89958e-05,2.12296e-05,-1.48305e-05
186,-4.0906e-06,-4.21044e-05,4.94691e-05,4.90341e-05,1.28031e-05,-1.29405e-05
187,-5.2187e-06,-2.6463e-05,6.74861e-05,3.38407e-05,5.77784e-06,-1.17275e-05
188,-4.15985e-06,-6.39812e-06,8.5599e-05,2.49894e-05,7.0443e-06,-1.15483e-05
189,-2.57827e-06,-5.07306e-06,9.0323e-05,2.66581e-05,1.16542e-05,-1.41092e-05
190,-3.43473e-07,-5.50654e-06,7.77471e-05,2.70583e-05,1.26528e-05,-1.74395e-05
191,2.93095e-06,-3.93434e-06,5.98617e-05,2.90648e-05,1.28761e-05,-2.09871e-05
192,5.76515e-06,-4.66068e-06,5.55647e-05,3.30379e-05,1.52604e-05,-2.47153e-05
193,7.65067e-06,-1.49623e-05,6.51353e-05,3.95633e-05,1.64576e-05,-2.61663e-05
194,9.81467e-06,-3.55374e-05,7.18159e-05,4.52236e-05,1.5389e-05,-2.48791e-05
195,1.32355e-05,-4.50133e-05,6.70083e-05,3.77618e-05,1.62498e-05,-2.29497e-05
196,1.71314e-05,-2.98463e-05,5.26828e-05,2.38511e-05,2.00822e-05,-2.00989e-05
197,1.94188e-05,-7.87621e-06,3.55926e-05,1.84314e-05,2.22676e-05,-1.47288e-05
198,1.94499e-05,1.29472e-06,2.88037e-05,2.21992e-05,2.03473e-05,-9.43049e-06
199,1.91966e-05,-7.82471e-06,3.78653e-05,3.22531e-05,1.82381e-05,-8.24008e-06
200,1.96668e-05,-2.73885e-05,5.00935e-05,4.34844e-05,2.06211e-05,-1.23881e-05
201,2.1116e-05,-3.5913e-05,5.31099e-05,4.34732e-05,2.46659e-05,-1.78284e-05
202,2.28744e-05,-2.11905e-05,4.69654e-05,3.10318e-05,2.46337e-05,-1.91722e-05
203,2.43473e-05,2.89233e-07,3.43254e-05,2.03841e-05,1.98832e-05,-1.50307e-05
204,2.57279e-05,7.30533e-06,2.83039e-05,1.98187e-05,1.2465e-05,-8.81076e-06
205,2.56814e-05,-2.032e-06,4.1132e-05,2.83275e-05,7.66549e-06,-5.5501e-06
206,2.55771e-05,-1.88336e-05,5.92453e-05,4.15295e-05,1.14318e-05,-7.70254e-06
207,2.65122e-05,-2.59755e-05,6.25368e-05,4.48787e-05,1.73207e-05,-1.12407e-05
208,2.56871e-05,-1.14448e-05,5.48457e-05,3.18345e-05,1.65382e-05,-1.07834e-05
209,2.28421e-05,1.27862e-05,5.09795e-05,2.04022e-05,1.7588e-05,-7.61756e-06
210,1.90145e-05,2.55273e-05,5.33239e-05,2.38096e-05,2.817e-05,-7.88218e-06
211,1.65361e-05,2.07956e-05,5.12938e-05,3.55813e-05,4.01864e-05,-1.25086e-05
212,1.71994e-05,-1.77635e-06,4.28865e-05,4.80373e-05,4.57592e-05,-1.50305e-05
213,1.86935e-05,-2.31754e-05,4.21336e-05,4.99974e-05,4.14404e-05,-1.3154e-05
214,1.86193e-05,-1.72095e-05,5.49335e-05,3.74876e-05,2.68123e-05,-1.35083e-05
215,1.7637e-05,1.44195e-06,6.43217e-05,2.852e-05,7.61788e-06,-1.45124e-05
216,1.52321e-05,1.15744e-05,5.78432e-05,2.74853e-05,-6.74468e-06,-1.00493e-05
217,1.16213e-05,1.61451e-05,3.7858e-05,2.88693e-05,-1.36482e-05,-4.35141e-06
218,1.11938e-05,1.59031e-05,1.96216e-05,3.35615e-05,-1.47118e-05,-2.02806e-06
219,1.5514e-05,1.10069e-05,1.9414e-05,3.73884e-05,-1.06059e-05,-5.22025e-06
220,1.89058e-05,-2.94514e-06,3.42189e-05,4.47767e-05,-8.65249e-07,-9.83489e-06
221,1.54964e-05,-2.32076e-05,4.54854e-05,5.51229e-05,1.23582e-05,-8.04998e-06
222,5.24289e-06,-2.90554e-05,4.61271e-05,5.31467e-05,2.11088e-05,2.30333e-06
223,-4.77502e-06,-1.21555e-05,3.90225e-05,4.07324e-05,2.05489e-05,1.90153e-05
224,-6.41879e-06,7.90104e-06,2.98539e-05,3.46772e-05,1.53471e-05,3.66058e-05
225,-1.03055e-06,1.38378e-05,3.00247e-05,3.72975e-05,1.17601e-05,4.71191e-05
226,2.96918e-06,3.65479e-06,4.02538e-05,4.41924e-05,1.01164e-05,4.15644e-05
227,3.31729e-06,-1.35978e-05,5.02827e-05,5.29126e-05,8.23828e-06,1.8992e-05
228,4.64763e-06,-1.96279e-05,5.45244e-05,5.40967e-05,5.71958e-06,-5.67634e-06
229,6.87176e-06,-6.95267e-06,5.17366e-05,4.35194e-05,4.09364e-06,-1.53135e-05
230,8.08643e-06,1.02041e-05,4.13976e-05,3.35176e-05,4.53087e-06,-8.77198e-06
231,8.43095e-06,1.67218e-05,3.22456e-05,3.42175e-05,6.36032e-06,1.7947e-06
232,5.69289e-06,8.56164e-06,3.27616e-05,4.43975e-05,6.55308e-06,5.75799e-06
233,1.2509e-06,-1.1482e-05,3.88472e-05,5.58332e-05,8.68805e-06,1.84594e-06
234,1.14862e-06,-2.44403e-05,3.92472e-05,5.3549e-05,1.61492e-05,-3.1745e-06
235,4.98387e-06,-1.36383e-05,3.08423e-05,3.88343e-05,2.04161e-05,-3.75654e-06
236,9.07685e-06,9.62398e-06,2.6073e-05,3.15825e-05,1.92153e-05,-1.52815e-06
237,1.20357e-05,2.26378e-05,3.15845e-05,3.78103e-05,1.82323e-05,-6.50001e-07
238,1.5193e-05,1.71864e-05,3.38879e-05,4.94625e-05,2.05251e-05,-3.40949e-06
239,1.96034e-05,-6.72778e-06,3.20578e-05,6.23461e-05,2.6764e-05,-9.14029e-06
240,2.24546e-05,-2.83239e-05,4.18474e-05,6.63175e-05,3.10433e-05,-1.56367e-05
241,2.53639e-05,-2.09881e-05,6.2405e-05,5.33794e-05,3.31703e-05,-1.83449e-05
242,3.0565e-05,-1.40653e-06,7.15676e-05,4.18337e-05,3.72783e-05,-1.65253e-05
243,3.31659e-05,9.70774e-06,6.44892e-05,4.14612e-05,4.22246e-05,-1.41531e-05
244,3.09661e-05,1.41623e-05,4.91132e-05,4.40779e-05,4.63229e-05,-1.28158e-05
245,2.58494e-05,1.29223e-05,3.48514e-05,4.59226e-05,4.85337e-05,-1.30713e-05
246,1.99072e-05,8.61749e-06,3.35542e-05,4.35878e-05,4.31865e-05,-1.42683e-05
247,1.56931e-05,-6.41665e-06,4.36311e-05,4.46603e-05,2.33231e-05,-1.41709e-05
248,1.46788e-05,-3.15747e-05,5.00501e-05,5.16268e-05,-7.13156e-06,-1.19433e-05
249,1.55274e-05,-4.16464e-05,4.52475e-05,5.07726e-05,-3.05871e-05,-7.85307e-06
250,1.71668e-05,-2.31736e-05,3.05319e-05,4.20601e-05,-3.24371e-05,-3.14353e-06
251,2.08642e-05,1.6572e-06,1.14256e-05,3.91909e-05,-1.84681e-05,-1.56238e-06
252,2.5421e-05,9.83041e-06,7.75639e-06,4.22725e-05,-6.86636e-06,-3.80072e-06
253,2.7841e-05,-3.06051e-06,2.99255e-05,4.6342e-05,-5.07754e-06,-6.81814e-06
254,2.79929e-05,-2.40809e-05,5.74587e-05,4.97488e-05,-4.86022e-06,-9.04614e-06
255,2.65511e-05,-2.9492e-05,6.92606e-05,4.67214e-05,1.01444e-06,-1.12569e-05
256,2.38754e-05,-1.06657e-05,6.71981e-05,3.70925e-05,1.09889e-05,-1.26694e-05
257,2.21555e-05,1.31812e-05,5.75658e-05,2.97934e-05,1.87655e-05,-1.24732e-05
258,2.3252e-05,2.06577e-05,5.17379e-05,2.78384e-05,2.10775e-05,-1.26103e-05
259,2.42454e-05,8.88163e-06,5.95738e-05,3.15662e-05,1.98353e-05,-1.33046e-05
260,2.16846e-05,-1.38967e-05,7.15888e-05,4.20878e-05,1.87602e-05,-1.40807e-05
261,1.85317e-05,-2.60864e-05,7.30313e-05,4.51799e-05,1.69929e-05,-1.56757e-05
262,1.66756e-05,-1.32267e-05,6.54862e-05,3.27722e-05,1.41881e-05,-1.67569e-05
263,1.56616e-05,8.34662e-06,6.27199e-05,2.14227e-05,1.23322e-05,-1.6347e-05
264,1.76487e-05,1.56206e-05,6.95466e-05,2.16063e-05,9.94559e-06,-1.62404e-05
265,2.33036e-05,4.97086e-06,7.24823e-05,2.92703e-05,8.07887e-06,-1.55475e-05
266,2.48176e-05,-2.16778e-05,6.39919e-05,4.24463e-05,7.57725e-06,-1.42671e-05
267,1.56536e-05,-4.14013e-05,5.76362e-05,4.77522e-05,5.41137e-06,-1.31715e-05
268,4.69856e-06,-2.64699e-05,6.42199e-05,3.45426e-05,2.72621e-06,-1.18381e-05
269,2.39901e-06,-1.28195e-06,7.29304e-05,2.32283e-05,4.78717e-06,-1.29733e-05
270,8.34685e-06,8.30862e-06,7.46051e-05,2.29965e-05,1.15597e-05,-1.59171e-05
271,1.81215e-05,1.01127e-05,6.49908e-05,2.44855e-05,1.665e-05,-1.46776e-05
272,2.53448e-05,8.13548e-06,4.79766e-05,2.59731e-05,1.69468e-05,-9.65825e-06
273,2.40664e-05,5.04488e-06,4.1e-05,2.66877e-05,1.41706e-05,-7.92098e-06
274,1.67953e-05,-6.77769e-06,5.32185e-05,3.16202e-05,1.2739e-05,-9.27948e-06
275,1.03642e-05,-2.91128e-05,7.13171e-05,3.61572e-05,1.45286e-05,-9.18018e-06
276,7.5232e-06,-3.79574e-05,8.04584e-05,2.83022e-05,1.62089e-05,-7.51329e-06
277,9.76081e-06,-2.07825e-05,7.68479e-05,1.44398e-05,1.55874e-05,-7.86014e-06
278,1.67573e-05,4.62896e-08,6.21165e-05,8.00765e-06,1.46765e-05,-8.98801e-06
279,2.38308e-05,3.64315e-06,4.95698e-05,1.05915e-05,1.46706e-05,-7.05705e-06
280,2.73175e-05,-1.16171e-05,5.20703e-05,2.13103e-05,1.36811e-05,-4.97637e-06
281,2.82247e-05,-3.40511e-05,6.55792e-05,3.61748e-05,1.25978e-05,-8.27438e-06
282,2.67635e-05,-4.20521e-05,7.63796e-05,4.20892e-05,1.39936e-05,-1.75854e-05
283,2.16197e-05,-2.61586e-05,7.29204e-05,3.38925e-05,1.60318e-05,-2.83628e-05
284,1.70782e-05,-4.27655e-06,5.44815e-05,2.32994e-05,1.51041e-05,-3.60609e-05
285,1.64398e-05,3.30096e-06,4.14933e-05,2.26987e-05,1.40377e-05,-3.58884e-05
286,1.47355e-05,-5.09987e-06,4.84609e-05,3.43611e-05,1.96267e-05,-2.2708e-05
287,1.12652e-05,-2.27529e-05,6.0187e-05,5.07252e-05,3.06397e-05,4.81084e-06
288,1.12634e-05,-3.11734e-05,6.21038e-05,5.63855e-05,3.20246e-05,4.04366e-05
289,1.36409e-05,-1.56488e-05,6.14224e-05,4.77797e-05,2.16999e-05,6.86328e-05
290,1.30777e-05,7.24524e-06,6.15249e-05,3.70026e-05,2.19604e-05,7.16675e-05
291,1.01455e-05,1.37389e-05,5.77511e-05,3.1873e-05,3.60364e-05,4.45752e-05
292,8.81881e-06,2.96219e-06,4.68196e-05,3.62363e-05,4.76777e-05,-1.20632e-06
293,9.02295e-06,-2.09302e-05,3.49175e-05,5.12946e-05,4.92615e-05,-4.52862e-05
294,8.95423e-06,-3.92204e-05,3.64599e-05,5.97393e-05,4.04475e-05,-6.85133e-05
295,8.35692e-06,-2.62928e-05,5.23642e-05,4.94519e-05,2.96743e-05,-6.56569e-05
296,9.58061e-06,-3.67146e-06,6.61056e-05,3.6276e-05,2.49468e-05,-5.0276e-05
297,1.23676e-05,1.31855e-06,6.9142e-05,3.02309e-05,2.5157e-05,-3.43563e-05
298,1.48816e-05,3.1786e-07,6.29593e-05,2.9996e-05,2.56135e-05,-2.24302e-05
299,1.62877e-05,3.17029e-06,5.39715e-05,3.51571e-05,2.32559e-05,-1.75786e-05
300,1.57327e-05,9.30292e-06,5.34568e-05,3.77882e-05,1.81858e-05,-1.60975e-05
301,1.38446e-05,5.40195e-06,6.34234e-05,3.72181e-05,1.57044e-05,-1.35692e-05
302,1.26011e-05,-1.37916e-05,7.1698e-05,3.64754e-05,2.03251e-05,-1.02564e-05
303,1.27094e-05,-2.28173e-05,6.8922e-05,3.05476e-05,2.81776e-05,-7.77958e-06
304,1.32874e-05,-7.52994e-06,5.39551e-05,2.4418e-05,3.20128e-05,-5.39891e-06
305,1.41714e-05,1.14265e-05,3.48858e-05,2.71131e-05,3.09801e-05,-4.07265e-06
306,1.49838e-05,1.62645e-05,3.11704e-05,3.50567e-05,2.80383e-05,-6.12117e-06
307,1.38383e-05,2.69706e-06,4.67526e-05,4.47119e-05,2.42286e-05,-9.20102e-06
308,1.03463e-05,-2.04476e-05,5.87404e-05,5.14124e-05,1.86894e-05,-8.768e-06
309,6.79961e-06,-2.85404e-05,5.31864e-05,4.50187e-05,8.39355e-06,-4.30489e-06
310,5.94601e-06,-1.12676e-05,4.15673e-05,2.9468e-05,-4.74725e-06,5.94554e-07
311,1.04025e-05,1.09088e-05,3.27876e-05,2.18337e-05,-1.17557e-05,2.86906e-06
312,1.75262e-05,1.63738e-05,3.3233e-05,2.66109e-05,-1.02538e-05,2.84945e-06
313,2.06264e-05,4.73386e-06,4.67308e-05,3.81057e-05,-7.34799e-06,1.70648e-06
314,1.88448e-05,-1.46426e-05,5.86426e-05,5.09213e-05,-1.41032e-06,-3.57518e-07
315,1.69664e-05,-2.48188e-05,5.59782e-05,5.16512e-05,1.24965e-05,-3.62172e-06
316,1.76641e-05,-1.37389e-05,4.72808e-05,3.62965e-05,2.59983e-05,-7.19894e-06
317,1.88245e-05,5.52245e-06,4.63022e-05,2.33224e-05,2.90607e-05,-9.60076e-06
318,1.76762e-05,1.26809e-05,4.87382e-05,2.50566e-05,2.24075e-05,-1.18716e-05
319,1.48075e-05,5.02532e-06,4.00086e-05,3.78672e-05,1.51091e-05,-1.32275e-05
320,1.09573e-05,-1.59512e-05,2.56515e-05,5.46085e-05,1.26009e-05,-1.04913e-05
321,6.32404e-06,-3.04573e-05,2.39869e-05,5.9143e-05,1.00877e-05,-6.80425e-06
322,3.34994e-06,-1.45827e-05,3.47469e-05,4.59422e-05,5.72202e-06,-5.00827e-06
323,4.89561e-06,7.8635e-06,3.98741e-05,3.54068e-05,3.08012e-06,-1.62985e-06
324,7.72116e-06,1.44105e-05,3.71869e-05,3.38812e-05,3.02131e-06,2.93304e-06
325,8.86867e-06,1.6431e-05,3.07582e-05,3.42876e-05,6.56128e-06,3.0368e-06
326,1.05784e-05,1.76172e-05,2.42793e-05,3.55462e-05,1.44417e-05,5.48794e-07
327,1.3154e-05,1.58169e-05,2.85611e-05,3.43861e-05,2.05222e-05,2.93509e-06
328,1.41182e-05,4.14238e-06,4.71422e-05,3.81764e-05,2.03404e-05,9.20977e-06
329,1.29445e-05,-1.60437e-05,6.51248e-05,4.79587e-05,1.89332e-05,1.44047e-05
330,1.15208e-05,-2.12348e-05,6.49839e-05,4.523e-05,2.13166e-05,2.05625e-05
331,1.12203e-05,-2.11165e-06,4.55435e-05,3.01657e-05,2.39655e-05,2.6065e-05
332,1.32301e-05,1.86135e-05,2.34249e-05,2.20775e-05,2.11441e-05,1.54882e-05
333,1.62176e-05,2.25555e-05,2.07213e-05,2.382e-05,1.32061e-05,-1.55777e-05
334,1.70723e-05,8.73738e-06,3.60726e-05,2.9536e-05,6.4006e-06,-4.61754e-05
335,1.6825e-05,-1.3173e-05,4.81651e-05,3.51885e-05,5.51607e-06,-5.56102e-05
336,1.97432e-05,-2.36712e-05,5.1227e-05,3.35825e-05,6.10922e-06,-4.58423e-05
337,2.51274e-05,-1.26833e-05,4.96233e-05,2.34904e-05,2.24799e-06,-3.15277e-05
338,2.7625e-05,4.92655e-06,3.66931e-05,1.53611e-05,-3.09468e-06,-2.16548e-05
339,2.49499e-05,1.0782e-05,2.32557e-05,1.60005e-05,-4.96113e-06,-1.78793e-05
340,1.85467e-05,2.01339e-06,2.73581e-05,2.50094e-05,-2.41386e-06,-1.96268e-05
341,1.3155e-05,-1.67998e-05,4.17732e-05,3.95123e-05,3.04979e-06,-2.48069e-05
342,1.32864e-05,-2.82237e-05,5.32675e-05,4.46607e-05,6.23991e-06,-2.87103e-05
343,1.74933e-05,-1.72501e-05,5.85956e-05,3.34697e-05,4.90893e-06,-2.78279e-05
344,2.02946e-05,1.08988e-06,5.78872e-05,2.49269e-05,8.76015e-06,-2.27109e-05
345,2.02942e-05,4.84148e-06,5.44314e-05,3.06747e-05,1.98825e-05,-1.74786e-05
346,2.27794e-05,-5.57616e-06,5.00955e-05,4.33518e-05,2.53306e-05,-1.54661e-05
347,2.64368e-05,-2.46645e-05,4.74078e-05,5.73251e-05,1.80502e-05,-1.6166e-05
348,2.45707e-05,-3.62549e-05,5.20163e-05,5.76067e-05,2.18422e-06,-1.81229e-05
349,1.80716e-05,-1.76709e-05,6.19905e-05,4.01753e-05,-7.74886e-06,-1.60013e-05
350,1.17598e-05,8.09434e-06,6.82686e-05,2.92296e-05,-5.71012e-06,-8.75396e-06
351,7.01775e-06,1.27658e-05,6.67674e-05,2.89792e-05,8.68451e-07,-4.64205e-06
352,4.6067e-06,7.66333e-06,5.38846e-05,2.95807e-05,6.29071e-06,-5.33482e-06
353,3.71403e-06,3.35154e-06,3.68799e-05,3.24699e-05,8.79846e-06,-5.08961e-06
354,1.94867e-06,1.06467e-06,3.39936e-05,3.76173e-05,7.19559e-06,-1.98392e-06
355,2.82461e-07,-9.76194e-06,4.8343e-05,4.53736e-05,3.76247e-06,7.27605e-07
356,4.04032e-07,-3.19754e-05,6.11597e-05,5.15355e-05,3.87087e-06,1.45384e-07
357,1.03731e-06,-4.18014e-05,5.96438e-05,4.6547e-05,8.35503e-06,-2.70819e-06
358,1.17799e-06,-2.63939e-05,4.75038e-05,3.38754e-05,1.21479e-05,-4.62747e-06
359,1.24875e-06,-6.08578e-06,3.55326e-05,2.75977e-05,9.86957e-06,-5.47423e-06
360,1.23926e-06,2.25683e-06,3.66353e-05,3.22749e-05,2.54728e-06,-6.15791e-06
361,-2.86992e-07,-4.48701e-06,5.4407e-05,4.66247e-05,-3.46791e-06,-6.17751e-06
362,-4.28505e-06,-2.01278e-05,7.44838e-05,6.09248e-05,-2.39428e-06,-6.2118e-06
363,-7.0957e-06,-2.54359e-05,8.06309e-05,5.84678e-05,4.29781e-06,-6.7471e-06
364,-4.77061e-06,-1.06547e-05,7.2846e-05,4.12183e-05,9.69475e-06,-6.58995e-06
365,-5.18953e-07,8.20616e-06,5.94391e-05,3.00841e-05,1.0581e-05,-5.90541e-06
366,4.23067e-07,1.36821e-05,5.36469e-05,3.36442e-05,8.32964e-06,-7.09041e-06
367,-1.59719e-06,4.19182e-06,6.30726e-05,4.45997e-05,6.20657e-06,-9.39171e-06
368,-2.78599e-06,-1.54114e-05,7.84499e-05,5.57029e-05,1.17716e-05,-9.22461e-06
369,-4.55764e-07,-2.60634e-05,8.34036e-05,5.57353e-05,2.18873e-05,-8.16295e-06
370,1.64117e-06,-1.05805e-05,7.48511e-05,4.15054e-05,2.64117e-05,-9.70416e-06
371,6.86608e-07,1.50592e-05,6.77548e-05,2.99426e-05,2.83204e-05,-9.80252e-06
372,8.27939e-07,2.37749e-05,6.59292e-05,3.28367e-05,3.03575e-05,-4.92551e-06
373,4.70665e-06,1.33379e-05,5.69658e-05,4.71717e-05,3.01361e-05,5.42063e-06
374,1.06657e-05,-1.03044e-05,4.55326e-05,6.47474e-05,2.59021e-05,1.9312e-05
375,1.44558e-05,-2.54627e-05,4.96087e-05,6.54051e-05,1.68488e-05,2.84217e-05
376,1.33617e-05,-9.18099e-06,6.96475e-05,4.513e-05,7.87849e-06,2.04029e-05
377,1.04702e-05,1.23421e-05,8.15252e-05,2.95033e-05,3.97597e-06,-6.10224e-06
378,8.18598e-06,1.51867e-05,7.71737e-05,2.35995e-05,5.06126e-06,-3.09423e-05
379,8.9457e-06,1.39151e-05,6.00508e-05,1.9145e-05,9.90005e-06,-3.78727e-05
380,1.25373e-05,1.61406e-05,3.9664e-05,2.05033e-05,1.86773e-05,-2.86172e-05
381,1.32146e-05,1.71065e-05,3.42707e-05,2.65608e-05,2.79609e-05,-1.4731e-05
382,7.72715e-06,3.83648e-06,4.6285e-05,3.51389e-05,3.39676e-05,-7.43102e-06
383,2.62317e-07,-2.29377e-05,5.61807e-05,4.1874e-05,3.67781e-05,-8.08115e-06
384,-3.28217e-06,-3.22886e-05,5.10265e-05,3.63656e-05,3.72251e-05,-9.50725e-06
385,-2.13081e-06,-1.12963e-05,3.90764e-05,2.39034e-05,3.09847e-05,-7.57122e-06
386,9.08911e-07,1.19473e-05,3.13726e-05,2.04788e-05,1.16248e-05,-3.89246e-06
387,2.77151e-06,1.71101e-05,3.65715e-05,2.57666e-05,-1.72813e-05,-9.4832e-07
388,1.75609e-06,5.58363e-06,5.47728e-05,3.4341e-05,-3.82622e-05,-1.15011e-06
389,7.15844e-07,-1.52479e-05,7.28006e-05,4.29573e-05,-3.54574e-05,-3.28843e-06
390,3.21658e-06,-2.64446e-05,7.64074e-05,4.17079e-05,-1.41881e-05,-4.75181e-06
391,5.7793e-06,-1.35968e-05,6.71515e-05,2.82206e-05,7.04888e-06,-7.97653e-06
392,4.89625e-06,8.82143e-06,5.24812e-05,1.80374e-05,1.71789e-05,-1.82772e-05
393,2.10225e-06,1.73619e-05,4.34562e-05,2.15159e-05,1.65547e-05,-3.16676e-05
394,1.81564e-07,6.19031e-06,4.9387e-05,3.4717e-05,1.16136e-05,-3.5806e-05
395,5.90267e-07,-1.79594e-05,5.95031e-05,5.07633e-05,1.19809e-05,-2.20679e-05
396,5.44191e-06,-3.57916e-05,5.90757e-05,5.53376e-05,1.94006e-05,4.39001e-06
397,1.21673e-05,-3.00775e-05,5.3768e-05,4.28521e-05,2.50385e-05,2.65155e-05
398,1.46056e-05,-1.2172e-05,5.24869e-05,2.93002e-05,2.45148e-05,2.96145e-05
399,1.11048e-05,-4.07842e-06,5.27615e-05,2.61375e-05,2.19357e-05,1.24647e-05
400,5.63248e-06,-1.26187e-05,4.3426e-05,3.08166e-05,2.04284e-05,-1.25816e-05
401,2.35531e-06,-3.86055e-05,2.72665e-05,4.05886e-05,1.92165e-05,-2.80479e-05
402,6.4187e-07,-5.89089e-05,2.40603e-05,4.45622e-05,1.59556e-05,-2.71883e-05
403,-7.46865e-07,-4.28948e-05,3.553e-05,3.42517e-05,1.46542e-05,-1.79783e-05
404,-1.03167e-06,-1.44117e-05,4.63794e-05,2.62069e-05,1.69907e-05,-1.04724e-05
405,1.07999e-06,-3.82479e-06,5.41145e-05,2.92061e-05,1.89982e-05,-6.52437e-06
406,4.98328e-06,-3.10966e-06,5.61748e-05,3.51354e-05,2.12514e-05,-4.76534e-06
407,8.19889e-06,-2.98776e-06,5.14758e-05,3.88219e-05,2.35102e-05,-5.33324e-06
408,6.92564e-06,-1.17881e-06,5.51805e-05,3.84942e-05,2.18963e-05,-7.21731e-06
409,7.48455e-07,-8.91685e-06,7.12812e-05,4.27777e-05,1.8964e-05,-8.71271e-06
410,-2.52695e-06,-2.99151e-05,8.08707e-05,5.11883e-05,2.05225e-05,-8.5993e-06
411,2.43511e-06,-4.06159e-05,7.36094e-05,4.81726e-05,2.45589e-05,-9.43649e-06
412,1.06673e-05,-2.57565e-05,5.5987e-05,3.64854e-05,2.4834e-05,-1.22283e-05
413,1.38294e-05,-3.95513e-06,3.87487e-05,3.16076e-05,2.00877e-05,-1.5998e-05
414,1.09806e-05,6.29076e-06,3.54549e-05,3.45347e-05,1.38644e-05,-1.70643e-05
415,7.9207e-06,-9.90091e-07,4.88701e-05,4.21861e-05,9.94592e-06,-1.47159e-05
416,7.67424e-06,-2.19048e-05,5.97911e-05,5.0695e-05,1.32426e-05,-1.37516e-05
417,8.80164e-06,-3.41858e-05,5.50945e-05,4.80361e-05,2.1672e-05,-1.41764e-05
418,1.14904e-05,-2.1614e-05,4.36405e-05,3.21958e-05,2.47609e-05,-1.23174e-05
419,1.41164e-05,2.07704e-06,3.51838e-05,1.98055e-05,1.62517e-05,-9.26633e-06
420,1.41761e-05,1.4556e-05,4.1947e-05,2.1214e-05,2.42942e-06,-8.37084e-06
421,1.46924e-05,8.40442e-06,6.39922e-05,3.16536e-05,-3.70234e-06,-8.95395e-06
422,1.93845e-05,-1.32853e-05,7.85132e-05,4.49073e-05,1.73792e-06,-8.59098e-06
423,2.47023e-05,-2.9548e-05,7.21217e-05,4.94345e-05,1.04997e-05,-8.89675e-06
424,2.34862e-05,-1.92736e-05,5.48719e-05,3.83988e-05,1.62086e-05,-1.24068e-05
425,1.6929e-05,5.0815e-06,4.43253e-05,2.65692e-05,2.28991e-05,-1.54388e-05
426,1.07255e-05,1.49988e-05,4.56487e-05,2.65058e-05,3.15564e-05,-1.51469e-05
427,8.95902e-06,2.76006e-06,4.15382e-05,3.54708e-05,3.70982e-05,-1.23197e-05
428,1.16249e-05,-2.71048e-05,2.45143e-05,4.63502e-05,3.86249e-05,-8.64597e-06
429,1.60597e-05,-4.88508e-05,1.43803e-05,4.46415e-05,3.6982e-05,-5.70634e-06
430,1.82001e-05,-3.37145e-05,2.63507e-05,2.92752e-05,3.53893e-05,-5.21545e-06
431,1.72472e-05,-6.9308e-06,4.77615e-05,2.23978e-05,3.48919e-05,-6.06651e-06
432,1.59723e-05,1.95421e-06,6.07698e-05,2.50424e-05,3.37884e-05,-5.71223e-06
433,1.52089e-05,1.31659e-06,5.52835e-05,2.61887e-05,2.80298e-05,-2.69126e-07
434,1.49397e-05,1.99311e-07,3.67942e-05,2.83478e-05,1.57958e-05,1.43158e-05
435,1.49334e-05,-6.25084e-07,2.7964e-05,3.19712e-05,1.94979e-06,2.89141e-05
436,1.4785e-05,-9.87109e-06,3.7155e-05,4.10552e-05,-5.12518e-06,2.72974e-05
437,1.41897e-05,-2.8442e-05,4.57535e-05,5.20781e-05,-4.83899e-07,7.13905e-06
438,1.381e-05,-3.51357e-05,4.31317e-05,4.99006e-05,1.02787e-05,-1.80062e-05
439,1.5429e-05,-2.046e-05,3.62786e-05,3.70827e-05,1.94173e-05,-3.74615e-05
440,1.98564e-05,-4.60413e-06,2.86379e-05,2.8213e-05,2.48066e-05,-4.86717e-05
441,2.302e-05,-2.26169e-06,2.77806e-05,2.78116e-05,2.63711e-05,-4.6549e-05
442,2.12489e-05,-1.42111e-05,3.85504e-05,3.57116e-05,2.25115e-05,-3.03326e-05
443,1.72653e-05,-3.28165e-05,4.81739e-05,4.57717e-05,1.64668e-05,-9.61736e-06
444,1.47767e-05,-3.98307e-05,4.77124e-05,4.39359e-05,1.46679e-05,4.89659e-06
445,1.47887e-05,-2.54829e-05,4.17528e-05,3.0012e-05,1.79084e-05,9.38742e-06
446,1.64568e-05,-4.30763e-06,3.14322e-05,2.207e-05,2.10069e-05,5.04796e-06
447,1.78963e-05,4.5687e-06,2.5912e-05,2.83655e-05,1.93393e-05,-5.75501e-06
448,1.68345e-05,-2.60003e-06,3.59056e-05,4.06124e-05,1.28079e-05,-2.10287e-05
449,1.44539e-05,-1.92779e-05,5.16333e-05,5.02711e-05,7.51757e-06,-3.74813e-05
450,1.69965e-05,-2.7399e-05,5.8233e-05,4.97426e-05,6.01388e-06,-4.94358e-05
451,2.31514e-05,-1.30085e-05,5.47308e-05,3.74299e-05,8.53334e-06,-5.38241e-05
452,2.48824e-05,9.06048e-06,5.18366e-05,2.5874e-05,1.38036e-05,-5.06624e-05
453,2.06406e-05,1.69213e-05,5.13215e-05,2.47211e-05,1.31295e-05,-4.15763e-05
454,1.66287e-05,8.87166e-06,4.18914e-05,3.46809e-05,3.57545e-06,-3.07288e-05
455,1.75346e-05,-1.18437e-05,2.89644e-05,5.32354e-05,-9.43924e-06,-2.31016e-05
456,2.00088e-05,-2.84094e-05,3.24955e-05,6.25298e-05,-1.82107e-05,-2.21253e-05
457,1.91896e-05,-1.92869e-05,5.49364e-05,4.87109e-05,-1.83901e-05,-2.42659e-05
458,1.60281e-05,-9.97868e-07,7.60571e-05,3.46543e-05,-7.8951e-06,-2.59799e-05
459,1.4611e-05,4.40799e-06,8.12931e-05,3.4556e-05,1.30069e-05,-2.72157e-05
460,1.73827e-05,1.35133e-06,7.19825e-05,3.46772e-05,3.45458e-05,-2.31208e-05
461,2.20721e-05,-4.50408e-06,5.98021e-05,3.11735e-05,4.06064e-05,-1.49825e-05
462,2.26562e-05,-8.7391e-06,5.70025e-05,3.08912e-05,2.73114e-05,-9.58507e-06
463,1.82336e-05,-1.86891e-05,6.3076e-05,4.15036e-05,1.05536e-05,-9.56358e-06
464,1.38712e-05,-3.87435e-05,6.68254e-05,5.37103e-05,5.59517e-06,-1.148e-05
465,1.44032e-05,-4.70626e-05,6.4581e-05,4.99004e-05,1.20027e-05,-1.17963e-05
466,1.94112e-05,-2.82928e-05,5.90557e-05,3.72644e-05,1.9868e-05,-1.09202e-05
467,2.43548e-05,-2.761e-06,5.23189e-05,3.51906e-05,2.22074e-05,-9.66569e-06
468,2.43611e-05,7.85002e-06,5.21553e-05,4.17737e-05,1.66688e-05,-9.51102e-06
469,1.99657e-05,3.15316e-07,6.37613e-05,4.97821e-05,8.30165e-06,-1.13423e-05
470,1.72748e-05,-1.51433e-05,7.42758e-05,5.55878e-05,6.50791e-06,-1.23185e-05
471,1.90161e-05,-1.95854e-05,6.8545e-05,5.02632e-05,1.14283e-05,-9.13842e-06
472,2.23609e-05,-5.19636e-06,5.09798e-05,3.54203e-05,1.5859e-05,-4.76577e-06
473,2.48155e-05,1.30947e-05,3.33993e-05,2.62148e-05,1.78484e-05,-4.80786e-06
474,2.56479e-05,1.92048e-05,2.92761e-05,2.85397e-05,1.92096e-05,-7.39648e-06
475,2.45053e-05,1.17561e-05,4.3192e-05,3.63789e-05,2.03041e-05,-7.06445e-06
476,2.25798e-05,-7.07006e-06,5.56108e-05,4.40992e-05,2.28993e-05,-4.95189e-06
477,2.31844e-05,-2.30557e-05,5.14168e-05,4.10848e-05,2.61154e-05,-4.16227e-06
478,2.67629e-05,-1.83558e-05,4.13036e-05,2.78667e-05,2.2953e-05,-1.67743e-06
479,2.66656e-05,3.67946e-07,3.92954e-05,2.13946e-05,1.45063e-05,7.00578e-06
480,1.9915e-05,1.28898e-05,4.25463e-05,2.50661e-05,9.3622e-06,1.81772e-05
481,1.22302e-05,1.05483e-05,3.71236e-05,3.28905e-05,8.23862e-06,2.54846e-05
482,7.16469e-06,-9.97065e-06,2.86647e-05,4.55767e-05,7.22341e-06,3.20326e-05
483,3.83473e-06,-2.67917e-05,3.50668e-05,5.13227e-05,5.05878e-06,3.79141e-05
484,4.61362e-06,-1.06176e-05,5.43151e-05,4.23899e-05,7.18993e-06,2.70518e-05
485,1.01624e-05,1.33666e-05,6.76454e-05,3.41421e-05,1.42843e-05,-5.00452e-06
486,1.64325e-05,1.69978e-05,6.94311e-05,3.10452e-05,1.88601e-05,-3.54514e-05
487,2.07698e-05,1.60776e-05,6.06709e-05,2.78516e-05,1.87456e-05,-4.08926e-05
488,2.43283e-05,1.92144e-05,4.64393e-05,2.50321e-05,1.69479e-05,-2.33653e-05
489,2.91114e-05,2.13016e-05,4.32398e-05,2.30313e-05,1.37951e-05,-3.05012e-06
490,3.35234e-05,1.0197e-05,5.56789e-05,2.70474e-05,9.50405e-06,8.01489e-06
491,3.32479e-05,-1.39995e-05,6.72452e-05,3.26301e-05,9.03678e-06,1.17476e-05
492,2.77206e-05,-2.32307e-05,6.61065e-05,2.86754e-05,1.39067e-05,1.13949e-05
493,2.27525e-05,-5.37181e-06,5.49293e-05,2.21587e-05,1.8481e-05,1.07848e-05
494,2.15582e-05,1.53419e-05,4.20742e-05,2.49175e-05,1.93598e-05,1.2556e-05
495,2.06195e-05,2.00963e-05,4.19761e-05,3.35472e-05,1.88614e-05,1.30806e-05
496,1.80732e-05,7.30002e-06,5.71518e-05,4.34647e-05,2.1618e-05,1.02317e-05
497,1.56158e-05,-1.48819e-05,6.72935e-05,5.0817e-05,2.93307e-05,7.91543e-06
498,1.33852e-05,-2.50852e-05,5.79008e-05,4.53963e-05,3.38981e-05,7.35588e-06
499,1.22729e-05,-1.29954e-05,3.87574e-05,2.90771e-05,2.50719e-05,4.95972e-06
500,1.36624e-05,3.83728e-06,2.34285e-05,1.75645e-05,4.55818e-06,1.06834e-07
501,1.5668e-05,6.91764e-06,2.20488e-05,1.74131e-05,-1.26837e-05,-5.19696e-06
502,1.40303e-05,-4.50558e-06,3.92967e-05,2.4217e-05,-1.39774e-05,-9.59553e-06
503,1.00955e-05,-2.52219e-05,6.31624e-05,3.3295e-05,-1.37791e-06,-1.22498e-05
504,9.64509e-06,-3.73021e-05,7.37109e-05,3.41534e-05,1.35344e-05,-1.27435e-05
505,1.15193e-05,-2.45376e-05,6.67074e-05,2.49071e-05,1.94258e-05,-1.09995e-05
506,1.31232e-05,-2.02116e-06,5.85085e-05,2.08874e-05,1.74867e-05,-8.87371e-06
507,1.49482e-05,5.16382e-06,5.88755e-05,2.7529e-05,1.43985e-05,-9.702e-06
508,1.65764e-05,-5.94073e-06,5.76237e-05,3.62585e-05,1.11848e-05,-1.0377e-05
509,1.58978e-05,-2.94153e-05,5.0238e-05,4.42036e-05,7.02272e-06,-8.79052e-06
510,1.20008e-05,-4.40301e-05,4.93874e-05,4.33529e-05,2.40054e-06,-9.20818e-06
511,8.1144e-06,-2.94139e-05,5.9037e-05,3.18035e-05,7.52957e-07,-1.16568e-05
512,6.65521e-06,-9.14468e-06,6.29298e-05,2.86454e-05,4.37734e-06,-1.19324e-05
513,6.5689e-06,-2.53372e-06,5.69385e-05,3.33242e-05,1.08007e-05,-1.07581e-05
514,6.73e-06,1.77009e-06,4.31832e-05,3.41545e-05,1.55054e-05,-1.01385e-05
515,6.64291e-06,7.50704e-06,2.76648e-05,3.35035e-05,1.74034e-05,-9.16251e-06
516,4.11719e-06,1.11813e-05,2.72133e-05,3.54988e-05,1.72068e-05,-8.48682e-06
517,-8.15053e-07,1.21263e-06,4.84772e-05,4.42255e-05,1.61965e-05,-8.12366e-06
518,-4.48966e-06,-2.37717e-05,7.44101e-05,5.3762e-05,1.36545e-05,-8.04076e-06
519,-3.9198e-06,-3.62334e-05,8.31524e-05,5.0412e-05,8.69054e-06,-8.68444e-06
520,5.76724e-07,-2.08983e-05,7.10971e-05,3.80335e-05,3.27686e-06,-9.60266e-06
521,5.45695e-06,2.14442e-06,5.29962e-05,3.13112e-05,2.43097e-06,-9.60465e-06
522,6.28814e-06,1.25261e-05,4.86961e-05,3.2528e-05,8.40718e-06,-8.42406e-06
523,1.5712e-06,3.63488e-06,5.9553e-05,3.91911e-05,1.66397e-05,-8.2539e-06
524,-3.83868e-06,-1.57015e-05,6.59717e-05,4.7079e-05,2.52273e-05,-1.06733e-05
525,-4.2006e-06,-2.25469e-05,5.77954e-05,4.49699e-05,3.24715e-05,-1.4227e-05
526,1.25467e-06,-8.87122e-06,4.42365e-05,3.30059e-05,3.30039e-05,-1.55881e-05
527,7.46116e-06,7.16654e-06,3.17212e-05,2.6744e-05,2.63841e-05,-1.45762e-05
528,7.7717e-06,1.10335e-05,3.19413e-05,3.20251e-05,1.7408e-05,-1.3676e-05
529,3.24638e-06,2.13257e-06,5.00698e-05,4.16862e-05,1.22464e-05,-1.32035e-05
530,7.46876e-07,-1.66705e-05,6.48437e-05,5.01785e-05,1.50679e-05,-1.17334e-05
531,2.50489e-06,-2.67958e-05,6.19442e-05,5.07954e-05,2.09167e-05,-1.02582e-05
532,5.26269e-06,-1.0842e-05,5.53961e-05,4.10009e-05,2.10734e-05,-1.11322e-05
533,9.43754e-06,1.55342e-05,5.93723e-05,3.20001e-05,1.28482e-05,-1.75975e-05
534,1.45303e-05,2.67188e-05,6.75218e-05,3.15435e-05,5.32278e-07,-3.19348e-05
535,1.80344e-05,2.0174e-05,6.37627e-05,3.97983e-05,-6.41219e-06,-4.37449e-05
536,2.06168e-05,-3.08288e-06,4.93295e-05,5.46722e-05,-2.04116e-06,-4.07537e-05
537,1.90486e-05,-2.55361e-05,4.46296e-05,6.0858e-05,4.39247e-06,-2.5536e-05
538,1.16634e-05,-1.56451e-05,5.64539e-05,4.95162e-05,2.7179e-06,-9.59748e-07
539,2.98179e-06,6.17252e-06,6.67352e-05,4.14777e-05,-1.37674e-06,2.11938e-05
540,-1.4773e-06,9.3068e-06,6.75031e-05,4.37054e-05,8.44787e-07,2.25702e-05
541,-1.74551e-07,5.98879e-06,5.89192e-05,4.4211e-05,8.02401e-06,5.23398e-06
542,4.14299e-06,5.52131e-06,4.70452e-05,4.31341e-05,1.36703e-05,-1.4202e-05
543,7.09678e-06,6.29206e-06,4.82082e-05,4.36482e-05,1.47491e-05,-2.12161e-05
544,9.42011e-06,-2.89332e-07,6.27017e-05,4.9179e-05,1.50086e-05,-1.64846e-05
545,1.36273e-05,-1.89038e-05,7.23604e-05,5.33996e-05,1.83972e-05,-9.64673e-06
546,1.59212e-05,-2.93818e-05,6.85209e-05,4.45791e-05,2.25221e-05,-7.69153e-06
547,1.23424e-05,-1.66981e-05,5.66471e-05,3.16292e-05,2.40962e-05,-7.83594e-06
548,5.22146e-06,2.11638e-06,4.43787e-05,3.02939e-05,2.49601e-05,-6.84484e-06
549,-6.46475e-07,7.53583e-06,4.27098e-05,3.88519e-05,2.82699e-05,-5.9532e-06
550,-4.27131e-06,-5.35089e-06,5.42355e-05,5.08307e-05,3.44324e-05,-6.46246e-06
551,-5.05077e-06,-2.83242e-05,6.67599e-05,6.06159e-05,4.20941e-05,-9.67993e-06
552,-2.47236e-06,-4.02003e-05,6.86923e-05,5.90966e-05,4.83464e-05,-1.42674e-05
553,2.29522e-06,-2.9007e-05,6.01148e-05,4.73812e-05,5.0653e-05,-1.68671e-05
554,6.87515e-06,-1.00958e-05,4.57011e-05,3.92356e-05,4.75477e-05,-1.59906e-05
555,7.58297e-06,-2.66084e-06,3.82961e-05,4.14405e-05,3.0542e-05,-1.34741e-05
556,3.53009e-06,-1.13643e-05,4.93108e-05,5.17733e-05,-5.24185e-06,-1.20047e-05
557,3.45928e-07,-3.0972e-05,6.50222e-05,6.44516e-05,-3.73842e-05,-1.3356e-05
558,2.98361e-06,-4.08916e-05,6.43785e-05,6.64695e-05,-3.87702e-05,-1.51031e-05
559,8.88783e-06,-2.53552e-05,5.25206e-05,5.38279e-05,-1.65633e-05,-1.27811e-05
560,1.54055e-05,-1.71082e-06,4.92001e-05,4.07911e-05,4.88635e-06,-3.00305e-06
561,2.16092e-05,7.48374e-06,5.86832e-05,3.67136e-05,1.66187e-05,1.29003e-05
562,2.56186e-05,1.78601e-06,6.25544e-05,3.99977e-05,2.01324e-05,2.99343e-05
563,2.73416e-05,-1.96229e-05,5.15179e-05,5.00689e-05,1.96027e-05,3.44605e-05
564,2.39189e-05,-4.14892e-05,4.64987e-05,5.42743e-05,1.82891e-05,1.50404e-05
565,1.61756e-05,-3.2777e-05,5.77656e-05,4.13689e-05,1.76539e-05,-1.7311e-05
566,1.11101e-05,-9.28221e-06,6.68606e-05,2.93453e-05,2.02206e-05,-3.23347e-05
567,1.18888e-05,1.86081e-06,6.8372e-05,2.83265e-05,2.52633e-05,-1.59878e-05
568,1.51854e-05,4.67248e-06,6.5795e-05,3.03351e-05,2.76588e-05,1.17465e-05
569,1.75362e-05,2.80425e-06,6.01297e-05,3.18233e-05,2.50102e-05,2.53548e-05
570,1.80913e-05,-5.36943e-10,5.70406e-05,3.12686e-05,1.92955e-05,1.5017e-05
571,1.59401e-05,-9.26989e-06,6.1671e-05,3.74692e-05,1.37119e-05,-7.96021e-06
572,1.19579e-05,-2.77568e-05,6.85991e-05,4.97504e-05,1.29145e-05,-2.8729e-05
573,9.06443e-06,-3.51075e-05,7.22986e-05,4.99722e-05,1.65637e-05,-3.90035e-05
574,9.93992e-06,-1.84149e-05,7.24748e-05,3.75242e-05,1.90654e-05,-3.19039e-05
575,1.20968e-05,3.74313e-06,7.01233e-05,3.03792e-05,1.79902e-05,-1.2314e-05
576,1.00398e-05,1.39097e-05,7.51168e-05,3.5835e-05,1.532e-05,4.18629e-06
577,2.78555e-06,6.07939e-06,9.25697e-05,4.79967e-05,1.50227e-05,1.22242e-05
578,-4.65078e-06,-1.57449e-05,0.00010737,5.54475e-05,1.72365e-05,1.54591e-05
579,-9.01419e-06,-2.81599e-05,0.000106928,4.75312e-05,1.79081e-05,1.40971e-05
580,-1.01312e-05,-1.40369e-05,9.71626e-05,2.98333e-05,1.83841e-05,5.47957e-06
581,-7.28926e-06,1.23234e-05,8.46327e-05,2.07835e-05,2.05237e-05,-1.10796e-05
582,-2.76094e-06,2.68227e-05,7.88397e-05,2.87313e-05,1.93626e-05,-3.06948e-05
583,-4.47367e-07,2.04986e-05,8.15717e-05,4.60884e-05,1.46752e-05,-4.29749e-05
584,1.66171e-06,-1.75675e-06,8.22308e-05,5.93029e-05,1.35089e-05,-4.28918e-05
585,6.42648e-06,-1.64586e-05,7.66553e-05,5.48926e-05,1.58676e-05,-3.71185e-05
586,9.20304e-06,-4.57014e-06,6.70523e-05,3.61268e-05,1.56925e-05,-3.04116e-05
587,6.47018e-06,1.79787e-05,6.06738e-05,2.3171e-05,1.39314e-05,-2.25906e-05
588,3.06458e-06,2.62766e-05,6.11117e-05,2.33233e-05,1.39301e-05,-1.64707e-05
589,3.05764e-06,1.76877e-05,5.67113e-05,2.76214e-05,1.3823e-05,-1.45548e-05
590,4.99463e-06,-4.82377e-06,4.55786e-05,3.58594e-05,1.17057e-05,-1.58711e-05
591,5.58756e-06,-2.21869e-05,4.00387e-05,4.06622e-05,8.42563e-06,-1.79205e-05
592,4.1197e-06,-1.11099e-05,4.57222e-05,2.96702e-05,7.15122e-06,-1.60012e-05
593,2.99369e-06,1.04453e-05,5.42192e-05,2.28317e-05,9.8416e-06,-1.1347e-05
594,3.77775e-06,1.87914e-05,5.7122e-05,2.6268e-05,1.3033e-05,-8.15498e-06
595,5.82152e-06,1.85636e-05,4.89993e-05,2.6228e-05,1.35911e-05,-7.4135e-06
596,8.00379e-06,1.68946e-05,3.57311e-05,2.68506e-05,1.24477e-05,-9.78828e-06
597,8.50733e-06,1.62509e-05,3.46302e-05,3.1133e-05,8.52678e-06,-1.44092e-05
598,7.49888e-06,7.39616e-06,4.96351e-05,4.03136e-05,3.94024e-06,-1.68213e-05
599,7.69695e-06,-1.21148e-05,6.39028e-05,4.62498e-05,4.26781e-06,-1.50001e-05
600,1.01998e-05,-1.95145e-05,6.3179e-05,3.68456e-05,8.12733e-06,-1.1675e-05
601,1.41575e-05,-2.46547e-06,4.90168e-05,2.20391e-05,1.20626e-05,-7.52322e-06
602,1.78217e-05,1.94459e-05,3.18293e-05,1.70262e-05,1.77878e-05,-3.12645e-06
603,1.93067e-05,2.65062e-05,2.53195e-05,2.00887e-05,2.43527e-05,-2.73425e-06
604,1.80241e-05,1.44866e-05,3.30917e-05,2.96864e-05,2.52655e-05,-7.6839e-06
605,1.71029e-05,-7.97982e-06,4.2051e-05,4.29491e-05,2.14579e-05,-1.33741e-05
606,1.82323e-05,-1.85673e-05,4.15724e-05,4.54989e-05,1.95555e-05,-1.67292e-05
607,1.95363e-05,-5.72104e-06,3.20235e-05,3.53654e-05,2.02657e-05,-1.67771e-05
608,2.06604e-05,1.38188e-05,1.41371e-05,2.87742e-05,2.10927e-05,-1.48837e-05
609,2.19714e-05,2.02991e-05,3.37207e-06,3.22806e-05,1.8611e-05,-1.45701e-05
610,2.13719e-05,1.12142e-05,1.65684e-05,4.17743e-05,1.19357e-05,-1.54852e-05
611,1.92346e-05,-7.90591e-06,3.77251e-05,5.43388e-05,9.51562e-06,-1.38781e-05
612,1.8318e-05,-1.90565e-05,4.45561e-05,5.57444e-05,1.35844e-05,-1.18726e-05
613,1.83863e-05,-8.19663e-06,4.35851e-05,3.81542e-05,1.52994e-05,-1.21678e-05
614,1.98774e-05,1.02968e-05,4.78376e-05,2.04446e-05,1.60971e-05,-1.13771e-05
615,2.32714e-05,1.61765e-05,5.1795e-05,1.82857e-05,2.15446e-05,-8.28351e-06
616,2.67661e-05,6.65523e-06,4.25958e-05,2.63506e-05,2.81901e-05,-7.41067e-06
617,2.94725e-05,-1.64358e-05,2.98174e-05,3.79787e-05,2.96035e-05,-1.03627e-05
618,2.84004e-05,-3.39294e-05,3.27896e-05,4.25824e-05,2.39083e-05,-1.09566e-05
619,2.45132e-05,-2.03245e-05,4.93917e-05,3.23874e-05,1.69849e-05,-5.46778e-06
620,2.18939e-05,3.69764e-06,5.9121e-05,2.38307e-05,1.50841e-05,-1.07652e-06
621,2.22683e-05,1.3839e-05,5.31146e-05,2.42767e-05,1.84402e-05,-3.99911e-06
622,2.52104e-05,1.47015e-05,3.65729e-05,2.44256e-05,2.20369e-05,-1.01813e-05
623,2.68635e-05,1.02581e-05,2.13163e-05,2.52783e-05,2.08492e-05,-1.15397e-05
624,2.34355e-05,7.47291e-06,1.97583e-05,2.73814e-05,1.35902e-05,-7.17454e-06
625,1.66981e-05,-7.42057e-08,3.29761e-05,3.24954e-05,5.86673e-06,-3.35947e-06
626,1.45927e-05,-1.91976e-05,4.70728e-05,4.00188e-05,4.24861e-06,-1.99142e-06
627,1.72298e-05,-2.91166e-05,5.21198e-05,3.74883e-05,7.79885e-06,-2.85498e-06
628,1.87311e-05,-1.50265e-05,4.68018e-05,2.54724e-05,1.1649e-05,-4.52175e-06
629,1.90919e-05,4.52101e-06,3.231e-05,1.86296e-05,1.49089e-05,-6.60623e-06
630,1.99575e-05,1.20299e-05,2.3481e-05,2.1064e-05,1.77223e-05,-8.51552e-06
631,1.77238e-05,4.26481e-06,3.3988e-05,3.10763e-05,1.8152e-05,-6.31698e-06
632,1.16061e-05,-1.39663e-05,5.09325e-05,4.31031e-05,1.26975e-05,-3.03964e-07
633,6.47631e-06,-2.53372e-05,5.34787e-05,4.44994e-05,-3.13822e-06,3.59436e-06
634,8.04829e-06,-1.56498e-05,3.99818e-05,3.42682e-05,-2.42337e-05,4.75982e-06
635,1.61682e-05,3.86924e-06,2.14584e-05,2.63944e-05,-3.44859e-05,7.6089e-06
636,2.06023e-05,1.12075e-05,1.88826e-05,2.91749e-05,-2.6107e-05,1.07439e-05
637,1.52945e-05,-7.76817e-07,3.9822e-05,4.14405e-05,-6.35386e-06,1.03743e-05
638,6.8648e-06,-2.48003e-05,6.02006e-05,5.44316e-05,1.63837e-05,7.57581e-06
639,3.47321e-06,-3.86437e-05,5.82289e-05,5.24026e-05,2.83262e-05,6.22646e-06
640,5.36948e-06,-2.66084e-05,4.23392e-05,3.62931e-05,1.92712e-05,8.39238e-06
641,8.97084e-06,-4.52875e-06,3.34614e-05,2.53542e-05,5.54793e-06,1.14298e-05
642,1.29019e-05,2.65532e-06,3.92534e-05,2.89642e-05,6.55295e-06,1.19885e-05
643,1.61048e-05,-1.01683e-05,4.67839e-05,4.11648e-05,1.84575e-05,1.16597e-05
644,1.65488e-05,-3.79038e-05,4.61321e-05,5.29446e-05,2.74634e-05,1.05792e-05
645,1.45526e-05,-5.6582e-05,4.54701e-05,5.15458e-05,2.64452e-05,7.23384e-06
646,1.17689e-05,-3.87324e-05,5.26444e-05,3.88853e-05,1.99439e-05,5.32341e-06
647,1.02237e-05,-8.77023e-06,5.91072e-05,3.64136e-05,1.84636e-05,6.44498e-06
648,1.03195e-05,2.65391e-07,5.88914e-05,4.35557e-05,2.51771e-05,6.02709e-06
649,1.02559e-05,-1.81963e-06,4.78229e-05,4.84742e-05,3.27364e-05,3.68589e-06
650,9.3955e-06,-4.15948e-06,2.93541e-05,4.84655e-05,3.56252e-05,1.09346e-06
651,9.57194e-06,-6.23132e-06,1.93293e-05,4.30688e-05,3.32782e-05,-3.31178e-07
652,1.20696e-05,-1.60071e-05,2.70864e-05,4.27616e-05,2.94801e-05,4.82473e-08
653,1.52214e-05,-3.77851e-05,4.25574e-05,5.04502e-05,2.79779e-05,5.81844e-07
654,1.68292e-05,-4.8399e-05,5.10383e-05,5.11466e-05,2.79838e-05,-8.24044e-07
655,1.65175e-05,-3.17271e-05,4.71063e-05,4.2499e-05,2.58253e-05,-1.03084e-05
656,1.60182e-05,-7.43482e-06,3.63604e-05,3.75271e-05,1.71751e-05,-4.65289e-05
657,1.657e-05,2.94714e-06,3.41811e-05,3.94301e-05,2.48731e-06,-0.000105068
658,1.80961e-05,-6.29173e-06,4.55144e-05,4.55664e-05,-8.79421e-06,-0.000137653
659,1.99495e-05,-2.68182e-05,5.89928e-05,5.03209e-05,-8.0293e-06,-0.000106787
660,2.08643e-05,-3.66078e-05,6.23159e-05,4.46233e-05,6.09785e-07,-1.9326e-05
661,2.14362e-05,-2.24278e-05,5.51661e-05,3.20038e-05,8.25681e-06,8.31299e-05
662,2.21691e-05,8.12835e-07,3.9618e-05,2.57931e-05,1.02357e-05,0.000150833
663,2.30072e-05,1.11482e-05,2.70038e-05,2.98266e-05,6.85255e-06,0.000152426
664,2.40683e-05,3.32141e-06,3.02563e-05,4.09687e-05,2.55346e-06,8.64395e-05
665,2.4937e-05,-1.60071e-05,4.38296e-05,5.40617e-05,5.35993e-06,-9.68398e-06
666,2.62199e-05,-2.84716e-05,5.60742e-05,5.53418e-05,1.29797e-05,-6.84983e-05
667,2.71486e-05,-1.91582e-05,5.90225e-05,4.09148e-05,1.56659e-05,-6.20094e-05
668,2.80745e-05,-4.94633e-07,5.76447e-05,2.69956e-05,1.47122e-05,-2.76279e-05
669,3.08967e-05,6.05439e-06,5.99487e-05,2.44847e-05,1.32266e-05,-6.90112e-06
670,3.32213e-05,-2.79479e-06,5.28073e-05,3.16583e-05,1.23986e-05,-6.9557e-06
671,3.1116e-05,-2.47028e-05,3.54138e-05,4.5637e-05,1.04526e-05,-1.4653e-05
672,2.43551e-05,-3.99922e-05,2.74566e-05,5.25939e-05,4.22708e-06,-2.02619e-05
673,1.65581e-05,-2.2171e-05,3.59486e-05,4.0661e-05,9.76528e-07,-2.00709e-05
674,1.15915e-05,4.56586e-06,4.7643e-05,2.64533e-05,5.52765e-06,-1.57034e-05
675,1.02643e-05,1.20306e-05,5.2025e-05,2.20144e-05,1.15443e-05,-1.31449e-05
676,1.05772e-05,1.12376e-05,4.45873e-05,2.52042e-05,1.3479e-05,-1.59236e-05
677,9.93947e-06,9.81031e-06,3.42313e-05,3.31519e-05,1.19067e-05,-2.06753e-05
678,6.43102e-06,6.62216e-06,4.01859e-05,4.03784e-05,8.25347e-06,-2.20372e-05
679,1.50696e-07,-5.67429e-06,6.15015e-05,4.99019e-05,7.09967e-06,-2.0207e-05
680,-5.17488e-06,-2.61468e-05,7.70936e-05,5.7904e-05,1.2131e-05,-1.82116e-05
681,-5.95145e-06,-3.3492e-05,7.66506e-05,5.15114e-05,1.95454e-05,-1.65351e-05
682,-2.89558e-06,-1.79613e-05,6.78441e-05,3.58134e-05,2.31654e-05,-1.53709e-05
683,8.53417e-07,3.40639e-07,5.74813e-05,2.82326e-05,2.15437e-05,-1.57738e-05
684,3.75109e-06,5.42934e-06,5.32099e-05,3.04221e-05,1.66337e-05,-1.67815e-05
685,4.97134e-06,-4.87737e-06,6.08111e-05,3.74011e-05,1.17557e-05,-1.74109e-05
686,4.76043e-06,-2.39743e-05,7.14022e-05,4.58345e-05,1.05944e-05,-1.94669e-05
687,4.72932e-06,-3.21728e-05,7.35701e-05,4.65937e-05,1.35447e-05,-2.30769e-05
688,5.53283e-06,-1.8504e-05,6.72106e-05,3.6983e-05,1.73169e-05,-2.55291e-05
689,7.80766e-06,8.21073e-07,5.37908e-05,2.76916e-05,1.93718e-05,-2.86972e-05
690,1.15624e-05,5.7886e-06,4.83609e-05,2.79379e-05,1.7733e-05,-3.64193e-05
691,1.34041e-05,-5.23815e-06,6.52592e-05,3.79414e-05,1.22107e-05,-4.33463e-05
692,1.27806e-05,-2.26874e-05,8.65153e-05,4.95489e-05,1.1145e-05,-3.94232e-05
693,1.36826e-05,-2.69817e-05,8.87109e-05,4.75473e-05,1.63244e-05,-2.2297e-05
694,1.72168e-05,-7.9281e-06,7.48174e-05,3.19676e-05,1.92291e-05,2.16647e-06
695,2.1238e-05,1.46417e-05,6.06211e-05,2.09556e-05,1.89737e-05,2.27597e-05
696,2.18943e-05,1.90437e-05,6.00215e-05,2.06057e-05,1.81687e-05,2.74327e-05
697,2.00945e-05,8.21166e-06,6.47564e-05,2.61095e-05,1.8072e-05,1.6148e-05
698,1.9479e-05,-1.20064e-05,5.99305e-05,4.07426e-05,1.87301e-05,1.01405e-06
699,1.86101e-05,-2.16798e-05,5.77975e-05,5.00306e-05,1.58008e-05,-5.66164e-06
700,1.55933e-05,-1.16188e-07,6.37706e-05,3.66973e-05,1.15856e-05,4.16456e-06
701,1.19076e-05,2.34417e-05,6.54686e-05,2.09118e-05,1.13408e-05,1.67363e-05
702,8.7435e-06,2.43044e-05,6.17952e-05,1.6154e-05,1.61512e-05,8.24602e-06
703,7.45015e-06,1.8102e-05,5.41229e-05,1.71408e-05,2.34862e-05,-1.48188e-05
704,9.0444e-06,1.44052e-05,4.65156e-05,2.12719e-05,2.96496e-05,-2.712e-05
705,9.52118e-06,1.09736e-05,4.9711e-05,2.5951e-05,3.25878e-05,-1.88121e-05
706,5.24605e-06,-1.95999e-06,6.53098e-05,3.45582e-05,3.46553e-05,-1.85798e-06
707,-5.46659e-07,-2.48696e-05,8.00311e-05,4.40172e-05,3.77089e-05,4.71052e-06
708,-3.42263e-06,-3.26306e-05,8.34681e-05,4.23641e-05,3.87064e-05,-7.16437e-06
709,-3.0693e-06,-1.26717e-05,7.28829e-05,3.17465e-05,3.6945e-05,-2.89347e-05
710,-1.76986e-06,1.11828e-05,5.53602e-05,2.46089e-05,3.69249e-05,-4.98729e-05
711,-1.12795e-06,1.7157e-05,5.00942e-05,2.52494e-05,3.74256e-05,-6.03082e-05
712,-8.13441e-07,2.35658e-06,6.19993e-05,3.40893e-05,2.80713e-05,-5.61183e-05
713,-9.62168e-08,-2.24197e-05,7.26391e-05,4.48984e-05,4.73661e-06,-4.47722e-05
714,2.94386e-06,-3.39875e-05,7.34396e-05,4.4807e-05,-2.57931e-05,-3.39905e-05
715,1.03024e-05,-1.99115e-05,6.88702e-05,3.25751e-05,-4.69831e-05,-2.58603e-05
716,1.96836e-05,2.45679e-06,5.38824e-05,2.30735e-05,-4.43742e-05,-2.15745e-05
717,2.52684e-05,1.0966e-05,3.93354e-05,2.58846e-05,-2.66233e-05,-2.15805e-05
718,2.4274e-05,9.54028e-07,4.68299e-05,3.78376e-05,-1.16609e-05,-2.18696e-05
719,2.23879e-05,-2.07544e-05,6.52791e-05,5.01037e-05,-2.85809e-06,-2.02652e-05
720,2.41416e-05,-3.339e-05,6.96074e-05,5.00747e-05,2.54515e-06,-1.81839e-05
721,2.63788e-05,-2.06188e-05,6.22282e-05,3.75371e-05,5.29086e-06,-1.50595e-05
722,2.85647e-05,2.89666e-06,6.22243e-05,2.85187e-05,7.91902e-06,-1.0804e-05
723,3.2361e-05,1.17659e-05,6.95146e-05,2.99977e-05,1.09553e-05,-8.66781e-06
724,3.88272e-05,-3.83066e-07,6.73943e-05,3.88476e-05,1.27763e-05,-8.7288e-06
725,4.52567e-05,-2.82337e-05,5.45173e-05,5.19642e-05,1.28751e-05,-1.02915e-05
726,4.40097e-05,-4.88802e-05,4.86047e-05,5.528e-05,1.04726e-05,-1.41029e-05
727,3.37117e-05,-3.47473e-05,5.49847e-05,3.97604e-05,8.58079e-06,-1.84298e-05
728,2.29028e-05,-8.17674e-06,5.99049e-05,2.47468e-05,1.04729e-05,-1.86466e-05
729,1.71357e-05,5.75827e-07,6.00523e-05,2.16827e-05,1.5059e-05,-1.48376e-05
730,1.50482e-05,9.30944e-07,5.08507e-05,2.36076e-05,1.81963e-05,-1.24088e-05
731,1.53376e-05,7.73608e-07,3.07631e-05,2.88716e-05,1.7403e-05,-1.28551e-05
732,1.55005e-05,1.03347e-06,1.47035e-05,3.4849e-05,1.30005e-05,-1.26666e-05
733,1.35091e-05,-6.23234e-06,1.68772e-05,4.52472e-05,8.74777e-06,-1.04884e-05
734,1.01306e-05,-2.35404e-05,2.84502e-05,5.82918e-05,8.66337e-06,-8.35818e-06
735,7.37821e-06,-3.08929e-05,3.17091e-05,5.87667e-05,1.37673e-05,-6.00216e-06
736,7.6515e-06,-1.81459e-05,1.93972e-05,4.76902e-05,1.79903e-05,-2.97374e-06
737,1.24061e-05,-1.25627e-06,1.10983e-06,4.0963e-05,1.38247e-05,-6.18749e-07
738,1.86985e-05,5.69794e-06,-2.1612e-06,4.24381e-05,4.26323e-06,-2.99933e-07
739,2.11134e-05,-3.07193e-06,1.49293e-05,4.8677e-05,8.41906e-07,-1.71038e-06
740,1.89255e-05,-2.27106e-05,3.43823e-05,5.52274e-05,1.02426e-05,-5.38991e-06
741,1.52672e-05,-3.08635e-05,4.24831e-05,5.29672e-05,2.47043e-05,-9.88222e-06
742,1.27336e-05,-1.49923e-05,4.2002e-05,4.14188e-05,3.00805e-05,-6.91825e-06
743,1.1292e-05,5.92013e-06,3.64953e-05,3.32165e-05,2.54079e-05,8.62385e-06
744,8.80116e-06,1.05002e-05,3.47078e-05,3.34658e-05,2.06139e-05,2.95147e-05
745,6.12408e-06,-7.90156e-07,4.82726e-05,3.82648e-05,1.71817e-05,4.67843e-05
746,5.06891e-06,-1.99617e-05,6.75387e-05,4.4913e-05,1.85674e-05,6.08608e-05
747,6.26461e-06,-3.15653e-05,6.43246e-05,4.39558e-05,2.64651e-05,6.8071e-05
748,9.52313e-06,-2.14066e-05,4.55506e-05,3.17965e-05,3.53233e-05,5.26727e-05
749,1.02566e-05,-1.26666e-06,4.44763e-05,2.18451e-05,4.48168e-05,1.14146e-05
750,7.37141e-06,8.19133e-06,6.06489e-05,2.39363e-05,4.85454e-05,-3.28195e-05
751,6.38689e-06,1.74176e-06,6.60165e-05,3.6588e-05,4.39045e-05,-5.3614e-05
752,9.09438e-06,-2.18656e-05,5.60849e-05,5.20345e-05,3.86472e-05,-4.7569e-05
753,1.07004e-05,-4.2239e-05,5.24159e-05,5.31521e-05,3.11062e-05,-3.21377e-05
754,9.44367e-06,-3.16934e-05,6.2823e-05,3.9706e-05,2.27901e-05,-2.19202e-05
755,9.10375e-06,-8.42714e-06,6.92853e-05,3.38354e-05,1.60386e-05,-1.60818e-05
756,1.0749e-05,1.43633e-06,6.44173e-05,3.48272e-05,6.69784e-06,-7.6036e-06
757,1.28879e-05,4.73213e-06,5.1997e-05,3.15238e-05,-4.30176e-06,1.77445e-06
758,1.42616e-05,9.04059e-06,3.88393e-05,3.06233e-05,-8.41976e-06,6.73653e-06
759,1.15519e-05,1.28356e-05,3.68229e-05,3.66062e-05,-4.19751e-06,8.37404e-06
760,3.54131e-06,3.97e-06,4.9701e-05,4.92047e-05,3.17055e-06,9.25806e-06
761,-4.10187e-06,-2.01501e-05,6.45673e-05,5.82483e-05,1.14074e-05,9.53868e-06
762,-6.52755e-06,-3.22365e-05,6.88967e-05,4.73158e-05,1.7245e-05,7.58843e-06
763,-5.76155e-06,-1.51032e-05,6.13993e-05,2.55155e-05,1.66571e-05,3.85309e-06
764,-7.12105e-06,1.00549e-05,4.53854e-05,1.49615e-05,1.10168e-05,1.63272e-06
765,-1.21655e-05,2.08467e-05,3.29697e-05,1.91641e-05,6.8909e-06,2.42529e-06
766,-1.59611e-05,1.13092e-05,3.72311e-05,3.27141e-05,8.70263e-06,4.83931e-06
767,-1.24404e-05,-1.02568e-05,5.08975e-05,4.72713e-05,1.63862e-05,5.37354e-06
768,-2.32412e-06,-2.17018e-05,5.54529e-05,4.72673e-05,2.4981e-05,3.08028e-06
769,7.0211e-06,-1.05661e-05,4.81098e-05,3.16986e-05,3.03761e-05,1.26621e-06
770,1.01953e-05,8.56367e-06,3.56903e-05,1.95121e-05,3.28012e-05,1.38021e-06
771,7.82751e-06,1.6575e-05,3.13362e-05,1.99325e-05,3.1643e-05,-1.44037e-07
772,1.59234e-06,9.97132e-06,4.26447e-05,2.76575e-05,2.72272e-05,-4.14293e-06
773,-4.44159e-06,-6.5946e-06,5.42676e-05,3.73826e-05,2.50539e-05,-5.61962e-06
774,-6.15649e-06,-1.67884e-05,5.12411e-05,3.88126e-05,2.07961e-05,-3.49475e-06
775,-6.06354e-06,-7.08858e-06,4.13118e-05,2.72276e-05,9.0903e-06,-2.51588e-06
776,-7.17e-06,1.01757e-05,3.76714e-05,1.71098e-05,1.40598e-06,-4.07206e-06
777,-9.01731e-06,1.53158e-05,4.15175e-05,1.7352e-05,4.31339e-06,-4.88638e-06
778,-9.83246e-06,4.58646e-06,3.68163e-05,2.52806e-05,7.87906e-06,-3.95012e-06
779,-9.39692e-06,-2.12159e-05,2.2614e-05,3.91559e-05,3.02912e-06,-4.14519e-06
780,-9.20124e-06,-4.07527e-05,2.18622e-05,4.26318e-05,-7.53422e-06,-4.89655e-06
781,-8.11755e-06,-2.73875e-05,3.9407e-05,2.78418e-05,-1.0272e-05,-2.73185e-06
782,-4.46511e-06,-3.21069e-06,5.2014e-05,2.08436e-05,-8.53035e-07,-6.38533e-07
783,-1.01782e-06,5.9569e-06,5.00481e-05,2.70206e-05,8.77446e-06,-1.33458e-06
784,3.911e-07,6.79864e-06,4.04451e-05,2.90044e-05,7.86332e-06,-2.60922e-06
785,1.15412e-06,4.06596e-06,3.3282e-05,2.682e-05,-2.72823e-07,-2.68598e-06
786,2.71295e-06,1.6692e-08,4.09091e-05,2.50332e-05,-8.686e-06,-2.38858e-06
787,5.06154e-06,-1.30424e-05,6.13638e-05,3.04356e-05,-1.18043e-05,-4.53302e-06
788,8.46307e-06,-3.68629e-05,7.47364e-05,4.10874e-05,-5.48162e-06,-1.01971e-05
789,1.17491e-05,-4.60344e-05,7.08266e-05,4.1122e-05,5.86286e-06,-1.73843e-05
790,1.36389e-05,-2.62118e-05,5.83441e-05,3.04409e-05,1.56526e-05,-2.35406e-05
791,1.57997e-05,-8.79713e-07,4.6491e-05,2.32846e-05,2.22894e-05,-2.58086e-05
792,1.72354e-05,7.34699e-06,4.35852e-05,2.49593e-05,2.4901e-05,-2.35708e-05
793,1.35632e-05,-3.26272e-06,5.55155e-05,3.66003e-05,2.21437e-05,-2.01809e-05
794,7.15219e-06,-2.03977e-05,7.08786e-05,5.14752e-05,1.83457e-05,-1.91175e-05
795,5.48536e-06,-2.53623e-05,7.41335e-05,5.19525e-05,1.59576e-05,-1.93548e-05
796,8.51979e-06,-1.16677e-05,6.84499e-05,3.60622e-05,1.39385e-05,-1.86282e-05
797,1.1236e-05,7.20895e-06,5.86982e-05,2.21758e-05,1.27846e-05,-1.75044e-05
798,1.088e-05,1.67766e-05,5.12138e-05,2.32178e-05,1.01938e-05,-1.62034e-05
799,7.37363e-06,1.212e-05,5.41652e-05,3.80379e-05,5.43762e-06,-1.32763e-05
800,5.73131e-06,-6.71959e-06,6.18941e-05,5.71302e-05,4.86889e-06,-8.00136e-06
801,8.8991e-06,-2.153e-05,6.31916e-05,6.25884e-05,6.20542e-06,-3.74426e-06
802,1.36346e-05,-1.33242e-05,6.04225e-05,5.00397e-05,6.52529e-06,-4.42585e-06
803,1.66485e-05,6.6216e-06,6.23988e-05,3.84738e-05,9.49814e-06,-1.02391e-05
804,1.60202e-05,1.59307e-05,6.70917e-05,3.8622e-05,1.24561e-05,-1.84425e-05
805,1.63895e-05,1.00194e-05,6.47255e-05,4.72138e-05,1.11614e-05,-2.28402e-05
806,1.81985e-05,-1.21546e-05,5.76045e-05,6.16168e-05,7.00417e-06,-1.96951e-05
807,1.75204e-05,-3.18155e-05,6.1924e-05,6.43478e-05,7.29845e-06,-1.36886e-05
808,1.39159e-05,-1.86684e-05,7.99336e-05,4.74031e-05,1.85112e-05,-6.66739e-06
809,1.10725e-05,8.90974e-06,9.01921e-05,3.55935e-05,3.2156e-05,-1.22443e-06
810,1.21322e-05,1.61577e-05,8.28692e-05,3.43856e-05,3.11755e-05,-2.0351e-06
811,1.53528e-05,9.51239e-06,6.33875e-05,3.27537e-05,1.71995e-05,-6.8655e-06
812,1.9176e-05,5.70146e-06,4.61124e-05,3.42457e-05,7.36968e-06,-1.19324e-05
813,2.01445e-05,4.13524e-06,4.74344e-05,3.91881e-05,9.97655e-06,-1.38762e-05
814,1.67115e-05,-6.97946e-06,6.23532e-05,4.69619e-05,1.9998e-05,-1.2724e-05
815,1.16582e-05,-2.7833e-05,7.25976e-05,5.49528e-05,2.8938e-05,-1.08207e-05
816,8.3349e-06,-3.49864e-05,7.29973e-05,5.19274e-05,3.2375e-05,-9.89156e-06
817,7.90763e-06,-1.61373e-05,6.66197e-05,3.9911e-05,3.1273e-05,-9.74129e-06
818,9.96059e-06,7.51989e-06,5.29052e-05,3.17465e-05,2.70179e-05,-1.06067e-05
819,1.20219e-05,1.54296e-05,4.18597e-05,3.2335e-05,2.00093e-05,-1.17768e-05
820,1.07289e-05,3.74268e-06,4.53157e-05,4.18072e-05,1.36138e-05,-1.20501e-05
821,7.23029e-06,-1.93807e-05,5.46151e-05,5.26075e-05,1.34972e-05,-1.26638e-05
822,5.72627e-06,-3.20186e-05,5.83423e-05,5.02891e-05,1.89308e-05,-1.28615e-05
823,7.53227e-06,-1.91748e-05,5.76163e-05,3.45681e-05,2.35366e-05,-1.15282e-05
824,1.09633e-05,4.72045e-06,5.16491e-05,2.27226e-05,2.43032e-05,-9.68781e-06
825,1.32431e-05,1.61461e-05,4.48229e-05,2.37518e-05,2.04646e-05,-8.74579e-06
826,1.11107e-05,7.91622e-06,4.87903e-05,3.37945e-05,1.37045e-05,-9.25625e-06
827,5.8733e-06,-1.46833e-05,5.91577e-05,4.57707e-05,1.23337e-05,-1.19984e-05
828,1.85129e-06,-3.12647e-05,6.2208e-05,4.61706e-05,1.74388e-05,-1.57552e-05
829,9.66242e-07,-2.17438e-05,5.99814e-05,3.0894e-05,1.8562e-05,-1.77462e-05
830,1.89601e-06,1.9672e-06,5.84918e-05,1.74264e-05,1.67486e-05,-1.70707e-05
831,1.14207e-06,1.40799e-05,5.47941e-05,1.97533e-05,1.85667e-05,-1.72796e-05
832,9.01781e-07,6.79916e-06,4.41797e-05,3.38807e-05,2.5399e-05,-2.17479e-05
833,3.06829e-06,-1.83454e-05,3.10288e-05,5.03125e-05,3.30987e-05,-2.68707e-05
834,4.223e-06,-3.80734e-05,3.04593e-05,5.52242e-05,3.64143e-05,-3.06237e-05
835,3.44838e-06,-2.45488e-05,4.95157e-05,4.37842e-05,3.88869e-05,-3.64721e-05
836,3.41232e-06,-3.89254e-07,6.95946e-05,3.57749e-05,3.96331e-05,-4.0697e-05
837,5.23585e-06,8.96539e-06,7.34343e-05,3.81426e-05,3.20604e-05,-3.58929e-05
838,8.85268e-06,1.37145e-05,5.89024e-05,4.08739e-05,1.22397e-05,-2.19299e-05
839,1.35166e-05,1.70764e-05,4.03824e-05,4.31199e-05,-1.49361e-05,-2.13951e-06
840,1.41568e-05,1.74889e-05,3.93119e-05,4.58749e-05,-3.44014e-05,1.4862e-05
841,9.77322e-06,9.40873e-06,5.51979e-05,5.03433e-05,-3.30168e-05,1.53222e-05
842,7.32667e-06,-1.01578e-05,6.66561e-05,5.2979e-05,-1.28817e-05,-1.84706e-06
843,1.17641e-05,-2.00833e-05,6.33592e-05,4.59451e-05,1.0391e-05,-2.18628e-05
844,2.04832e-05,-6.63201e-06,5.21106e-05,3.32495e-05,2.30238e-05,-3.0607e-05
845,2.82808e-05,1.14354e-05,3.99844e-05,2.71127e-05,2.39277e-05,-2.7824e-05
846,3.16806e-05,1.79464e-05,3.69738e-05,2.96676e-05,1.80154e-05,-2.16422e-05
847,3.12253e-05,1.04225e-05,4.84336e-05,3.94847e-05,1.16476e-05,-1.80023e-05
848,3.03525e-05,-6.85666e-06,6.04689e-05,5.08224e-05,1.17692e-05,-1.87769e-05
849,3.09713e-05,-1.65485e-05,5.74538e-05,5.0408e-05,1.71975e-05,-2.21812e-05
850,3.17992e-05,-5.72131e-06,4.021e-05,3.79324e-05,2.1273e-05,-2.49226e-05
851,3.11899e-05,1.28294e-05,1.94689e-05,2.8303e-05,2.16431e-05,-2.38327e-05
852,2.86667e-05,2.00137e-05,1.5921e-05,2.77097e-05,1.84341e-05,-1.92014e-05
853,2.50047e-05,1.11963e-05,3.5968e-05,3.23757e-05,1.37842e-05,-1.43012e-05
854,2.29265e-05,-9.00939e-06,5.6925e-05,3.97698e-05,1.64269e-05,-1.12934e-05
855,2.11898e-05,-2.25041e-05,5.92174e-05,3.89183e-05,2.55219e-05,-7.8288e-06
856,1.73891e-05,-1.29303e-05,4.86042e-05,2.3895e-05,2.76666e-05,6.42978e-07
857,1.37108e-05,7.57867e-06,4.524e-05,1.26245e-05,2.41701e-05,1.47826e-05
858,1.18245e-05,1.6648e-05,5.36682e-05,1.85719e-05,2.48023e-05,2.69791e-05
859,1.57171e-05,1.04328e-05,5.31797e-05,3.4209e-05,2.67907e-05,2.6761e-05
860,2.26185e-05,-8.98098e-06,3.66988e-05,5.05047e-05,2.53199e-05,8.65973e-06
861,2.51175e-05,-2.35327e-05,2.77976e-05,5.36974e-05,2.03652e-05,-2.00905e-05
862,2.48578e-05,-9.8436e-06,4.07825e-05,3.88039e-05,1.64328e-05,-4.51296e-05
863,2.22435e-05,8.94044e-06,5.68569e-05,2.83709e-05,1.69842e-05,-5.35276e-05
864,1.73202e-05,1.01897e-05,6.02248e-05,3.04223e-05,2.03649e-05,-4.0778e-05
865,1.54185e-05,8.57859e-06,4.72321e-05,3.4718e-05,2.34982e-05,-1.9693e-05
866,1.84838e-05,1.06047e-05,2.74496e-05,3.84532e-05,2.19562e-05,-6.0188e-06
867,2.07242e-05,1.24211e-05,2.29547e-05,4.01925e-05,1.34723e-05,-4.37862e-06
868,1.86909e-05,3.45898e-06,3.90075e-05,4.52247e-05,5.79501e-06,-1.00248e-05
869,1.62523e-05,-1.73192e-05,5.58946e-05,5.12068e-05,7.33916e-06,-1.43638e-05
870,1.73369e-05,-2.60739e-05,5.92434e-05,4.41033e-05,1.6402e-05,-1.21205e-05
871,2.13741e-05,-1.05269e-05,5.12287e-05,2.95857e-05,2.39312e-05,-7.32521e-06
872,2.69523e-05,9.39307e-06,4.01208e-05,2.60224e-05,2.38828e-05,-7.02641e-06
873,3.18701e-05,1.50033e-05,4.007e-05,3.28457e-05,1.82107e-05,-1.12912e-05
874,3.44112e-05,3.13925e-06,5.54011e-05,4.18581e-05,1.24983e-05,-1.31721e-05
875,3.68046e-05,-1.7281e-05,7.08365e-05,4.97544e-05,9.50854e-06,-9.53507e-06
876,4.04611e-05,-2.58649e-05,7.2182e-05,4.82476e-05,7.11765e-06,-3.16942e-06
877,4.30145e-05,-1.33029e-05,6.10069e-05,3.47711e-05,4.3548e-06,2.93637e-06
878,4.20984e-05,4.09514e-06,4.31522e-05,2.27067e-05,1.52287e-06,5.96797e-06
879,3.66369e-05,9.15667e-06,3.34161e-05,2.22208e-05,-3.70866e-06,4.08545e-06
880,2.94996e-05,1.00818e-06,4.54373e-05,3.08404e-05,-8.19598e-06,-9.3989e-08
881,2.71453e-05,-1.64784e-05,6.53004e-05,4.31007e-05,-2.39958e-06,-1.64081e-06
882,2.85634e-05,-2.83624e-05,7.26741e-05,4.67812e-05,1.21987e-05,-8.16163e-07
883,2.84151e-05,-1.97786e-05,6.65033e-05,3.46315e-05,2.51605e-05,7.80453e-07
884,2.80646e-05,-2.71568e-06,5.78419e-05,2.12334e-05,3.27752e-05,4.01332e-06
885,3.0376e-05,1.79694e-06,5.50704e-05,2.03208e-05,3.7337e-05,6.67479e-06
886,3.21319e-05,-1.03504e-05,4.63261e-05,3.03026e-05,3.74571e-05,6.53236e-06
887,2.89885e-05,-3.7017e-05,3.15399e-05,4.76734e-05,3.03915e-05,5.57806e-06
888,2.01157e-05,-5.77935e-05,3.03179e-05,5.7814e-05,1.66127e-05,4.24369e-06
889,1.01462e-05,-4.52569e-05,4.46299e-05,4.85066e-05,4.15279e-06,2.63656e-06
890,4.76469e-06,-1.71829e-05,5.76233e-05,3.65929e-05,1.82754e-06,1.50645e-06
891,4.51066e-06,-1.23078e-06,6.47492e-05,3.25752e-05,9.52161e-06,6.89197e-07
892,7.29641e-06,3.18127e-06,6.39736e-05,3.49699e-05,2.00241e-05,-1.34505e-06
893,1.06697e-05,1.18959e-06,5.33798e-05,4.25627e-05,2.6272e-05,-6.03647e-06
894,1.21645e-05,-9.97897e-07,4.71635e-05,4.86241e-05,2.61613e-05,-1.10406e-05
895,1.06067e-05,-9.09214e-06,5.56008e-05,5.4076e-05,2.38753e-05,-1.18061e-05
896,8.12279e-06,-2.79572e-05,6.87757e-05,5.80203e-05,2.35333e-05,-7.00555e-06
897,8.07304e-06,-3.63178e-05,7.22496e-05,5.25946e-05,2.4317e-05,-1.62293e-07
898,1.18409e-05,-2.14644e-05,6.37435e-05,4.23107e-05,2.29146e-05,5.53338e-06
899,1.70807e-05,-2.01453e-06,5.0945e-05,3.88782e-05,1.77662e-05,7.57293e-06
900,1.86791e-05,6.5281e-06,4.99154e-05,4.00948e-05,1.1155e-05,4.13949e-06
901,1.48307e-05,1.05829e-07,6.54483e-05,4.41734e-05,7.40762e-06,-2.07312e-06
902,1.09763e-05,-1.79277e-05,8.00631e-05,5.1499e-05,8.1626e-06,-5.72716e-06
903,1.21069e-05,-2.95965e-05,8.1393e-05,5.13241e-05,8.57166e-06,-5.83777e-06
904,1.70744e-05,-2.18094e-05,7.45963e-05,3.91874e-05,3.04101e-06,-6.2807e-06
905,2.28296e-05,-6.33335e-06,6.18982e-05,2.74067e-05,-5.57767e-06,-8.72609e-06
906,2.57036e-05,7.68734e-08,5.2713e-05,2.54295e-05,-9.2101e-06,-7.70707e-06
907,2.24888e-05,-6.0056e-06,5.69989e-05,3.42611e-05,-5.80745e-06,4.41508e-06
908,1.58112e-05,-2.24447e-05,6.10229e-05,4.85226e-05,3.4591e-06,2.67394e-05
909,1.22651e-05,-3.5633e-05,5.35611e-05,5.27383e-05,1.27081e-05,4.689e-05
910,1.44974e-05,-2.96648e-05,4.55339e-05,4.09729e-05,1.56428e-05,5.30943e-05
911,1.96125e-05,-1.31439e-05,4.6692e-05,2.61474e-05,1.79789e-05,4.27551e-05
912,2.34668e-05,-5.31288e-06,5.20757e-05,2.07989e-05,2.57778e-05,1.95542e-05
913,2.43326e-05,-1.00553e-05,4.82617e-05,2.71956e-05,2.98675e-05,-6.96039e-06
914,2.27179e-05,-2.80538e-05,3.61983e-05,4.20063e-05,2.30979e-05,-2.9463e-05
915,1.78254e-05,-4.53541e-05,3.475e-05,4.99649e-05,1.38174e-05,-4.55574e-05
916,1.10631e-05,-3.3981e-05,4.97597e-05,4.07641e-05,1.17667e-05,-5.24878e-05
917,8.65721e-06,-8.26348e-06,6.3952e-05,3.16983e-05,1.60868e-05,-5.23336e-05
918,1.02193e-05,3.09019e-06,6.63585e-05,3.20002e-05,1.84925e-05,-4.94205e-05
919,1.10187e-05,2.65374e-06,5.58126e-05,3.52977e-05,1.40629e-05,-4.4596e-05
920,9.05002e-06,-3.24527e-07,3.99346e-05,3.99023e-05,2.12957e-06,-3.89948e-05
921,4.21968e-06,-2.80892e-07,3.59742e-05,4.27294e-05,-1.24288e-05,-3.5068e-05
922,-1.00245e-06,-9.6933e-06,4.68939e-05,4.53655e-05,-1.76857e-05,-3.3881e-05
923,-2.91044e-06,-3.20625e-05,5.57997e-05,4.52404e-05,-9.33207e-06,-3.19129e-05
924,-9.92907e-07,-3.94064e-05,5.35517e-05,3.25523e-05,4.43392e-06,-2.68131e-05
925,2.65586e-06,-2.09826e-05,4.39686e-05,1.38225e-05,1.3586e-05,-2.13408e-05
926,6.14518e-06,-1.9792e-06,3.01887e-05,6.29395e-06,1.48742e-05,-1.81659e-05
927,7.04895e-06,2.12599e-06,2.20132e-05,1.14405e-05,9.47096e-06,-1.74481e-05
928,4.00864e-06,-7.36881e-06,3.0777e-05,2.45593e-05,3.9985e-06,-1.76645e-05
929,6.64566e-07,-2.41782e-05,4.97097e-05,3.88445e-05,6.46607e-06,-1.69729e-05
930,-2.75137e-07,-3.20026e-05,6.25707e-05,4.09836e-05,1.20355e-05,-1.39866e-05
931,-1.45248e-06,-2.04876e-05,6.22259e-05,3.10013e-05,1.06685e-05,-9.78865e-06
932,-2.27561e-06,-3.47907e-06,4.73954e-05,2.4523e-05,6.56873e-06,-7.91314e-06
933,-2.0533e-06,1.66657e-06,3.48551e-05,2.68458e-05,7.24163e-06,-9.76092e-06
934,-3.26303e-06,-7.43924e-06,4.33908e-05,3.31999e-05,9.33299e-06,-1.17974e-05
935,-5.20391e-06,-2.60427e-05,5.75867e-05,4.1692e-05,1.20606e-05,-1.097e-05
936,-6.33208e-06,-3.6514e-05,5.79643e-05,4.19284e-05,1.49626e-05,-7.99777e-06
937,-7.47652e-06,-2.35088e-05,5.05566e-05,2.8166e-05,1.35807e-05,-5.11185e-06
938,-7.01962e-06,-9.44806e-07,4.57882e-05,1.52701e-05,1.42024e-05,-3.53978e-06
939,-6.27974e-06,9.56619e-06,4.48907e-05,1.48721e-05,2.14979e-05,-3.26882e-06
940,-7.77453e-06,2.53547e-06,3.88219e-05,2.52319e-05,2.82427e-05,-3.87003e-06
941,-8.47133e-06,-2.36277e-05,2.7385e-05,4.27682e-05,3.02779e-05,-5.2087e-06
942,-4.78169e-06,-4.72598e-05,2.70566e-05,5.2621e-05,2.75543e-05,-8.74855e-06
943,1.80551e-06,-3.72641e-05,4.10363e-05,4.33828e-05,2.23389e-05,-1.22037e-05
944,7.05307e-06,-1.17978e-05,5.04714e-05,3.334e-05,1.89852e-05,-1.06991e-05
945,1.08135e-05,2.1746e-06,4.61613e-05,3.15741e-05,1.72678e-05,-7.25934e-06
946,1.38355e-05,1.11486e-05,2.97501e-05,2.95531e-05,1.36259e-05,-6.60959e-06
947,1.50694e-05,1.85171e-05,1.45269e-05,3.24374e-05,8.65117e-06,-8.50072e-06
948,1.2875e-05,2.15608e-05,1.90704e-05,4.04674e-05,2.39723e-06,-1.12292e-05
949,7.67893e-06,1.22891e-05,4.03397e-05,4.89949e-05,-2.07171e-06,-1.14575e-05
950,3.68752e-06,-8.44161e-06,5.51834e-05,5.48606e-05,-7.2881e-07,-9.14276e-06
951,4.21674e-06,-1.65115e-05,5.36316e-05,4.95539e-05,4.50528e-06,-9.01087e-06
952,7.80813e-06,-2.39183e-07,4.2087e-05,3.47205e-05,7.7337e-06,-1.29748e-05
953,1.1344e-05,1.91785e-05,2.79754e-05,2.49024e-05,7.65358e-06,-1.64431e-05
954,1.32194e-05,2.51942e-05,2.46441e-05,2.72734e-05,5.77882e-06,-1.53927e-05
955,1.23238e-05,1.58263e-05,3.8477e-05,4.02594e-05,3.51104e-06,-1.12883e-05
956,8.46686e-06,-3.27005e-06,5.31016e-05,5.4539e-05,3.23e-06,-8.28317e-06
957,1.70394e-06,-1.26761e-05,5.23314e-05,5.4306e-05,4.29188e-06,-7.31212e-06
958,-4.56046e-06,-3.09726e-07,4.04914e-05,3.93971e-05,4.76242e-06,-4.81328e-06
959,-5.3432e-06,1.84428e-05,2.83118e-05,2.64168e-05,3.51062e-06,8.38099e-07
960,-3.75233e-06,2.29635e-05,3.32135e-05,2.51146e-05,-1.57934e-06,5.66035e-06
961,-4.1571e-06,1.0444e-05,5.70735e-05,3.42698e-05,-8.16817e-06,6.20247e-06
962,-3.51388e-06,-1.05623e-05,7.51447e-05,4.8622e-05,-4.76731e-06,4.4171e-06
963,1.88535e-06,-1.95197e-05,7.67749e-05,5.27676e-05,1.11032e-05,2.95068e-06
964,9.53544e-06,-3.40617e-06,7.49186e-05,4.0446e-05,3.019e-05,1.95039e-06
965,1.51064e-05,2.15748e-05,7.55032e-05,2.9299e-05,3.85173e-05,2.7782e-06
966,1.6663e-05,3.30642e-05,7.45419e-05,3.07719e-05,2.7886e-05,6.48237e-06
967,1.62562e-05,2.57758e-05,6.86117e-05,3.9129e-05,1.25325e-05,9.14728e-06
968,1.72412e-05,-8.21705e-07,6.15807e-05,4.88816e-05,8.88366e-06,8.82032e-06
969,1.85543e-05,-2.45964e-05,6.3209e-05,4.96339e-05,1.57612e-05,6.49334e-06
970,1.97486e-05,-1.65199e-05,7.24176e-05,3.60696e-05,2.4354e-05,4.81505e-06
971,2.04606e-05,4.37686e-06,7.5762e-05,2.78571e-05,2.79166e-05,4.21974e-06
972,1.9903e-05,1.40527e-05,7.00619e-05,2.99922e-05,2.68184e-05,2.19712e-06
973,1.97712e-05,1.72109e-05,5.74602e-05,3.2606e-05,2.32572e-05,-1.84939e-07
974,2.21884e-05,1.73674e-05,4.35281e-05,3.67864e-05,2.05118e-05,-1.85862e-06
975,2.34492e-05,1.60615e-05,4.06384e-05,3.93897e-05,1.85188e-05,-2.74578e-06
976,2.017e-05,4.16733e-06,5.43972e-05,4.35116e-05,1.57219e-05,-2.9911e-06
977,1.56383e-05,-1.95787e-05,7.1466e-05,4.90508e-05,1.41474e-05,-2.89336e-06
978,1.29465e-05,-2.99055e-05,7.50649e-05,4.58431e-05,1.65914e-05,-4.45703e-06
979,1.26374e-05,-1.46587e-05,6.09643e-05,3.67198e-05,2.07916e-05,-8.79403e-06
980,1.35101e-05,4.60144e-06,3.88318e-05,3.26952e-05,2.18913e-05,-1.4122e-05
981,1.52285e-05,8.90832e-06,3.01796e-05,3.45888e-05,1.76561e-05,-1.88079e-05
982,1.71176e-05,-4.54801e-06,4.57631e-05,4.26984e-05,1.15656e-05,-1.9981e-05
983,1.8328e-05,-2.77496e-05,7.07536e-05,5.29594e-05,1.09945e-05,-1.65996e-05
984,1.79437e-05,-3.9368e-05,8.40155e-05,5.0879e-05,1.70973e-05,-1.25509e-05
985,1.75459e-05,-2.71603e-05,7.77146e-05,3.62257e-05,2.32153e-05,-1.19575e-05
986,1.77805e-05,-6.23697e-06,5.83869e-05,2.50868e-05,2.49169e-05,-1.4857e-05
987,1.56971e-05,4.14597e-06,4.74371e-05,2.40262e-05,2.28875e-05,-2.17916e-05
988,1.00991e-05,-8.07054e-07,5.85787e-05,2.95539e-05,1.94369e-05,-3.12465e-05
989,5.2087e-06,-1.83026e-05,7.38946e-05,3.91094e-05,2.22773e-05,-3.37614e-05
990,7.03064e-06,-3.15959e-05,7.2402e-05,3.96152e-05,3.06196e-05,-2.38622e-05
991,1.24065e-05,-2.36821e-05,6.03378e-05,2.73007e-05,3.66458e-05,-6.25972e-06
992,1.35188e-05,-5.2653e-06,5.20075e-05,1.93715e-05,4.10737e-05,1.38385e-05
993,1.0992e-05,2.30796e-06,5.36411e-05,2.41092e-05,4.4905e-05,2.76305e-05
994,9.40694e-06,-5.51529e-06,4.92394e-05,3.77911e-05,4.52315e-05,2.41445e-05
995,1.06393e-05,-2.80827e-05,3.44858e-05,5.43011e-05,4.09989e-05,4.70067e-06
996,1.29385e-05,-4.58006e-05,3.11788e-05,5.88431e-05,2.52525e-05,-1.63843e-05
997,1.32599e-05,-3.31709e-05,4.49247e-05,4.73912e-05,-4.09675e-06,-2.53172e-05
998,1.19344e-05,-9.19327e-06,5.82016e-05,3.7596e-05,-3.04493e-05,-2.23932e-05
999,1.0664e-05,1.46059e-06,6.05777e-05,3.22748e-05,-3.5904e-05,-1.46069e-05
1000,1.0234e-05,1.91181e-06,5.27124e-05,2.64239e-05,-2.18657e-05,-5.25571e-06
1001,1.07085e-05,-3.82379e-06,3.95824e-05,2.50277e-05,-2.26477e-06,6.95848e-06
1002,1.19892e-05,-1.0904e-05,3.78555e-05,2.79932e-05,1.23884e-05,1.96553e-05
1003,1.27026e-05,-2.20182e-05,5.47987e-05,3.70135e-05,1.86842e-05,2.27739e-05
1004,1.3115e-05,-3.9656e-05,7.2259e-05,4.58147e-05,1.89717e-05,1.18799e-05
1005,1.56109e-05,-4.42177e-05,7.29191e-05,4.02841e-05,1.81925e-05,-7.49888e-06
1006,2.0758e-05,-2.59775e-05,5.83756e-05,2.55667e-05,1.86733e-05,-2.86835e-05
1007,2.67047e-05,-5.95151e-06,4.16031e-05,1.93319e-05,1.73951e-05,-4.50459e-05
1008,3.0221e-05,1.07396e-09,3.94738e-05,2.64939e-05,1.13201e-05,-4.6411e-05
1009,2.8801e-05,-9.85978e-06,5.66056e-05,4.39364e-05,4.28509e-06,-3.16296e-05
1010,2.53548e-05,-2.90998e-05,7.40938e-05,6.23923e-05,5.34168e-06,-1.39082e-05
1011,2.54167e-05,-3.82067e-05,7.34759e-05,6.40911e-05,1.46635e-05,-5.79451e-06
1012,3.05033e-05,-2.45634e-05,5.74954e-05,4.54522e-05,2.08181e-05,-5.20045e-06
1013,3.64828e-05,-3.10761e-06,3.59233e-05,2.64474e-05,1.98203e-05,-5.16245e-06
1014,3.69308e-05,6.0851e-06,2.65529e-05,2.44446e-05,1.72933e-05,-6.2512e-06
1015,3.17444e-05,-1.37289e-06,4.18189e-05,3.82884e-05,1.52986e-05,-9.62614e-06
1016,2.40124e-05,-2.00042e-05,6.21569e-05,5.44387e-05,1.73569e-05,-1.25937e-05
1017,1.70718e-05,-3.26011e-05,6.59429e-05,5.4486e-05,2.28246e-05,-1.24931e-05
1018,1.45176e-05,-2.369e-05,5.88969e-05,3.97039e-05,2.11047e-05,-9.47068e-06
1019,1.29553e-05,-3.57104e-06,5.3405e-05,2.99995e-05,1.32633e-05,-5.94169e-06
1020,9.47332e-06,7.42134e-06,5.26927e-05,3.19077e-05,6.91802e-06,-4.22794e-06
1021,6.75579e-06,3.6695e-06,4.79334e-05,3.79722e-05,5.84507e-06,-3.60194e-06
1022,7.43075e-06,-1.92591e-05,3.79954e-05,4.70678e-05,9.44911e-06,-3.05456e-06
1023,8.0808e-06,-4.05357e-05,3.58546e-05,5.00163e-05,9.07545e-06,-1.51018e-06
1024,5.5371e-06,-2.47209e-05,4.4617e-05,3.54679e-05,6.24273e-06,-1.00009e-06
1025,3.08923e-06,5.57168e-06,5.62613e-05,2.40888e-05,8.88829e-06,-2.58419e-06
1026,3.11419e-06,1.58481e-05,6.32845e-05,2.6473e-05,1.78102e-05,-6.08806e-06
1027,5.01377e-06,1.42677e-05,6.03541e-05,3.05296e-05,2.85461e-05,-1.06968e-05
1028,6.40637e-06,1.28243e-05,5.23074e-05,3.39874e-05,3.54787e-05,-1.13458e-05
1029,5.84087e-06,1.19574e-05,5.39429e-05,3.59507e-05,3.26152e-05,-8.36498e-06
1030,4.01803e-06,3.97963e-06,6.76303e-05,4.01303e-05,2.21886e-05,-4.80936e-06
1031,1.8486e-06,-1.15007e-05,7.66394e-05,4.45035e-05,1.50411e-05,-2.71731e-06
1032,6.15274e-08,-1.64182e-05,7.17132e-05,3.78305e-05,1.55315e-05,-3.71241e-06
1033,1.39737e-06,-1.23595e-06,5.73282e-05,2.62552e-05,1.98017e-05,-6.9863e-06
1034,5.16425e-06,1.675e-05,4.02959e-05,2.51806e-05,2.2197e-05,-7.90613e-06
1035,7.65065e-06,2.33963e-05,3.32848e-05,3.35883e-05,1.82945e-05,-5.83445e-06
1036,7.58465e-06,1.60644e-05,4.56595e-05,4.67992e-05,1.07287e-05,-5.53246e-06
1037,9.36229e-06,-6.30898e-08,6.27945e-05,5.85018e-05,8.028e-06,-8.14177e-06
1038,1.47256e-05,-7.49922e-06,6.50968e-05,5.58179e-05,1.19625e-05,-1.13769e-05
1039,1.81302e-05,5.17718e-06,5.32737e-05,3.93775e-05,1.66036e-05,-1.39952e-05
1040,1.76395e-05,2.41026e-05,3.78117e-05,2.5471e-05,1.94419e-05,-1.63007e-05
1041,1.61186e-05,3.08915e-05,3.22944e-05,2.32267e-05,2.21254e-05,-1.72486e-05
1042,1.5817e-05,2.11294e-05,4.49368e-05,3.17301e-05,2.3247e-05,-1.49926e-05
1043,1.57639e-05,-6.37892e-07,6.1367e-05,4.54329e-05,2.69129e-05,-1.02517e-05
1044,1.23421e-05,-1.54859e-05,6.15067e-05,4.94909e-05,3.34098e-05,-6.49952e-06
1045,6.86034e-06,-7.69497e-06,5.22984e-05,4.06399e-05,2.8953e-05,-4.09771e-06
1046,6.93341e-06,1.03855e-05,5.44811e-05,3.53269e-05,1.26035e-05,-3.31111e-06
1047,1.28282e-05,1.89048e-05,6.61887e-05,3.99017e-05,-1.87048e-06,-3.73755e-06
1048,1.74006e-05,1.37581e-05,6.43533e-05,4.64772e-05,-5.62547e-06,-2.19667e-06
1049,1.6287e-05,-6.51419e-06,4.94544e-05,5.33333e-05,-5.01835e-07,5.4099e-07
1050,1.06456e-05,-2.24902e-05,4.80462e-05,5.02828e-05,1.07972e-06,9.3032e-07
1051,3.51456e-06,-7.94814e-06,6.55848e-05,3.16788e-05,-2.64004e-06,4.8466e-07
1052,-6.61735e-07,1.44533e-05,8.25989e-05,1.91085e-05,-6.95975e-07,5.30697e-07
1053,3.13132e-07,2.04636e-05,8.61736e-05,1.84187e-05,9.86563e-06,-9.91827e-07
1054,4.5128e-06,2.12098e-05,7.37698e-05,2.09081e-05,1.91347e-05,-3.0614e-06
1055,9.14816e-06,2.20068e-05,5.43967e-05,2.68095e-05,2.05023e-05,-3.95218e-06
1056,1.18571e-05,2.00505e-05,4.6037e-05,3.28803e-05,1.69146e-05,-4.45214e-06
1057,1.24553e-05,6.6309e-06,5.55185e-05,4.13356e-05,1.33564e-05,-4.96737e-06
1058,1.07149e-05,-1.90302e-05,6.51556e-05,5.15768e-05,1.35974e-05,-5.54417e-06
1059,7.02496e-06,-3.12502e-05,5.95055e-05,5.05692e-05,1.83898e-05,-7.47963e-06
1060,4.28864e-06,-1.47956e-05,4.36093e-05,3.93743e-05,2.57533e-05,-1.04645e-05
1061,5.49114e-06,8.34846e-06,3.16794e-05,3.18377e-05,3.15042e-05,-1.23749e-05
1062,8.20929e-06,1.79912e-05,3.49853e-05,3.17785e-05,3.27122e-05,-1.13766e-05
1063,7.67018e-06,7.46301e-06,5.138e-05,3.75491e-05,3.06392e-05,-8.13812e-06
1064,6.01655e-06,-1.67253e-05,6.34012e-05,4.44671e-05,3.02022e-05,-4.32986e-06
1065,8.25025e-06,-2.94433e-05,5.92894e-05,4.3641e-05,3.0689e-05,-1.99562e-06
1066,1.46512e-05,-1.51726e-05,4.10995e-05,3.49314e-05,2.44295e-05,-2.16483e-06
1067,2.13804e-05,8.36699e-06,1.67079e-05,2.83221e-05,1.12353e-05,-1.47335e-06
1068,2.62848e-05,1.66207e-05,8.7226e-06,2.86357e-05,3.33117e-06,4.54244e-06
1069,2.99508e-05,5.40744e-06,2.80783e-05,3.52604e-05,4.31073e-06,1.32287e-05
1070,3.12346e-05,-1.59538e-05,5.01399e-05,4.5501e-05,8.64822e-06,1.76736e-05
1071,3.10059e-05,-2.5175e-05,5.15482e-05,4.78762e-05,1.00142e-05,1.63658e-05
1072,3.17549e-05,-1.00922e-05,3.88533e-05,3.73651e-05,7.80733e-06,1.49301e-05
1073,3.12243e-05,8.96131e-06,3.61024e-05,2.80917e-05,1.08682e-05,1.78621e-05
1074,2.79193e-05,1.20997e-05,4.80223e-05,2.88781e-05,1.56432e-05,1.93343e-05
1075,2.43674e-05,1.96927e-06,5.28728e-05,3.82931e-05,1.57211e-05,1.06537e-05
1076,2.43038e-05,-1.9383e-05,4.7305e-05,5.10802e-05,1.33856e-05,-9.892e-06
1077,2.53504e-05,-3.52516e-05,4.9309e-05,5.14614e-05,9.79981e-06,-3.34034e-05
1078,2.18248e-05,-1.96635e-05,6.4732e-05,3.83194e-05,6.6469e-06,-4.45186e-05
1079,1.48706e-05,6.68381e-06,7.41842e-05,3.17983e-05,7.12366e-06,-4.14949e-05
1080,9.40555e-06,1.56847e-05,6.67357e-05,3.42803e-05,9.98361e-06,-3.60434e-05
1081,9.46681e-06,1.57279e-05,4.96303e-05,3.59282e-05,1.04354e-05,-3.27688e-05
1082,1.36336e-05,1.29658e-05,3.77122e-05,3.52225e-05,8.76598e-06,-2.95296e-05
1083,1.69437e-05,7.2925e-06,4.03082e-05,3.28561e-05,5.87404e-06,-2.5132e-05
1084,1.61052e-05,-8.45647e-06,5.41527e-05,3.58455e-05,4.14287e-06,-1.96312e-05
1085,1.27187e-05,-3.22958e-05,6.64273e-05,4.46307e-05,7.73025e-06,-1.56576e-05
1086,9.35265e-06,-3.89668e-05,6.89258e-05,4.44353e-05,1.48992e-05,-1.59349e-05
1087,8.44056e-06,-1.84463e-05,6.38303e-05,3.13677e-05,1.88084e-05,-1.84659e-05
1088,1.10426e-05,5.16847e-06,5.49789e-05,2.02432e-05,1.56523e-05,-1.99043e-05
1089,1.31798e-05,1.22869e-05,5.22018e-05,1.95343e-05,8.13088e-06,-1.84539e-05
1090,1.09137e-05,1.57084e-06,6.0984e-05,2.80472e-05,4.0193e-06,-1.58668e-05
1091,6.95926e-06,-1.72049e-05,7.09788e-05,3.81939e-05,1.04208e-05,-1.53923e-05
1092,4.72472e-06,-2.44708e-05,7.07365e-05,3.70737e-05,2.34483e-05,-1.55754e-05
1093,5.19777e-06,-1.267e-05,5.9041e-05,2.64879e-05,3.36599e-05,-1.38613e-05
1094,1.14092e-05,2.13719e-06,3.69325e-05,2.16983e-05,3.7995e-05,-1.21811e-05
1095,1.97414e-05,6.15051e-06,2.16163e-05,2.58614e-05,3.33676e-05,-1.27381e-05
1096,2.21076e-05,-1.0959e-06,2.88395e-05,3.45054e-05,1.9854e-05,-1.3109e-05
1097,1.92809e-05,-1.91128e-05,4.33565e-05,4.62232e-05,9.53017e-06,-1.17391e-05
1098,1.65764e-05,-3.3294e-05,4.47003e-05,4.81448e-05,5.12244e-06,-1.22079e-05
1099,1.40206e-05,-2.52365e-05,3.76714e-05,3.43944e-05,-1.517e-06,-1.41675e-05
1100,1.10558e-05,-4.54735e-06,3.93661e-05,2.30948e-05,-7.399e-06,-1.31041e-05
1101,1.03193e-05,5.39808e-06,4.91574e-05,2.57583e-05,-4.79997e-06,-1.08934e-05
1102,1.19486e-05,-3.18432e-06,4.71186e-05,3.72401e-05,3.12938e-06,-1.07893e-05
1103,1.33247e-05,-2.76323e-05,3.22356e-05,5.03091e-05,8.36404e-06,-1.23769e-05
1104,1.28315e-05,-4.48113e-05,2.85399e-05,5.19562e-05,7.60549e-06,-1.48074e-05
1105,9.16014e-06,-3.01001e-05,4.42352e-05,4.0365e-05,7.13213e-06,-1.45614e-05
1106,5.6477e-06,-7.15858e-06,5.90185e-05,3.58637e-05,1.1703e-05,-1.13115e-05
1107,4.24482e-06,-7.15564e-07,6.15824e-05,3.96373e-05,1.50406e-05,-9.30922e-06
1108,2.38201e-06,1.64704e-06,5.10421e-05,4.23684e-05,1.24978e-05,-7.33317e-06
1109,-8.03845e-07,4.67184e-06,3.73001e-05,4.48339e-05,7.15255e-06,-4.62695e-06
1110,-4.38059e-06,5.6665e-06,3.95219e-05,4.43714e-05,3.5103e-06,-3.91222e-06
1111,-6.06295e-06,-4.89438e-06,5.91339e-05,4.62041e-05,3.17406e-06,-7.18399e-06
1112,-4.35677e-06,-2.70115e-05,7.62758e-05,4.98292e-05,6.03301e-06,-1.04853e-05
1113,-5.37461e-07,-3.47793e-05,7.63961e-05,4.2271e-05,1.04362e-05,-9.42537e-06
1114,4.28271e-06,-1.71945e-05,6.2969e-05,2.96039e-05,1.33033e-05,-8.12693e-06
1115,1.05461e-05,4.56265e-06,4.90006e-05,3.00717e-05,1.34288e-05,-1.08215e-05
1116,1.47847e-05,1.17067e-05,4.92296e-05,4.40053e-05,1.17311e-05,-1.55426e-05
1117,1.21442e-05,9.63229e-07,6.26413e-05,6.14752e-05,9.50944e-06,-1.864e-05
1118,6.89089e-06,-1.94601e-05,7.21967e-05,7.25833e-05,1.02498e-05,-2.00466e-05
1119,7.08122e-06,-2.9874e-05,6.71969e-05,6.84919e-05,1.40888e-05,-2.15243e-05
1120,1.35534e-05,-2.08804e-05,5.14069e-05,5.42211e-05,1.57488e-05,-2.1485e-05
1121,2.23095e-05,-6.6313e-06,3.39061e-05,4.50008e-05,1.30241e-05,-1.66135e-05
1122,2.74486e-05,-2.27168e-06,3.48115e-05,4.40622e-05,7.23683e-06,-1.17471e-05
1123,2.56116e-05,-1.02858e-05,6.07989e-05,4.70161e-05,2.39163e-06,-1.45286e-05
1124,2.06654e-05,-2.96345e-05,8.40033e-05,5.2573e-05,4.30584e-06,-2.25204e-05
1125,1.73822e-05,-4.36891e-05,8.51072e-05,5.22803e-05,1.0088e-05,-2.76448e-05
1126,1.63454e-05,-3.37447e-05,7.82331e-05,4.39208e-05,1.23119e-05,-2.71515e-05
1127,1.6914e-05,-1.17922e-05,7.52936e-05,4.01e-05,1.2224e-05,-2.27635e-05
1128,1.7307e-05,-2.36517e-06,7.49064e-05,4.29545e-05,9.99268e-06,-1.85097e-05
1129,1.71706e-05,-1.19641e-05,6.74212e-05,4.55284e-05,9.10862e-06,-1.72219e-05
1130,1.63762e-05,-3.79582e-05,5.29031e-05,4.97295e-05,1.13959e-05,-1.64113e-05
1131,1.27341e-05,-5.72246e-05,5.17294e-05,4.97278e-05,8.18864e-06,-1.46178e-05
1132,6.09848e-06,-4.12433e-05,6.91498e-05,4.01184e-05,3.57547e-06,-1.25215e-05
1133,1.56124e-06,-1.54912e-05,8.21293e-05,3.65424e-05,8.78036e-06,-8.83403e-06
1134,1.90845e-06,-8.47138e-06,7.59379e-05,3.67144e-05,1.85848e-05,-3.95696e-06
1135,3.28249e-06,-8.26824e-06,5.3144e-05,3.2344e-05,2.04726e-05,2.40889e-07
1136,3.67773e-06,-7.8689e-06,3.02751e-05,3.10908e-05,1.74739e-05,3.93532e-07
1137,4.53619e-06,-7.78586e-06,2.46168e-05,3.4015e-05,1.73745e-05,-3.20598e-06
1138,5.47445e-06,-1.79659e-05,3.3329e-05,4.27898e-05,2.14269e-05,-3.71038e-06
1139,4.84666e-06,-3.76552e-05,4.18454e-05,4.91433e-05,2.76046e-05,-1.27396e-06
1140,3.60212e-06,-4.08269e-05,4.21406e-05,3.70541e-05,3.31343e-05,-1.26931e-06
1141,4.78257e-06,-1.8939e-05,3.42325e-05,1.78098e-05,3.27748e-05,-2.05927e-06
1142,8.10169e-06,3.44589e-06,2.18114e-05,1.42221e-05,2.54281e-05,-1.11391e-06
1143,1.01843e-05,9.68451e-06,1.65733e-05,2.3392e-05,1.79485e-05,-1.29969e-06
1144,1.01529e-05,-1.95044e-06,2.77389e-05,3.68646e-05,1.47737e-05,-3.30176e-06
1145,9.71663e-06,-2.45291e-05,4.46652e-05,4.91374e-05,1.56406e-05,-5.44506e-06
1146,1.0876e-05,-3.67642e-05,5.10146e-05,4.84599e-05,1.69236e-05,-6.23789e-06
1147,1.37826e-05,-2.55626e-05,4.8159e-05,3.37809e-05,1.4531e-05,-5.31987e-06
1148,1.49543e-05,-5.39186e-06,4.29029e-05,2.21058e-05,9.75744e-06,-5.14263e-06
1149,1.36006e-05,3.03006e-06,4.45987e-05,2.43024e-05,6.01505e-06,-1.08804e-05
1150,1.09029e-05,-3.33962e-06,6.09526e-05,3.66524e-05,5.63944e-06,-2.14112e-05
1151,7.68589e-06,-1.79102e-05,7.64548e-05,5.19318e-05,1.20786e-05,-2.64459e-05
1152,7.23547e-06,-2.59719e-05,6.98902e-05,5.59318e-05,1.88745e-05,-1.96527e-05
1153,1.05626e-05,-1.61066e-05,5.00466e-05,4.27703e-05,1.66592e-05,-2.9564e-06
1154,1.28333e-05,8.45752e-07,4.26254e-05,2.63669e-05,1.227e-05,1.70358e-05
1155,9.77015e-06,7.49377e-06,4.92756e-05,1.85205e-05,1.53631e-05,2.77761e-05
1156,5.31841e-06,1.1829e-06,4.86949e-05,2.25753e-05,1.85999e-05,1.94594e-05
1157,3.08897e-06,-1.85226e-05,3.84554e-05,3.72209e-05,1.25158e-05,-2.86821e-06
1158,1.97044e-06,-3.48496e-05,3.75561e-05,4.37266e-05,2.03212e-06,-2.30564e-05
1159,3.17407e-07,-2.12789e-05,5.23238e-05,3.33184e-05,-1.80358e-06,-2.81729e-05
1160,-3.18707e-07,2.18887e-07,6.1771e-05,2.80954e-05,1.77202e-06,-2.28562e-05
1161,8.05421e-07,1.56222e-06,5.60194e-05,3.35759e-05,6.56788e-06,-1.77622e-05
1162,4.39705e-06,-3.16423e-07,4.23108e-05,3.74439e-05,8.74987e-06,-1.55612e-05
1163,1.05046e-05,6.12283e-06,2.88078e-05,3.85782e-05,8.48278e-06,-1.75485e-05
1164,1.6061e-05,1.36628e-05,2.65323e-05,3.7985e-05,5.67525e-06,-2.08935e-05
1165,1.84087e-05,5.97486e-06,4.10481e-05,4.27316e-05,2.60522e-06,-2.00696e-05
1166,1.87008e-05,-1.71733e-05,6.05561e-05,5.13574e-05,3.07218e-06,-1.58265e-05
1167,1.93988e-05,-2.63203e-05,7.02554e-05,4.99066e-05,7.19303e-06,-1.306e-05
1168,2.13465e-05,-6.73459e-06,6.4726e-05,4.01644e-05,1.23688e-05,-1.22823e-05
1169,2.43961e-05,1.78393e-05,4.74094e-05,3.45534e-05,1.42722e-05,-9.24728e-06
1170,2.48333e-05,2.55862e-05,3.71125e-05,3.63234e-05,1.10458e-05,-5.46109e-06
1171,1.95822e-05,1.47419e-05,4.69466e-05,4.45536e-05,6.77738e-06,-5.34079e-06
1172,1.14102e-05,-4.66063e-06,6.19851e-05,5.30714e-05,7.34535e-06,-9.81168e-06
1173,6.74817e-06,-1.20478e-05,6.33142e-05,5.00016e-05,1.18076e-05,-1.49239e-05
1174,8.20538e-06,1.39957e-06,5.36154e-05,3.69217e-05,1.65707e-05,-1.517e-05
1175,1.48847e-05,1.80729e-05,3.96756e-05,2.69902e-05,1.88302e-05,-1.01597e-05
1176,2.02194e-05,1.87138e-05,3.05104e-05,2.47667e-05,1.65401e-05,-5.68657e-06
1177,1.86701e-05,4.6152e-06,3.29669e-05,2.97135e-05,1.11754e-05,-5.76204e-06
1178,1.43913e-05,-1.54948e-05,3.70599e-05,4.12991e-05,9.95236e-06,-7.6753e-06
1179,1.32492e-05,-2.55184e-05,3.3604e-05,4.4897e-05,1.43945e-05,-8.17209e-06
1180,1.48921e-05,-1.15287e-05,2.90505e-05,3.00789e-05,1.80483e-05,-7.17311e-06
1181,1.46708e-05,1.1915e-05,3.27837e-05,1.29669e-05,2.05783e-05,-5.70952e-06
1182,1.32305e-05,1.93698e-05,4.03742e-05,9.35238e-06,2.32469e-05,-3.0906e-06
1183,1.4218e-05,7.39292e-06,3.85092e-05,1.87767e-05,2.33096e-05,5.51594e-07
1184,1.72799e-05,-2.03953e-05,3.14697e-05,3.54475e-05,2.06771e-05,1.49899e-06
1185,1.79336e-05,-4.19582e-05,3.2921e-05,4.05181e-05,1.55868e-05,-5.43657e-07
1186,1.27973e-05,-2.91548e-05,4.24451e-05,2.66396e-05,1.19213e-05,-1.50723e-06
1187,6.70751e-06,-5.0152e-06,4.77671e-05,1.78283e-05,1.37289e-05,-6.58342e-07
1188,5.22378e-06,1.01949e-06,4.51911e-05,1.87286e-05,1.75811e-05,-8.17942e-07
1189,1.05587e-05,-1.45377e-06,3.2085e-05,1.97957e-05,1.93556e-05,-3.22214e-06
1190,1.96774e-05,-1.43696e-06,1.37438e-05,2.27657e-05,1.91722e-05,-6.82214e-06
1191,2.65229e-05,-6.75302e-07,6.51023e-06,2.62899e-05,1.68851e-05,-9.29193e-06
1192,2.83237e-05,-1.1952e-05,1.75302e-05,3.32184e-05,1.35499e-05,-8.44777e-06
1193,2.48712e-05,-3.59766e-05,3.7169e-05,4.12872e-05,1.38999e-05,-5.97574e-06
1194,1.64382e-05,-4.53171e-05,5.3765e-05,3.78321e-05,1.8101e-05,-4.20506e-06
1195,6.78564e-06,-2.55986e-05,5.70405e-05,2.70807e-05,2.02134e-05,-3.04599e-06
1196,2.70139e-06,-5.6608e-07,4.42331e-05,2.45579e-05,1.6234e-05,-1.96832e-06
1197,3.73934e-06,8.4457e-06,3.40323e-05,2.95291e-05,8.19119e-06,-2.72807e-06
1198,3.68149e-06,-6.56649e-07,4.29357e-05,3.85681e-05,3.97552e-06,-5.19321e-06
1199,2.23402e-06,-1.91585e-05,6.26234e-05,4.81968e-05,1.20676e-05,-6.44824e-06
1200,3.12662e-06,-2.81648e-05,7.32959e-05,4.68683e-05,2.74516e-05,-5.1254e-06
1201,6.19995e-06,-1.68011e-05,6.70068e-05,3.3505e-05,3.70004e-05,-3.80386e-06
1202,9.96468e-06,1.69235e-06,4.84077e-05,2.44006e-05,3.88686e-05,-4.52557e-06
1203,1.22786e-05,1.01984e-05,3.56143e-05,2.84807e-05,3.77862e-05,-6.193e-06
1204,1.16566e-05,5.1359e-06,4.33776e-05,4.07609e-05,3.53734e-05,-7.73115e-06
1205,9.79187e-06,-1.07453e-05,6.07612e-05,5.22802e-05,3.78613e-05,-9.39861e-06
1206,9.98168e-06,-2.16045e-05,6.70424e-05,4.99615e-05,4.42358e-05,-9.98964e-06
1207,1.23324e-05,-1.33589e-05,6.49443e-05,3.44108e-05,4.21826e-05,-9.10053e-06
1208,1.26231e-05,3.12394e-06,6.76286e-05,2.56535e-05,2.43746e-05,-9.57926e-06
1209,7.34382e-06,1.09877e-05,7.12153e-05,3.06297e-05,-2.58566e-06,-1.17482e-05
1210,-6.15166e-08,6.70177e-06,6.53294e-05,3.85372e-05,-1.56482e-05,-1.27319e-05
1211,-2.5846e-06,-1.50758e-05,5.39474e-05,4.63584e-05,-4.02409e-06,-1.24957e-05
1212,-1.64556e-06,-3.67417e-05,5.1736e-05,4.89162e-05,1.16475e-05,-1.41439e-05
1213,-1.1601e-06,-2.34346e-05,6.32922e-05,4.29924e-05,1.10982e-05,-1.5989e-05
1214,8.39046e-08,3.62991e-06,7.32478e-05,4.07526e-05,1.75914e-07,-1.49308e-05
1215,2.52147e-06,1.18166e-05,7.3507e-05,4.23375e-05,-5.86942e-06,-9.53365e-06
1216,4.89408e-06,1.06198e-05,6.1917e-05,4.12866e-05,-3.55697e-06,-4.00123e-06
1217,5.14912e-06,5.96571e-06,4.48757e-05,3.98248e-05,1.05753e-06,-5.78972e-06
1218,5.31538e-06,-9.4042e-08,3.9137e-05,4.05557e-05,3.69174e-06,-1.23207e-05
1219,6.78038e-06,-1.01069e-05,5.26855e-05,4.89421e-05,5.26638e-06,-1.52346e-05
1220,8.33752e-06,-2.60307e-05,7.09106e-05,5.82423e-05,9.06221e-06,-1.41407e-05
1221,8.9481e-06,-2.97835e-05,7.56982e-05,5.2803e-05,1.4698e-05,-1.33673e-05
1222,9.40155e-06,-1.06643e-05,6.3358e-05,3.75554e-05,1.76101e-05,-1.29294e-05
1223,8.53621e-06,1.26063e-05,4.22575e-05,3.03019e-05,1.54403e-05,-1.18246e-05
1224,4.79284e-06,2.15487e-05,3.16104e-05,3.49028e-05,8.59541e-06,-1.17146e-05
1225,5.47447e-07,1.01673e-05,4.18012e-05,4.70659e-05,2.38794e-06,-1.19599e-05
1226,-2.31539e-06,-1.33853e-05,5.82497e-05,5.85191e-05,5.67824e-06,-1.19595e-05
1227,-3.59151e-06,-2.48171e-05,6.35035e-05,5.46919e-05,1.6417e-05,-1.29895e-05
1228,-2.52428e-06,-1.13946e-05,5.94538e-05,3.49914e-05,2.46938e-05,-1.07632e-05
1229,1.46442e-06,9.55533e-06,4.88391e-05,1.92133e-05,2.86726e-05,1.05798e-06
1230,5.65648e-06,1.54983e-05,4.24386e-05,1.91462e-05,2.72224e-05,1.80968e-05
1231,7.72927e-06,7.26389e-07,4.91545e-05,3.06649e-05,2.19437e-05,2.66694e-05
1232,8.37987e-06,-2.79224e-05,5.51432e-05,4.57379e-05,1.97661e-05,1.8361e-05
1233,7.71411e-06,-4.5643e-05,5.09908e-05,4.91365e-05,1.8648e-05,-2.77899e-06
1234,6.27385e-06,-3.13147e-05,4.49576e-05,3.49605e-05,1.54676e-05,-2.49366e-05
1235,6.85325e-06,-1.91631e-06,4.37853e-05,2.0136e-05,1.41027e-05,-4.15401e-05
1236,8.97434e-06,1.34584e-05,4.1299e-05,1.7376e-05,1.58328e-05,-5.03074e-05
1237,1.2373e-05,1.05748e-05,3.06671e-05,2.53237e-05,1.88403e-05,-4.52963e-05
1238,1.66368e-05,-9.28389e-06,2.12534e-05,4.06554e-05,1.8932e-05,-2.91283e-05
1239,1.85029e-05,-2.77784e-05,2.73059e-05,4.70929e-05,1.50647e-05,-1.5753e-05
1240,1.65054e-05,-1.74036e-05,5.07765e-05,3.51235e-05,1.39441e-05,-1.03175e-05
1241,1.41915e-05,3.82998e-06,6.88826e-05,2.68584e-05,1.65322e-05,-9.71477e-06
1242,1.25927e-05,1.10606e-05,7.219e-05,3.15675e-05,1.68087e-05,-1.28627e-05
1243,1.39229e-05,1.08654e-05,6.39468e-05,3.82691e-05,1.3185e-05,-1.84362e-05
1244,1.74559e-05,8.85683e-06,4.97199e-05,4.44244e-05,9.00728e-06,-2.32175e-05
1245,1.74096e-05,7.32142e-06,4.37159e-05,4.90256e-05,6.62121e-06,-2.26806e-05
1246,1.22215e-05,-1.45773e-06,5.38365e-05,5.46628e-05,9.03803e-06,-1.59742e-05
1247,7.10198e-06,-2.19397e-05,6.89373e-05,5.71825e-05,1.63973e-05,-6.89201e-06
1248,5.95911e-06,-3.35007e-05,7.43721e-05,4.52682e-05,2.30278e-05,3.06965e-06
1249,8.10074e-06,-2.00954e-05,6.57093e-05,2.77e-05,2.34962e-05,1.40288e-05
1250,1.2417e-05,2.10236e-06,4.77222e-05,2.12897e-05,1.75985e-05,2.09416e-05
1251,1.64597e-05,1.27221e-05,3.81802e-05,2.46824e-05,9.23842e-06,2.06943e-05
1252,1.68221e-05,5.09708e-06,4.79757e-05,3.46146e-05,3.7381e-06,1.88389e-05
1253,1.4484e-05,-1.42598e-05,6.50922e-05,4.8308e-05,6.64904e-06,1.94395e-05
1254,1.42374e-05,-2.41634e-05,7.02129e-05,5.23492e-05,1.49992e-05,1.59454e-05
1255,1.66338e-05,-1.3011e-05,6.0057e-05,4.1707e-05,2.00103e-05,1.26032e-06
1256,2.01914e-05,5.22043e-06,4.04077e-05,2.868e-05,2.38311e-05,-1.92526e-05
1257,2.23907e-05,1.32951e-05,3.02308e-05,2.34103e-05,2.79738e-05,-3.34825e-05
1258,2.00083e-05,6.60882e-06,4.26909e-05,2.84851e-05,2.66356e-05,-3.66568e-05
1259,1.33439e-05,-1.2948e-05,5.82587e-05,4.14452e-05,2.0413e-05,-3.53882e-05
1260,9.76415e-06,-2.64265e-05,5.92674e-05,4.58866e-05,1.05375e-05,-3.52996e-05
1261,1.19781e-05,-1.54367e-05,5.78087e-05,3.32902e-05,2.53687e-06,-3.45857e-05
1262,1.36061e-05,6.16658e-06,6.28251e-05,2.15298e-05,1.03417e-06,-3.16194e-05
1263,1.32348e-05,1.46754e-05,6.76e-05,2.14795e-05,5.07514e-06,-2.74756e-05
1264,1.52465e-05,5.01843e-06,6.26005e-05,2.68453e-05,1.33692e-05,-2.16259e-05
1265,1.87536e-05,-2.12504e-05,5.06179e-05,3.40128e-05,1.93612e-05,-1.43026e-05
1266,1.87624e-05,-3.97788e-05,4.8782e-05,3.30891e-05,1.7926e-05,-9.5205e-06
1267,1.45854e-05,-2.04988e-05,6.67749e-05,1.96995e-05,1.36684e-05,-8.92341e-06
1268,1.13859e-05,9.90399e-06,8.45532e-05,1.22757e-05,1.5569e-05,-6.87472e-06
1269,1.07337e-05,1.91974e-05,8.47544e-05,1.56606e-05,2.34e-05,1.18716e-06
1270,1.231e-05,1.82842e-05,6.80378e-05,2.01062e-05,2.76654e-05,8.01794e-06
1271,1.34586e-05,1.53576e-05,4.87526e-05,2.55354e-05,2.06747e-05,7.30848e-06
1272,1.16418e-05,1.10669e-05,4.54316e-05,3.07875e-05,5.8486e-06,3.14749e-06
1273,7.65746e-06,1.69442e-06,5.7003e-05,3.5471e-05,-4.20104e-06,-7.83234e-09
1274,5.93321e-06,-1.53131e-05,6.56669e-05,3.64516e-05,4.1247e-07,-7.7838e-07
1275,8.50461e-06,-2.43942e-05,6.37691e-05,2.92601e-05,1.52108e-05,2.93189e-07
1276,1.33017e-05,-1.39172e-05,5.5356e-05,2.09343e-05,2.7223e-05,2.11982e-06
1277,1.79168e-05,1.75989e-06,4.45175e-05,2.07952e-05,2.91492e-05,4.94186e-06
1278,2.05309e-05,7.52238e-06,4.12731e-05,2.56347e-05,2.06785e-05,6.88619e-06
1279,2.14674e-05,-2.49761e-06,5.0303e-05,3.41464e-05,9.2008e-06,4.413e-06
1280,2.15176e-05,-2.36507e-05,6.35787e-05,4.51968e-05,6.70403e-06,-3.09544e-07
1281,2.04841e-05,-3.57453e-05,6.99817e-05,4.55786e-05,1.44548e-05,-1.92207e-06
1282,1.75508e-05,-2.59741e-05,6.24552e-05,3.1499e-05,2.06325e-05,9.81371e-07
1283,1.40223e-05,-7.78982e-06,4.26885e-05,1.71017e-05,1.90178e-05,4.44512e-06
1284,1.39568e-05,-1.01828e-06,3.16805e-05,1.31584e-05,1.56254e-05,4.03473e-06
1285,1.72127e-05,-1.01992e-05,4.0828e-05,2.18311e-05,1.61284e-05,-1.08359e-06
1286,1.81132e-05,-2.92836e-05,5.34577e-05,3.88971e-05,2.16844e-05,-6.70599e-06
1287,1.86328e-05,-3.76321e-05,5.80183e-05,4.45511e-05,2.90305e-05,-7.03855e-06
1288,2.04366e-05,-2.00252e-05,6.18517e-05,3.168e-05,3.23183e-05,-1.60299e-06
1289,2.36683e-05,6.06343e-06,6.73714e-05,2.11138e-05,3.34506e-05,4.04435e-06
1290,2.80072e-05,1.57269e-05,6.50991e-05,2.55701e-05,3.38784e-05,4.95845e-06
1291,3.08453e-05,5.39649e-06,4.8969e-05,3.94635e-05,3.27071e-05,1.08173e-06
1292,2.97749e-05,-1.96074e-05,3.54607e-05,5.45439e-05,2.85184e-05,-4.52316e-06
1293,2.72538e-05,-3.78796e-05,4.15551e-05,5.52993e-05,2.02474e-05,-8.80958e-06
1294,2.70503e-05,-2.51881e-05,6.11234e-05,3.90227e-05,1.28119e-05,-1.07957e-05
1295,2.85955e-05,-3.51949e-06,7.37494e-05,3.09051e-05,9.12951e-06,-1.15677e-05
1296,2.91571e-05,8.66063e-07,7.2045e-05,3.4973e-05,9.17412e-06,-1.37252e-05
1297,2.94951e-05,5.8954e-07,6.01309e-05,3.62465e-05,1.16213e-05,-1.55139e-05
1298,3.09667e-05,2.60952e-06,4.45847e-05,3.40613e-05,1.27576e-05,-1.5442e-05
1299,3.11942e-05,1.74569e-06,3.57975e-05,3.16357e-05,9.06729e-06,-1.4874e-05
1300,2.81701e-05,-9.93729e-06,4.15116e-05,3.66147e-05,4.18727e-06,-1.63885e-05
1301,2.28621e-05,-3.11955e-05,5.32606e-05,4.64779e-05,4.21149e-06,-2.52212e-05
1302,1.80104e-05,-3.87098e-05,5.47072e-05,4.60534e-05,6.81001e-06,-3.89725e-05
1303,1.58968e-05,-2.07391e-05,4.14959e-05,3.5164e-05,4.95107e-06,-4.49821e-05
1304,1.63595e-05,1.29363e-06,2.34782e-05,2.72942e-05,-1.46763e-06,-3.30812e-05
1305,1.6577e-05,7.56634e-06,1.82481e-05,2.82217e-05,-7.91334e-06,-3.76725e-06
1306,1.46276e-05,-4.63897e-06,3.46131e-05,4.01434e-05,-1.04031e-05,3.15466e-05
1307,9.94819e-06,-2.58289e-05,5.99137e-05,5.57883e-05,-3.39418e-06,5.72093e-05
1308,5.64823e-06,-3.44666e-05,7.23326e-05,5.6445e-05,1.28859e-05,6.08751e-05
1309,5.33019e-06,-1.90088e-05,6.47728e-05,4.18886e-05,2.44616e-05,3.78957e-05
1310,8.81679e-06,3.92127e-06,4.55602e-05,3.21931e-05,1.88636e-05,-4.20461e-07
1311,1.14605e-05,1.36347e-05,3.46543e-05,3.65962e-05,2.66495e-06,-3.13378e-05
1312,1.01926e-05,7.42113e-06,4.33618e-05,4.73358e-05,-6.50183e-06,-4.20248e-05
1313,8.93625e-06,-8.67172e-06,6.15105e-05,5.64014e-05,1.66616e-06,-3.66262e-05
1314,1.39493e-05,-1.78868e-05,7.58003e-05,5.31368e-05,1.70178e-05,-2.38565e-05
1315,2.10162e-05,-4.38079e-06,8.3814e-05,3.72037e-05,2.27178e-05,-1.11972e-05
1316,2.29324e-05,1.83033e-05,8.65572e-05,2.6194e-05,2.05382e-05,-3.74961e-06
1317,2.35567e-05,2.56416e-05,8.59361e-05,2.74411e-05,1.94928e-05,-2.25712e-06
1318,2.71589e-05,1.56663e-05,7.61174e-05,3.56626e-05,2.25298e-05,-5.26921e-06
1319,3.08328e-05,-6.93616e-06,5.5816e-05,4.75309e-05,2.74397e-05,-9.32676e-06
1320,3.14359e-05,-2.20012e-05,4.58043e-05,4.79388e-05,2.67633e-05,-9.59214e-06
1321,2.71373e-05,-5.06645e-06,5.64408e-05,3.23416e-05,2.04094e-05,-5.70392e-06
1322,1.86953e-05,1.93215e-05,6.83361e-05,2.45603e-05,1.39816e-05,-3.31003e-06
1323,1.10243e-05,2.33749e-05,6.66493e-05,2.88757e-05,1.18404e-05,-4.20719e-06
1324,7.90701e-06,1.91442e-05,5.07685e-05,3.35328e-05,1.22303e-05,-5.59812e-06
1325,7.33528e-06,1.88717e-05,3.52186e-05,3.51969e-05,9.15804e-06,-5.43523e-06
1326,6.5467e-06,2.35234e-05,3.57934e-05,3.23004e-05,1.00606e-06,-1.02924e-06
1327,6.02846e-06,1.8766e-05,4.98982e-05,3.29378e-05,-4.53878e-06,3.34287e-06
1328,5.93653e-06,-2.7073e-06,5.9632e-05,3.96379e-05,-1.02867e-06,1.39763e-06
1329,3.65691e-06,-1.72399e-05,5.65021e-05,4.02999e-05,3.97728e-06,-3.16144e-06
1330,-7.19445e-07,-7.8636e-06,4.53823e-05,3.2507e-05,-4.42023e-07,-4.99237e-06
1331,-2.45752e-06,9.21614e-06,3.28969e-05,2.67848e-05,-1.37756e-05,-5.40007e-06
1332,-5.8496e-07,1.64381e-05,3.2624e-05,2.79135e-05,-2.49848e-05,-6.31319e-06
1333,1.01987e-06,8.42436e-06,5.11667e-05,3.65718e-05,-2.37584e-05,-6.62541e-06
1334,5.10422e-07,-1.05042e-05,7.1251e-05,4.70991e-05,-7.80575e-06,-7.34363e-06
1335,-1.4307e-06,-2.27272e-05,7.71611e-05,4.61859e-05,1.554e-05,-9.76814e-06
1336,-2.49512e-06,-1.48906e-05,7.22556e-05,3.36591e-05,3.59425e-05,-1.10902e-05
1337,-3.29223e-07,4.41809e-06,5.96035e-05,2.6007e-05,4.47332e-05,-8.92431e-06
1338,2.65079e-06,1.70059e-05,5.06077e-05,3.12471e-05,3.77026e-05,-6.55916e-06
1339,1.31583e-06,1.28277e-05,5.7347e-05,4.4115e-05,2.08855e-05,-8.66008e-06
1340,-3.03549e-06,-7.58075e-06,6.67514e-05,5.7216e-05,8.72302e-06,-1.31854e-05
1341,-3.73168e-06,-2.47486e-05,6.16877e-05,5.73424e-05,5.31181e-06,-1.53613e-05
1342,-2.22676e-06,-1.75007e-05,5.14068e-05,4.25644e-05,5.79561e-06,-1.51872e-05
1343,-3.18878e-06,4.67173e-06,4.88593e-05,3.03353e-05,1.09401e-05,-1.40869e-05
1344,-6.22897e-06,1.86988e-05,5.20324e-05,3.09405e-05,1.92294e-05,-1.25945e-05
1345,-9.14854e-06,1.76024e-05,4.64829e-05,4.3055e-05,2.59501e-05,-1.08192e-05
1346,-1.08581e-05,-2.28543e-06,3.33567e-05,6.09548e-05,2.74322e-05,-7.87508e-06
1347,-1.152e-05,-2.27565e-05,2.87894e-05,6.58184e-05,2.4957e-05,-5.98924e-06
1348,-1.12791e-05,-1.25182e-05,3.66161e-05,5.04627e-05,2.68928e-05,-5.20888e-06
1349,-8.98516e-06,1.00584e-05,4.73479e-05,3.85696e-05,3.45138e-05,-1.94016e-06
1350,-5.9051e-06,1.82322e-05,5.21725e-05,3.80762e-05,4.10076e-05,2.86504e-07
1351,-4.38061e-06,1.811e-05,4.52601e-05,3.75513e-05,4.26831e-05,-2.18222e-06
1352,-4.17447e-06,1.43996e-05,3.29423e-05,3.64289e-05,4.00892e-05,-4.81213e-06
1353,-5.90296e-06,1.20944e-05,3.12941e-05,3.69281e-05,3.05335e-05,-3.14411e-06
1354,-7.53949e-06,5.06349e-06,4.33745e-05,4.08482e-05,1.10011e-05,7.51247e-07
1355,-4.763e-06,-1.18729e-05,5.685e-05,4.30264e-05,-1.13619e-05,5.34494e-06
1356,3.53206e-07,-1.98923e-05,5.99886e-05,3.74209e-05,-2.31353e-05,1.11688e-05
1357,2.28008e-06,-7.65117e-06,4.99194e-05,2.94439e-05,-1.89235e-05,1.74533e-05
1358,1.54737e-06,9.07696e-06,3.48166e-05,2.46989e-05,-5.25483e-06,2.2517e-05
1359,-1.01318e-07,1.63188e-05,3.28186e-05,2.4238e-05,5.95742e-06,2.50122e-05
1360,-3.14511e-06,9.1606e-06,4.87677e-05,3.43464e-05,8.81228e-06,2.43365e-05
1361,-5.48472e-06,-1.01388e-05,6.42445e-05,5.10906e-05,9.4601e-06,2.2128e-05
1362,-6.75418e-06,-2.3012e-05,6.59646e-05,5.53721e-05,1.52637e-05,2.21344e-05
1363,-8.57125e-06,-1.52906e-05,6.04512e-05,4.36982e-05,2.21231e-05,2.55603e-05
1364,-7.97642e-06,2.07197e-06,5.28908e-05,3.44182e-05,2.15305e-05,2.9614e-05
1365,-2.68601e-06,9.80927e-06,4.95968e-05,3.77304e-05,1.32934e-05,3.13207e-05
1366,2.20541e-06,3.35162e-07,5.78485e-05,4.89581e-05,4.06467e-06,2.87027e-05
1367,3.55208e-06,-2.36533e-05,6.87646e-05,5.99805e-05,4.60245e-06,2.13409e-05
1368,4.49694e-06,-3.96457e-05,6.81215e-05,5.7476e-05,1.47577e-05,1.3681e-05
1369,5.98896e-06,-2.6181e-05,5.58129e-05,4.0666e-05,2.27436e-05,9.5926e-06
1370,7.87481e-06,8.28446e-07,4.51585e-05,2.94716e-05,2.50758e-05,8.45629e-06
1371,1.1589e-05,1.22509e-05,4.48889e-05,3.30719e-05,2.14897e-05,8.07585e-06
1372,1.80952e-05,1.21309e-06,4.56042e-05,4.37459e-05,1.53598e-05,8.51932e-06
1373,2.62354e-05,-2.77826e-05,4.13891e-05,5.68011e-05,1.65795e-05,8.9132e-06
1374,3.17683e-05,-4.92205e-05,4.15054e-05,6.24569e-05,2.29374e-05,6.61443e-06
1375,3.25485e-05,-3.60938e-05,5.46688e-05,5.27219e-05,2.5552e-05,2.01814e-06
1376,3.12001e-05,-1.0098e-05,6.92736e-05,4.05844e-05,2.36037e-05,-4.29845e-08
1377,2.9209e-05,1.41675e-06,7.12579e-05,3.33484e-05,2.03566e-05,-1.89622e-06
1378,2.6791e-05,2.38265e-06,5.55497e-05,2.99703e-05,1.81518e-05,-7.42263e-06
1379,2.42103e-05,1.65887e-06,3.13955e-05,3.41593e-05,1.85171e-05,-1.14878e-05
1380,2.21467e-05,2.62029e-06,2.06663e-05,4.05092e-05,2.0117e-05,-1.22284e-05
1381,2.21295e-05,-5.78916e-06,3.20726e-05,4.65762e-05,2.2996e-05,-1.31766e-05
1382,2.41321e-05,-2.60334e-05,4.9788e-05,4.98783e-05,2.75861e-05,-1.66215e-05
1383,2.57868e-05,-3.49961e-05,5.69131e-05,4.43639e-05,2.98361e-05,-1.97471e-05
1384,2.67658e-05,-2.16676e-05,5.03053e-05,3.63005e-05,2.69667e-05,-1.98012e-05
1385,2.92069e-05,-5.07254e-06,3.57191e-05,3.45966e-05,2.1913e-05,-1.78514e-05
1386,3.1185e-05,-3.50315e-07,3.01529e-05,3.63499e-05,1.72519e-05,-1.72991e-05
1387,2.83412e-05,-9.10178e-06,4.05968e-05,4.08872e-05,1.46227e-05,-1.75126e-05
1388,2.16607e-05,-2.64051e-05,5.01531e-05,4.87064e-05,1.72652e-05,-1.67576e-05
1389,1.67148e-05,-3.66828e-05,4.7146e-05,4.83649e-05,2.32014e-05,-1.76308e-05
1390,1.46875e-05,-2.79518e-05,3.99788e-05,3.57813e-05,2.52211e-05,-2.10604e-05
1391,1.34106e-05,-1.09727e-05,3.43371e-05,2.56454e-05,2.19874e-05,-2.32699e-05
1392,1.26725e-05,-3.96468e-06,3.54256e-05,2.80412e-05,1.65872e-05,-2.22885e-05
1393,1.15774e-05,-1.18734e-05,4.97607e-05,3.87418e-05,1.11057e-05,-2.1634e-05
1394,7.38285e-06,-3.10041e-05,6.67026e-05,5.02344e-05,1.33874e-05,-2.3565e-05
1395,2.48064e-06,-4.49245e-05,7.12245e-05,5.06325e-05,2.1358e-05,-2.51066e-05
1396,3.26632e-06,-3.52536e-05,7.10365e-05,3.77218e-05,2.08721e-05,-2.41586e-05
1397,7.26207e-06,-1.27144e-05,7.68909e-05,2.79914e-05,1.09889e-05,-2.13755e-05
1398,8.34519e-06,-2.38955e-06,8.33373e-05,3.06241e-05,1.6054e-06,-1.28066e-05
1399,7.19448e-06,-9.97139e-06,7.48387e-05,4.01773e-05,-2.99622e-06,1.78439e-06
1400,6.73834e-06,-3.55689e-05,5.12533e-05,5.15707e-05,-3.90453e-06,1.29576e-05
1401,7.6557e-06,-5.79757e-05,3.85555e-05,5.39536e-05,-4.03829e-06,1.09952e-05
1402,8.24466e-06,-4.49776e-05,5.16318e-05,4.38494e-05,-2.01436e-06,-7.08028e-06
1403,8.95007e-06,-1.74264e-05,7.10677e-05,3.80088e-05,5.52124e-06,-3.24182e-05
1404,1.06852e-05,-7.95175e-06,7.82884e-05,3.69039e-05,1.52256e-05,-5.32947e-05
1405,1.22442e-05,-8.77965e-06,6.95567e-05,3.16392e-05,2.07482e-05,-6.3855e-05
1406,1.2858e-05,-8.19584e-06,5.16701e-05,2.83834e-05,1.95505e-05,-6.00981e-05
1407,1.45574e-05,-7.39625e-06,4.20345e-05,3.25868e-05,1.31365e-05,-4.52641e-05
1408,1.79093e-05,-1.6719e-05,5.05436e-05,4.70817e-05,6.12476e-06,-3.0002e-05
1409,2.06696e-05,-3.64264e-05,6.35229e-05,6.00102e-05,4.10004e-06,-2.20282e-05
1410,2.22463e-05,-4.43697e-05,6.5815e-05,5.18068e-05,7.24276e-06,-1.98683e-05
1411,2.42967e-05,-2.94154e-05,5.57396e-05,3.12678e-05,1.23007e-05,-1.92948e-05
1412,2.73149e-05,-1.0709e-05,3.95899e-05,2.35682e-05,1.55595e-05,-1.64657e-05
1413,2.91475e-05,-3.70688e-06,3.23659e-05,3.28494e-05,1.37428e-05,-1.19293e-05
1414,2.69425e-05,-1.02986e-05,4.32231e-05,4.71489e-05,8.51549e-06,-9.99077e-06
1415,2.17403e-05,-2.6136e-05,6.11526e-05,5.40045e-05,6.44343e-06,-1.2121e-05
1416,1.87325e-05,-3.6179e-05,6.63178e-05,4.67305e-05,9.74542e-06,-1.42789e-05
1417,2.00313e-05,-2.79514e-05,5.23593e-05,3.17892e-05,1.35035e-05,-1.02253e-05
1418,2.34971e-05,-1.01226e-05,3.19956e-05,2.08702e-05,1.37571e-05,-2.53978e-06
1419,2.44692e-05,1.52633e-06,2.76973e-05,1.75753e-05,1.10641e-05,1.68014e-06
1420,1.9746e-05,-4.30232e-08,4.42297e-05,2.22487e-05,7.6856e-06,1.56045e-06
1421,1.61631e-05,-1.48261e-05,5.99706e-05,3.48848e-05,8.13227e-06,-9.68166e-07
1422,2.02293e-05,-2.52169e-05,5.68782e-05,4.25251e-05,1.1099e-05,-7.44012e-06
1423,2.54223e-05,-1.29035e-05,4.55918e-05,3.49432e-05,1.21188e-05,-2.2285e-05
1424,2.63832e-05,1.03536e-05,3.59031e-05,2.31815e-05,1.4031e-05,-4.83013e-05
1425,2.46359e-05,1.96067e-05,3.15606e-05,2.13474e-05,1.49636e-05,-7.35768e-05
1426,2.51091e-05,7.95284e-06,3.44382e-05,3.22964e-05,1.31079e-05,-7.91805e-05
1427,2.89316e-05,-2.07684e-05,3.66946e-05,5.0654e-05,1.24118e-05,-6.04236e-05
1428,3.11835e-05,-4.12226e-05,4.24252e-05,5.68681e-05,1.33746e-05,-3.262e-05
1429,2.85072e-05,-2.35428e-05,5.90341e-05,4.14177e-05,1.48127e-05,-1.40099e-05
1430,2.34971e-05,6.25944e-06,7.48076e-05,2.59694e-05,1.78353e-05,-1.25501e-05
1431,2.09924e-05,1.37274e-05,7.53855e-05,2.03879e-05,2.03472e-05,-2.47162e-05
1432,2.26815e-05,9.27852e-06,5.66908e-05,2.03584e-05,1.95932e-05,-3.43511e-05
1433,2.52995e-05,6.85162e-06,3.13999e-05,2.37433e-05,1.60477e-05,-3.01106e-05
1434,2.30377e-05,9.78285e-06,2.12483e-05,2.56737e-05,1.12776e-05,-1.82312e-05
1435,1.73355e-05,5.55965e-06,3.32464e-05,3.04262e-05,1.03688e-05,-1.12464e-05
1436,1.47713e-05,-1.36056e-05,5.24851e-05,3.60816e-05,1.56777e-05,-1.29946e-05
1437,1.54772e-05,-2.27709e-05,6.21356e-05,3.24833e-05,2.39812e-05,-1.67107e-05
1438,1.47989e-05,-6.22146e-06,5.65183e-05,2.4451e-05,3.06383e-05,-1.69325e-05
1439,1.19896e-05,1.36772e-05,4.19934e-05,2.5452e-05,3.4727e-05,-1.60047e-05
1440,1.01772e-05,1.80412e-05,3.47884e-05,3.39799e-05,3.56763e-05,-1.79833e-05
1441,9.85745e-06,6.22064e-06,4.39175e-05,4.47715e-05,3.07183e-05,-2.17738e-05
1442,9.28304e-06,-1.37088e-05,5.79008e-05,5.53324e-05,2.01809e-05,-2.32974e-05
1443,9.01958e-06,-2.40798e-05,6.28804e-05,5.63757e-05,1.08762e-05,-2.25911e-05
1444,8.91155e-06,-1.3643e-05,5.89938e-05,4.42098e-05,8.78856e-06,-2.31738e-05
1445,8.35394e-06,4.8603e-06,4.75891e-05,3.03093e-05,1.21598e-05,-2.50955e-05
1446,6.94885e-06,1.12754e-05,3.73379e-05,2.41864e-05,1.4636e-05,-2.51216e-05
1447,5.13463e-06,1.32462e-07,4.19067e-05,2.67879e-05,1.30628e-05,-2.23352e-05
1448,5.76279e-06,-2.09256e-05,5.39185e-05,3.68759e-05,1.37e-05,-1.77675e-05
1449,7.95553e-06,-3.10964e-05,5.45379e-05,4.21078e-05,1.73977e-05,-1.40018e-05
1450,8.98616e-06,-1.66718e-05,4.44559e-05,3.14546e-05,1.76197e-05,-1.3355e-05
1451,8.82076e-06,7.50279e-06,4.12374e-05,1.74525e-05,1.48873e-05,-1.55074e-05
1452,6.5153e-06,1.91011e-05,4.75155e-05,1.45003e-05,1.17648e-05,-1.84785e-05
1453,4.90787e-06,1.06031e-05,4.41812e-05,2.10914e-05,8.15153e-06,-2.05635e-05
1454,5.99388e-06,-1.54835e-05,3.06385e-05,3.64364e-05,4.71962e-06,-1.99141e-05
1455,6.88009e-06,-3.25395e-05,3.06359e-05,4.71779e-05,3.67768e-06,-1.32716e-05
1456,6.33079e-06,-1.26745e-05,4.97174e-05,3.91737e-05,5.97484e-06,3.74296e-06
1457,6.88928e-06,1.65948e-05,6.47125e-05,2.87011e-05,1.07009e-05,2.25765e-05
1458,9.34891e-06,2.34669e-05,6.7171e-05,2.76391e-05,1.4328e-05,2.31959e-05
1459,1.01736e-05,2.07593e-05,5.94846e-05,2.88967e-05,1.46989e-05,6.58096e-07
1460,7.49184e-06,1.8772e-05,4.82257e-05,3.11544e-05,1.36976e-05,-2.96689e-05
1461,1.58279e-06,1.82242e-05,4.74822e-05,3.39841e-05,1.20017e-05,-5.01297e-05
1462,-4.74834e-06,1.04169e-05,5.81777e-05,3.86351e-05,9.29292e-06,-5.57285e-05
1463,-9.43567e-06,-9.87547e-06,6.60249e-05,4.32601e-05,7.86348e-06,-5.20031e-05
1464,-1.18155e-05,-2.05839e-05,6.35152e-05,3.76429e-05,1.08357e-05,-4.70789e-05
1465,-1.21154e-05,-6.68749e-06,5.31564e-05,2.62683e-05,1.57094e-05,-4.18134e-05
1466,-1.17172e-05,1.17838e-05,3.81825e-05,2.25157e-05,1.73971e-05,-3.47888e-05
1467,-1.2134e-05,1.5228e-05,3.06319e-05,2.68243e-05,1.40768e-05,-2.82487e-05
1468,-1.38484e-05,1.31478e-06,3.98732e-05,3.67285e-05,1.02351e-05,-2.36742e-05
1469,-1.55878e-05,-2.07022e-05,5.29914e-05,4.68143e-05,1.19886e-05,-1.95658e-05
1470,-1.65338e-05,-3.00671e-05,5.33265e-05,4.51932e-05,1.92018e-05,-1.40135e-05
1471,-1.53142e-05,-1.65686e-05,4.37263e-05,3.15605e-05,2.48414e-05,-8.33531e-06
1472,-1.03314e-05,4.84314e-06,2.95283e-05,2.13876e-05,2.47958e-05,-5.22887e-06
1473,-4.51844e-06,1.44837e-05,2.33711e-05,2.42634e-05,2.13195e-05,-6.41016e-06
1474,-3.14738e-06,7.79752e-06,3.90714e-05,3.63666e-05,1.51371e-05,-1.04048e-05
1475,-2.33465e-06,-9.59318e-06,5.97344e-05,4.99951e-05,7.07008e-06,-1.3935e-05
1476,1.70036e-06,-1.99089e-05,6.37319e-05,5.38611e-05,1.15909e-06,-1.58022e-05
1477,3.87193e-06,-8.3043e-06,5.7783e-05,4.48199e-05,2.09399e-07,-1.67355e-05
1478,3.52512e-06,1.19591e-05,5.79345e-05,3.61423e-05,5.2314e-06,-1.71663e-05
1479,3.97354e-06,1.91588e-05,6.36096e-05,3.73502e-05,1.69017e-05,-1.8575e-05
1480,7.84222e-06,1.14564e-05,5.95021e-05,4.59393e-05,2.71674e-05,-2.04e-05
1481,1.50787e-05,-1.08352e-05,4.57368e-05,5.85674e-05,2.21185e-05,-1.83624e-05
1482,2.09554e-05,-2.8346e-05,4.2481e-05,6.16578e-05,6.74957e-06,-1.28561e-05
1483,2.18214e-05,-1.19735e-05,5.47247e-05,4.93588e-05,-5.38665e-07,-1.14401e-05
1484,2.02246e-05,1.38221e-05,6.06852e-05,4.26947e-05,4.79741e-06,-1.21296e-05
1485,1.96566e-05,2.15906e-05,5.56535e-05,4.34166e-05,1.40939e-05,-8.82379e-06
1486,1.97991e-05,2.36165e-05,4.78155e-05,4.24047e-05,2.21503e-05,-6.33431e-06
1487,2.0405e-05,2.48473e-05,4.24328e-05,4.2853e-05,2.83496e-05,-8.0347e-06
1488,2.08011e-05,1.9934e-05,4.67478e-05,4.38776e-05,2.87034e-05,-8.68267e-06
1489,1.96586e-05,2.79282e-06,5.99615e-05,4.70626e-05,2.02562e-05,-7.32902e-06
1490,1.51288e-05,-2.23184e-05,6.86952e-05,4.78713e-05,6.67951e-06,-7.42872e-06
1491,1.02299e-05,-3.22434e-05,6.52132e-05,3.90585e-05,-4.70486e-06,-9.05736e-06
1492,1.11599e-05,-1.56259e-05,5.23433e-05,2.63711e-05,-1.02192e-05,-1.08815e-05
1493,1.77975e-05,6.48988e-06,3.63696e-05,2.16484e-05,-9.24136e-06,-1.27593e-05
1494,2.35124e-05,1.59359e-05,3.0225e-05,2.6159e-05,-4.70349e-06,-1.3487e-05
1495,2.44349e-05,8.3687e-06,4.09261e-05,3.6999e-05,8.63216e-07,-1.1628e-05
1496,2.24224e-05,-1.19088e-05,5.61627e-05,4.75774e-05,9.88814e-06,-9.23914e-06
1497,2.05835e-05,-2.45935e-05,6.14275e-05,4.63716e-05,2.20991e-05,-9.87743e-06
1498,2.04044e-05,-1.60528e-05,5.50583e-05,3.49776e-05,3.0424e-05,-1.43699e-05
1499,2.05478e-05,-2.11259e-06,4.11178e-05,2.76842e-05,2.98861e-05,-2.00951e-05
1500,1.91639e-05,-2.28158e-06,3.71544e-05,2.86084e-05,2.15877e-05,-2.46101e-05
1501,1.58184e-05,-1.56954e-05,5.35669e-05,3.60378e-05,1.36554e-05,-2.54377e-05
1502,1.31777e-05,-3.45625e-05,7.22908e-05,5.03153e-05,1.50221e-05,-2.32534e-05
1503,1.41873e-05,-4.17629e-05,7.50517e-05,5.6509e-05,2.12284e-05,-2.23298e-05
1504,1.8761e-05,-2.43931e-05,6.76732e-05,4.58179e-05,2.15326e-05,-2.35845e-05
1505,2.4357e-05,-5.10022e-07,6.55935e-05,3.544e-05,1.64399e-05,-2.37127e-05
1506,2.78705e-05,6.12991e-06,6.82443e-05,3.68073e-05,1.299e-05,-2.27761e-05
1507,3.00805e-05,-4.85142e-06,5.89861e-05,4.61773e-05,1.34691e-05,-2.44177e-05
1508,3.44401e-05,-2.84883e-05,4.16429e-05,6.09397e-05,1.6708e-05,-2.82215e-05
1509,3.94327e-05,-4.69142e-05,3.94355e-05,6.70651e-05,1.65525e-05,-3.00704e-05
1510,4.182e-05,-3.70909e-05,5.81993e-05,5.78568e-05,1.16697e-05,-2.77855e-05
1511,4.27714e-05,-1.74756e-05,7.42615e-05,4.96002e-05,9.05062e-06,-2.24382e-05
1512,4.40962e-05,-9.47508e-06,7.66102e-05,4.4565e-05,1.31423e-05,-1.938e-05
1513,4.51946e-05,-3.67671e-06,6.61366e-05,3.73591e-05,2.09521e-05,-1.84024e-05
1514,4.54079e-05,-1.97631e-07,4.74044e-05,3.52512e-05,2.34534e-05,-1.64668e-05
1515,4.30378e-05,-1.25265e-06,3.7608e-05,3.79718e-05,1.79865e-05,-1.71131e-05
1516,3.86717e-05,-8.97351e-06,4.48546e-05,4.35996e-05,1.32833e-05,-2.22242e-05
1517,3.46967e-05,-2.46862e-05,5.43802e-05,4.84981e-05,1.56665e-05,-2.69484e-05
1518,3.19427e-05,-3.11004e-05,5.19698e-05,4.08663e-05,1.95157e-05,-2.61553e-05
1519,3.00994e-05,-1.81507e-05,4.07952e-05,2.69986e-05,1.87521e-05,-1.98476e-05
1520,2.92128e-05,-2.9132e-06,2.92914e-05,2.30331e-05,1.35968e-05,-1.2856e-05
1521,2.8722e-05,-5.24682e-08,2.76555e-05,2.96742e-05,5.32535e-06,-1.10947e-05
1522,2.61123e-05,-1.17883e-05,3.75003e-05,4.32274e-05,4.21193e-08,-1.40217e-05
1523,2.11214e-05,-3.10615e-05,4.89592e-05,5.68563e-05,5.13493e-06,-1.73265e-05
1524,1.69558e-05,-3.77391e-05,5.52529e-05,5.75819e-05,1.56274e-05,-1.91612e-05
1525,1.45088e-05,-2.20154e-05,5.49134e-05,4.60592e-05,2.05569e-05,-2.04638e-05
1526,1.2493e-05,-2.60898e-07,4.18521e-05,3.59252e-05,1.91285e-05,-2.09038e-05
1527,1.13056e-05,8.4603e-06,2.58504e-05,3.38163e-05,1.58702e-05,-1.92514e-05
1528,1.02983e-05,4.85978e-07,2.51802e-05,4.11787e-05,1.21296e-05,-1.70552e-05
1529,1.13092e-05,-1.80163e-05,3.76318e-05,5.3971e-05,1.09499e-05,-1.81471e-05
1530,1.42671e-05,-2.77056e-05,4.62563e-05,5.43996e-05,1.17876e-05,-2.34507e-05
1531,1.62589e-05,-1.40945e-05,4.45652e-05,3.79201e-05,1.02285e-05,-2.82463e-05
1532,1.84184e-05,8.39761e-06,4.7586e-05,2.47302e-05,1.00625e-05,-2.78105e-05
1533,2.02443e-05,1.75228e-05,5.93195e-05,2.49232e-05,1.24442e-05,-2.36601e-05
1534,1.86854e-05,1.07735e-05,6.16173e-05,3.39842e-05,1.24592e-05,-2.01246e-05
1535,1.4029e-05,-8.86594e-06,5.24703e-05,4.9265e-05,1.01069e-05,-1.99492e-05
1536,8.75644e-06,-2.59365e-05,4.79448e-05,5.62094e-05,7.27479e-06,-2.10367e-05
1537,3.49317e-06,-1.66292e-05,5.84386e-05,4.44883e-05,5.3368e-06,-2.21615e-05
1538,-5.23999e-07,1.6735e-06,7.30109e-05,3.45902e-05,6.21823e-06,-2.43874e-05
1539,-1.6336e-06,5.7718e-06,7.95258e-05,3.4363e-05,8.55729e-06,-2.59459e-05
1540,-1.366e-06,7.01886e-06,7.26195e-05,3.57067e-05,1.08491e-05,-2.57347e-05
1541,-1.51365e-06,1.2699e-05,6.05549e-05,4.07675e-05,1.36412e-05,-2.35637e-05
1542,-2.81382e-06,1.71407e-05,6.06147e-05,4.47769e-05,1.37039e-05,-2.08905e-05
1543,-4.14359e-06,7.44009e-06,7.57267e-05,4.73318e-05,8.84194e-06,-1.82685e-05
1544,-3.61257e-06,-1.57761e-05,8.97213e-05,4.89888e-05,4.41056e-06,-1.53027e-05
1545,-2.37159e-06,-2.60353e-05,9.04939e-05,4.1642e-05,5.16226e-06,-1.22095e-05
1546,-1.83413e-06,-8.89142e-06,7.70183e-05,3.10389e-05,9.27626e-06,-9.50903e-06
1547,-2.06694e-07,1.33755e-05,5.58434e-05,2.86383e-05,1.26776e-05,-7.03264e-06
1548,2.97666e-06,1.92863e-05,4.68944e-05,3.1729e-05,1.2216e-05,-4.40461e-06
1549,2.97849e-06,6.62575e-06,6.07676e-05,3.85057e-05,1.13779e-05,-1.64176e-06
1550,-1.99197e-06,-1.52077e-05,7.9486e-05,4.87245e-05,1.86521e-05,1.27227e-06
1551,-6.50432e-06,-2.48437e-05,8.28448e-05,5.05653e-05,3.3463e-05,4.53886e-06
