Time_Index,DELTOID_Affected,DELTOID_NonAffected,BICEPS_Affected,BICEPS_NonAffected,FOREARM_Affected,FOREARM_NonAffected
1,4.99765e-06,-2.29895e-05,4.30259e-05,3.2363e-05,8.06118e-05,-1.00519e-05
2,2.63553e-06,-2.55796e-05,4.78323e-05,3.46134e-05,5.70376e-05,-1.45139e-05
3,2.05197e-06,-1.63024e-05,5.3391e-05,4.05028e-05,3.91878e-05,-1.71657e-05
4,3.85826e-06,-1.59481e-06,5.39951e-05,4.31729e-05,3.07513e-05,-1.59998e-05
5,6.49523e-06,6.57279e-06,5.16301e-05,4.00083e-05,2.47227e-05,-1.36045e-05
6,9.26682e-06,3.83801e-06,4.98829e-05,3.36037e-05,1.72988e-05,-1.35047e-05
7,1.0844e-05,-9.03169e-06,5.00808e-05,2.65126e-05,5.35464e-06,-1.28454e-05
8,9.1767e-06,-1.66939e-05,5.33272e-05,2.46228e-05,-1.37431e-05,-1.30519e-05
9,5.88907e-06,-7.82421e-06,5.82109e-05,3.21301e-05,-2.92448e-05,-1.33455e-05
10,5.48209e-06,2.78359e-06,6.03186e-05,3.75687e-05,-2.65778e-05,-1.08875e-05
11,7.59819e-06,4.71806e-06,5.68316e-05,3.60835e-05,-1.04056e-05,-9.56987e-06
12,1.0298e-05,3.89595e-06,4.82101e-05,3.50766e-05,6.76604e-06,-1.04951e-05
13,1.2554e-05,6.34054e-07,4.2368e-05,3.68989e-05,2.06007e-05,-1.13067e-05
14,1.07447e-05,-1.54366e-06,4.57964e-05,3.91643e-05,2.926e-05,-1.00192e-05
15,6.43032e-06,-5.64714e-06,5.42073e-05,3.64706e-05,3.62267e-05,-6.67825e-06
16,3.2189e-06,-1.25347e-05,5.93239e-05,3.30074e-05,4.71783e-05,-6.02787e-06
17,2.10578e-06,-1.20994e-05,6.03903e-05,3.36635e-05,5.54002e-05,-9.74535e-06
18,4.13639e-06,-1.98837e-06,6.08523e-05,3.73755e-05,5.8926e-05,-1.11663e-05
19,3.58932e-06,6.16821e-06,6.07177e-05,3.89997e-05,6.3575e-05,-7.50117e-06
20,2.71964e-06,6.21209e-06,5.82568e-05,3.91557e-05,6.5766e-05,-2.33902e-06
21,6.58569e-06,-1.3323e-07,5.44403e-05,3.6998e-05,6.22683e-05,8.40636e-07
22,1.0615e-05,-7.43401e-06,5.15835e-05,3.40873e-05,5.3199e-05,3.3562e-06
23,8.85905e-06,-7.16161e-06,5.38593e-05,3.69945e-05,4.37819e-05,6.6656e-06
24,5.93432e-06,-3.56213e-07,6.101e-05,4.43516e-05,4.07796e-05,7.7661e-06
25,6.99642e-06,3.05798e-06,6.70538e-05,4.7552e-05,4.0989e-05,4.24653e-06
26,9.91603e-06,-1.85682e-06,6.85084e-05,4.40473e-05,3.22246e-05,-9.86222e-07
27,1.36423e-05,-1.17348e-05,6.4529e-05,3.90652e-05,1.07836e-05,-2.028e-06
28,1.74764e-05,-2.11541e-05,5.84199e-05,3.52395e-05,-1.00738e-05,2.17356e-07
29,1.98292e-05,-2.01617e-05,5.56413e-05,3.60429e-05,-1.31951e-05,1.296e-06
30,2.06279e-05,-8.26468e-06,5.59434e-05,4.21323e-05,2.87921e-06,1.40387e-06
31,2.18774e-05,2.23552e-06,5.56301e-05,4.84693e-05,2.25205e-05,1.16454e-06
32,2.39053e-05,2.328e-06,5.40701e-05,4.86854e-05,2.88804e-05,-3.06913e-06
33,2.60715e-05,-4.42403e-06,5.00804e-05,4.30109e-05,1.94896e-05,-8.68988e-06
34,2.68751e-05,-1.59363e-05,4.45264e-05,3.50767e-05,4.63732e-06,-8.81073e-06
35,2.5871e-05,-2.0702e-05,4.54965e-05,3.30234e-05,-8.19521e-06,-6.4724e-06
36,2.50666e-05,-8.4777e-06,5.52478e-05,3.62534e-05,-1.13822e-05,-5.81976e-06
37,2.66953e-05,5.34738e-07,6.1595e-05,4.01532e-05,7.05516e-07,-5.89901e-06
38,2.79637e-05,2.77221e-08,6.02438e-05,4.49184e-05,1.94684e-05,-7.40704e-06
39,2.7506e-05,6.85072e-07,5.63263e-05,4.93185e-05,2.93955e-05,-8.53347e-06
40,2.42481e-05,1.50678e-06,5.18998e-05,5.06532e-05,2.73817e-05,-1.00886e-05
41,1.93364e-05,2.69866e-06,5.02158e-05,4.81339e-05,2.23096e-05,-1.46303e-05
42,1.62616e-05,-2.81137e-06,4.86757e-05,4.24737e-05,2.30563e-05,-1.97973e-05
43,1.47486e-05,-1.38924e-05,4.55474e-05,3.61152e-05,2.90321e-05,-2.18268e-05
44,1.53086e-05,-1.59626e-05,4.28182e-05,3.43258e-05,2.94455e-05,-1.84316e-05
45,1.63841e-05,-5.44645e-06,4.3149e-05,4.05935e-05,2.08684e-05,-1.09801e-05
46,1.5266e-05,3.31877e-06,4.86065e-05,4.75097e-05,1.36059e-05,-5.50775e-06
47,1.20512e-05,3.44293e-06,5.32464e-05,4.82898e-05,1.43275e-05,-5.19416e-06
48,9.90868e-06,-3.8468e-06,5.08931e-05,4.39543e-05,1.75334e-05,-6.94429e-06
49,9.13042e-06,-1.22885e-05,4.4745e-05,3.76311e-05,1.39134e-05,-9.46141e-06
50,6.82829e-06,-1.33933e-05,4.60156e-05,3.58754e-05,7.13917e-06,-1.26383e-05
51,7.5802e-06,-5.60184e-06,5.34292e-05,3.86974e-05,6.20819e-06,-1.43018e-05
52,1.12642e-05,3.37351e-06,5.83434e-05,3.99722e-05,1.07547e-05,-1.28316e-05
53,1.19785e-05,6.162e-06,5.76092e-05,3.887e-05,1.57906e-05,-1.00957e-05
54,8.2326e-06,1.73045e-07,5.33077e-05,3.91093e-05,1.53057e-05,-6.3337e-06
55,4.31468e-06,-1.31424e-05,5.2135e-05,3.93081e-05,5.06583e-06,-3.54882e-06
56,3.45416e-06,-2.04383e-05,5.82833e-05,4.02935e-05,-1.04597e-05,-3.29829e-06
57,5.77288e-06,-1.39725e-05,6.59947e-05,4.39221e-05,-2.16081e-05,-3.20662e-06
58,8.06028e-06,-3.49266e-06,6.88108e-05,4.47551e-05,-2.59893e-05,-2.64672e-06
59,7.38768e-06,-8.11211e-07,6.48226e-05,4.03034e-05,-3.00255e-05,-3.03764e-06
60,5.38377e-06,-6.54637e-06,5.59623e-05,3.43961e-05,-3.70892e-05,-4.56865e-06
61,6.04244e-06,-1.7521e-05,4.8976e-05,3.04668e-05,-4.51169e-05,-4.58651e-06
62,1.12104e-05,-1.99097e-05,4.95395e-05,3.6056e-05,-4.37988e-05,-4.28033e-06
63,1.64269e-05,-7.80532e-06,5.48782e-05,4.82516e-05,-2.03289e-05,-5.38104e-06
64,1.61196e-05,-2.19895e-06,5.52542e-05,5.26965e-05,2.10579e-05,-7.80465e-06
65,1.24244e-05,-5.05823e-06,5.00407e-05,4.91444e-05,6.26752e-05,-1.04114e-05
66,1.20024e-05,-1.41645e-06,4.40332e-05,4.32186e-05,8.82373e-05,-8.94523e-06
67,1.38788e-05,1.47521e-06,4.38686e-05,4.00654e-05,8.81508e-05,-7.39336e-06
68,1.43207e-05,1.30392e-08,5.29037e-05,4.32759e-05,6.64462e-05,-1.17951e-05
69,1.07652e-05,-7.62126e-06,6.02059e-05,4.55516e-05,4.76026e-05,-1.50635e-05
70,7.78021e-06,-1.74621e-05,5.85844e-05,4.41659e-05,4.29767e-05,-1.08816e-05
71,9.98741e-06,-1.83823e-05,5.30308e-05,4.40776e-05,4.05173e-05,-4.0048e-06
72,1.17858e-05,-8.50829e-06,5.15553e-05,4.70114e-05,4.25657e-05,-2.11737e-06
73,1.0686e-05,1.87441e-06,5.53739e-05,4.54676e-05,5.17572e-05,-9.06554e-06
74,1.19578e-05,4.22718e-06,5.41868e-05,3.78693e-05,6.07167e-05,-2.03361e-05
75,1.49777e-05,-5.27316e-06,4.69452e-05,2.85951e-05,6.32043e-05,-2.6652e-05
76,1.8153e-05,-2.0478e-05,4.29864e-05,2.14356e-05,5.01449e-05,-2.50395e-05
77,1.92218e-05,-2.61226e-05,4.6454e-05,2.32968e-05,3.42094e-05,-2.13128e-05
78,1.78835e-05,-1.93299e-05,5.1229e-05,3.26103e-05,2.98832e-05,-2.00478e-05
79,1.64016e-05,-1.27816e-05,5.27012e-05,3.83478e-05,3.33919e-05,-1.96204e-05
80,1.78217e-05,-1.37191e-05,5.10052e-05,3.82558e-05,3.57351e-05,-1.8531e-05
81,2.30053e-05,-1.89702e-05,4.80604e-05,3.7847e-05,3.44964e-05,-1.75478e-05
82,2.64095e-05,-2.5402e-05,4.73128e-05,3.57815e-05,3.24032e-05,-1.66927e-05
83,2.51935e-05,-2.52363e-05,5.0631e-05,3.54819e-05,2.59516e-05,-1.72573e-05
84,2.34794e-05,-1.61681e-05,5.44854e-05,3.94399e-05,1.63569e-05,-2.05742e-05
85,2.45066e-05,-6.00555e-06,5.55742e-05,4.31338e-05,9.34445e-06,-2.27978e-05
86,2.51166e-05,-2.80522e-07,5.34884e-05,4.15413e-05,7.30569e-06,-2.27477e-05
87,2.29738e-05,2.73357e-07,4.93066e-05,3.32414e-05,7.9291e-06,-2.37716e-05
88,1.96148e-05,-8.76567e-06,4.81779e-05,2.32831e-05,8.3466e-06,-2.65235e-05
89,1.65002e-05,-1.61708e-05,5.14311e-05,2.12173e-05,6.8586e-06,-2.88031e-05
90,1.39255e-05,-8.53575e-06,5.3769e-05,3.01646e-05,6.67982e-06,-2.38076e-05
91,1.15834e-05,-6.01824e-07,5.34367e-05,3.56155e-05,9.54716e-06,-1.34221e-05
92,8.87756e-06,-2.41345e-06,5.13994e-05,3.08099e-05,9.80959e-06,-1.15361e-05
93,9.85017e-06,-4.11131e-06,4.52422e-05,2.50945e-05,7.70133e-06,-1.9429e-05
94,1.39457e-05,-3.55186e-06,3.93874e-05,2.33665e-05,1.16912e-05,-2.34205e-05
95,1.56626e-05,-2.77879e-06,4.55172e-05,2.41813e-05,1.42388e-05,-1.76901e-05
96,1.17479e-05,-8.9982e-06,5.80613e-05,1.966e-05,5.85714e-06,-9.34066e-06
97,5.87741e-06,-1.84459e-05,6.18939e-05,1.31066e-05,-1.87617e-06,-7.38468e-06
98,5.71092e-06,-1.67199e-05,5.84957e-05,1.60726e-05,-4.9503e-06,-1.38809e-05
99,7.54492e-06,-4.29757e-06,5.6101e-05,2.72755e-05,-7.89795e-06,-1.99979e-05
100,9.09567e-06,4.21846e-06,5.71359e-05,3.27324e-05,-1.02858e-05,-1.93948e-05
101,9.86359e-06,2.98167e-06,5.56446e-05,2.84971e-05,-1.19517e-05,-1.39203e-05
102,7.37614e-06,-4.09174e-06,4.74975e-05,2.2858e-05,-2.01754e-05,-9.20237e-06
103,8.04464e-06,-1.12219e-05,3.9285e-05,2.04347e-05,-3.31602e-05,-8.9334e-06
104,1.12237e-05,-1.25766e-05,3.96597e-05,2.21482e-05,-3.05214e-05,-1.2027e-05
105,1.26308e-05,-6.77185e-06,4.28627e-05,2.47026e-05,-3.74234e-06,-1.42394e-05
106,1.1414e-05,-8.44961e-07,4.45209e-05,2.68753e-05,2.50527e-05,-1.20296e-05
107,9.28381e-06,-1.07979e-06,4.2471e-05,2.90975e-05,3.17678e-05,-7.93487e-06
108,6.9951e-06,-5.69428e-06,3.62539e-05,3.1001e-05,2.27713e-05,-6.18385e-06
109,4.20813e-06,-1.1961e-05,3.17907e-05,2.97881e-05,1.12537e-05,-5.07441e-06
110,1.74167e-06,-1.19448e-05,3.55502e-05,2.81005e-05,4.39084e-06,-5.1435e-06
111,2.57792e-06,-2.73314e-06,4.36319e-05,3.16991e-05,4.87983e-06,-8.05919e-06
112,5.72103e-06,4.64813e-06,4.67288e-05,3.66055e-05,1.1202e-05,-7.36816e-06
113,7.16366e-06,2.31269e-06,4.25882e-05,3.62407e-05,1.75893e-05,-1.36423e-06
114,7.69571e-06,-5.32736e-06,3.4891e-05,3.39779e-05,1.74419e-05,4.13724e-06
115,1.00659e-05,-1.56804e-05,3.00858e-05,3.15136e-05,6.00125e-06,1.76112e-06
116,1.28664e-05,-1.86306e-05,3.21751e-05,3.13017e-05,-1.52143e-05,-7.17284e-06
117,1.37596e-05,-7.42689e-06,3.88681e-05,3.82741e-05,-2.93489e-05,-1.34084e-05
118,1.45259e-05,3.99378e-06,4.25425e-05,4.37498e-05,-2.62527e-05,-1.03886e-05
119,1.52774e-05,4.12253e-06,4.24339e-05,4.3453e-05,-1.7503e-05,-1.77653e-07
120,1.57042e-05,-5.55381e-08,4.07606e-05,3.89866e-05,-1.17895e-05,5.55866e-06
121,1.51294e-05,-2.85577e-06,3.67997e-05,3.42219e-05,-6.28629e-06,3.14017e-06
122,1.42575e-05,-5.76328e-06,3.49468e-05,3.32852e-05,-3.37485e-07,1.96676e-06
123,1.30191e-05,-1.30382e-05,4.21887e-05,3.31753e-05,1.16468e-05,3.72686e-06
124,1.14885e-05,-2.21087e-05,5.19235e-05,3.3788e-05,3.17129e-05,3.69145e-06
125,1.00241e-05,-2.12841e-05,5.5868e-05,3.60156e-05,4.52222e-05,4.07539e-06
126,1.01849e-05,-1.13236e-05,5.4963e-05,3.91897e-05,5.49388e-05,5.92427e-06
127,1.04582e-05,-2.71214e-06,5.2378e-05,4.02987e-05,6.64448e-05,7.03326e-06
128,8.68097e-06,1.78592e-06,4.93683e-05,3.80569e-05,6.38251e-05,4.45668e-06
129,5.07722e-06,-1.80003e-06,4.68068e-05,3.12074e-05,4.62748e-05,-2.12439e-06
130,3.55572e-06,-1.29545e-05,4.36807e-05,2.41636e-05,2.46746e-05,-6.9825e-06
131,5.98741e-06,-1.88232e-05,4.55114e-05,2.63512e-05,1.06701e-05,-7.18255e-06
132,8.45217e-06,-1.36213e-05,5.05492e-05,3.57293e-05,5.69996e-06,-6.15393e-06
133,8.83855e-06,-6.75258e-06,5.54008e-05,4.20781e-05,4.94215e-06,-8.19785e-06
134,8.41367e-06,-5.71762e-06,5.7766e-05,4.30808e-05,4.54244e-06,-1.12198e-05
135,9.58688e-06,-1.07458e-05,5.44468e-05,4.31226e-05,4.3804e-06,-1.22497e-05
136,9.1189e-06,-1.92291e-05,5.06289e-05,4.11062e-05,1.38284e-06,-1.06226e-05
137,4.35759e-06,-2.06274e-05,5.2996e-05,3.90103e-05,-2.64648e-06,-6.12013e-06
138,3.64757e-08,-9.05997e-06,5.87833e-05,4.1047e-05,8.67615e-07,-6.06688e-07
139,9.94817e-07,4.97058e-06,5.89277e-05,4.49024e-05,1.1211e-05,2.34569e-06
140,6.27866e-06,1.08535e-05,5.37258e-05,4.60643e-05,2.21028e-05,-1.31024e-06
141,1.09703e-05,5.0957e-06,4.83603e-05,4.30052e-05,2.80974e-05,-9.12425e-06
142,1.08731e-05,-1.45294e-05,4.64534e-05,3.90232e-05,2.65384e-05,-1.64784e-05
143,6.24546e-06,-3.01214e-05,4.92364e-05,4.02989e-05,1.75534e-05,-2.31496e-05
144,2.78237e-06,-2.21123e-05,5.59437e-05,4.60612e-05,8.77014e-06,-2.32153e-05
145,4.51418e-06,-8.98175e-06,6.05215e-05,4.74561e-05,5.04869e-06,-1.74029e-05
146,7.95021e-06,-6.13438e-06,6.06376e-05,4.58775e-05,3.08552e-06,-1.26778e-05
147,9.76258e-06,-4.32974e-06,5.79826e-05,4.62177e-05,-3.27199e-06,-1.15564e-05
148,1.12082e-05,-3.1188e-06,5.4244e-05,4.56478e-05,-1.30139e-05,-1.29076e-05
149,1.0763e-05,-3.64927e-06,5.2216e-05,4.80394e-05,-2.11417e-05,-1.00275e-05
150,9.19741e-06,-8.43791e-06,5.39335e-05,4.8959e-05,-1.67528e-05,-8.68747e-06
151,9.86471e-06,-1.53054e-05,5.64249e-05,4.18746e-05,8.99468e-06,-1.10862e-05
152,1.0342e-05,-1.44697e-05,5.41473e-05,3.60577e-05,3.68452e-05,-1.30525e-05
153,1.13101e-05,-5.95236e-06,4.63481e-05,3.72881e-05,4.63045e-05,-1.26367e-05
154,1.24903e-05,-4.11735e-07,4.29726e-05,3.9636e-05,4.03843e-05,-1.07454e-05
155,1.06198e-05,1.74519e-07,4.69741e-05,3.94777e-05,2.68925e-05,-8.79572e-06
156,6.30688e-06,-3.64325e-06,5.02491e-05,3.86666e-05,1.54944e-05,-7.86168e-06
157,4.02607e-06,-1.08827e-05,4.8209e-05,3.8607e-05,9.02264e-06,-1.09682e-05
158,4.51318e-06,-1.29502e-05,4.78382e-05,4.25388e-05,9.95112e-06,-1.6667e-05
159,6.18014e-06,-6.70107e-06,5.11545e-05,4.82281e-05,1.60151e-05,-2.2575e-05
160,7.51005e-06,7.79402e-07,5.2494e-05,4.85932e-05,2.06654e-05,-2.60953e-05
161,8.10952e-06,2.33439e-06,4.89874e-05,4.48098e-05,1.93622e-05,-2.59349e-05
162,9.60307e-06,-2.98518e-06,4.43255e-05,4.33722e-05,1.5428e-05,-2.12244e-05
163,9.75242e-06,-1.32458e-05,4.37996e-05,4.18224e-05,1.39328e-05,-1.37154e-05
164,7.49685e-06,-1.60525e-05,4.68214e-05,3.94907e-05,1.50484e-05,-5.9876e-06
165,4.62358e-06,-4.04262e-06,4.96765e-05,4.26949e-05,1.75238e-05,-8.88495e-07
166,5.18348e-06,9.15535e-06,4.93252e-05,4.58201e-05,1.9851e-05,-1.08255e-06
167,1.05801e-05,1.20026e-05,4.66645e-05,4.04625e-05,2.13013e-05,-5.7132e-06
168,1.64544e-05,5.68862e-06,4.16854e-05,3.13778e-05,2.24763e-05,-1.02441e-05
169,1.75683e-05,-7.59899e-06,3.97077e-05,2.59209e-05,2.31285e-05,-1.22844e-05
170,1.23232e-05,-1.46415e-05,4.66391e-05,2.75191e-05,1.88175e-05,-1.05554e-05
171,6.12973e-06,-5.82207e-06,5.63367e-05,3.47384e-05,1.65134e-05,-4.5386e-06
172,5.29431e-06,4.35887e-06,5.86251e-05,3.61954e-05,2.53223e-05,1.56469e-06
173,7.36614e-06,5.19153e-06,5.69181e-05,3.39212e-05,4.04733e-05,6.61391e-07
174,9.35614e-06,1.67259e-06,5.57574e-05,3.63277e-05,5.02783e-05,-4.11324e-06
175,1.02643e-05,1.19507e-07,5.61924e-05,4.0392e-05,4.5765e-05,-5.60869e-06
176,9.13489e-06,3.5932e-06,5.44445e-05,4.45078e-05,2.95006e-05,-4.53362e-06
177,6.47417e-06,8.11052e-07,4.91925e-05,4.54531e-05,1.77334e-05,-5.34851e-06
178,6.73083e-06,-1.1523e-05,4.92714e-05,4.48305e-05,1.52931e-05,-9.75942e-06
179,9.36174e-06,-1.54429e-05,5.25035e-05,4.59885e-05,2.01198e-05,-1.21563e-05
180,9.64286e-06,-6.98288e-06,5.09129e-05,4.95054e-05,2.83005e-05,-1.08066e-05
181,8.48038e-06,1.40128e-06,4.83509e-05,5.07983e-05,3.02332e-05,-6.55318e-06
182,6.74699e-06,2.1609e-06,4.95995e-05,4.98959e-05,2.64756e-05,-8.8319e-07
183,7.67444e-06,-7.71186e-06,4.9984e-05,4.64704e-05,2.57298e-05,2.52935e-06
184,7.8175e-06,-2.09503e-05,4.95667e-05,4.11644e-05,2.43048e-05,2.03465e-06
185,6.58775e-06,-2.2555e-05,5.3473e-05,3.93445e-05,1.98395e-05,8.34075e-07
186,7.70723e-06,-1.04252e-05,5.9165e-05,4.29454e-05,1.98869e-05,3.66985e-06
187,1.02729e-05,1.51522e-06,6.22488e-05,4.63412e-05,2.36023e-05,1.07533e-05
188,1.13238e-05,3.7442e-06,6.00222e-05,4.35036e-05,2.04172e-05,1.58367e-05
189,1.22415e-05,-4.4882e-06,5.59444e-05,3.65375e-05,9.23041e-06,1.4602e-05
190,1.5841e-05,-1.91303e-05,5.47323e-05,3.07156e-05,-5.98515e-06,9.70758e-06
191,1.94556e-05,-2.57737e-05,5.96984e-05,3.28787e-05,-2.20077e-05,4.16882e-06
192,1.86538e-05,-1.88724e-05,6.79037e-05,3.97895e-05,-3.17277e-05,-2.77077e-06
193,1.33013e-05,-1.16327e-05,7.30365e-05,4.38602e-05,-3.02964e-05,-7.92707e-06
194,9.82413e-06,-1.35242e-05,7.30776e-05,4.04913e-05,-2.31178e-05,-9.82786e-06
195,1.07823e-05,-1.9696e-05,7.02573e-05,3.43126e-05,-1.45396e-05,-1.14694e-05
196,1.31568e-05,-2.60464e-05,6.88561e-05,2.8716e-05,-7.00768e-07,-1.18158e-05
197,1.18601e-05,-2.61818e-05,7.06156e-05,2.7661e-05,1.83518e-05,-1.27364e-05
198,9.44784e-06,-1.33631e-05,7.47899e-05,3.15723e-05,3.71622e-05,-1.31839e-05
199,1.15291e-05,-1.32014e-06,7.75061e-05,3.15198e-05,5.08266e-05,-1.27839e-05
200,1.64284e-05,3.30842e-06,7.67455e-05,2.78296e-05,5.28804e-05,-1.03863e-05
201,1.91059e-05,5.96885e-06,7.31836e-05,2.62776e-05,4.33633e-05,-6.73431e-06
202,2.06681e-05,6.61927e-06,6.69002e-05,2.8878e-05,3.32401e-05,-8.24481e-06
203,2.08497e-05,5.61631e-06,6.29828e-05,3.11796e-05,2.50205e-05,-1.17283e-05
204,1.81214e-05,-1.3006e-06,6.34756e-05,3.01159e-05,2.03201e-05,-1.48134e-05
205,1.78216e-05,-1.16224e-05,5.96483e-05,3.00155e-05,2.20308e-05,-1.57259e-05
206,2.04246e-05,-1.35304e-05,5.23863e-05,3.60339e-05,2.35929e-05,-1.33536e-05
207,1.9176e-05,-6.37162e-06,4.48295e-05,4.23297e-05,2.05326e-05,-1.00871e-05
208,1.72149e-05,-2.65788e-06,4.24612e-05,4.00663e-05,2.25181e-05,-8.33228e-06
209,1.94158e-05,-3.9377e-06,4.66357e-05,3.42883e-05,2.75559e-05,-9.45651e-06
210,2.20421e-05,-9.39986e-06,4.62702e-05,3.04137e-05,2.97157e-05,-8.62236e-06
211,2.25991e-05,-1.63419e-05,4.38748e-05,3.21887e-05,2.59744e-05,-6.90149e-06
212,2.08014e-05,-1.79799e-05,4.68151e-05,3.94384e-05,1.7148e-05,-8.82582e-06
213,2.02599e-05,-1.21296e-05,4.72411e-05,4.49417e-05,1.41169e-05,-1.36387e-05
214,2.11221e-05,-6.23671e-06,4.34004e-05,4.3715e-05,1.86265e-05,-1.58773e-05
215,2.08226e-05,-5.17952e-06,4.04373e-05,4.06382e-05,2.05031e-05,-1.44734e-05
216,2.09201e-05,-9.22485e-06,4.01014e-05,3.94834e-05,1.67003e-05,-1.35677e-05
217,2.24465e-05,-1.82609e-05,4.05781e-05,3.94524e-05,7.56455e-06,-1.46327e-05
218,2.19169e-05,-2.09477e-05,4.18638e-05,4.23309e-05,-4.18658e-06,-1.63063e-05
219,1.88708e-05,-1.00371e-05,4.49091e-05,4.60651e-05,-1.38725e-05,-1.72329e-05
220,1.57547e-05,2.14237e-06,4.70918e-05,4.52162e-05,-2.16037e-05,-1.7653e-05
221,1.43459e-05,4.80925e-06,4.73877e-05,4.07153e-05,-2.75068e-05,-2.01761e-05
222,1.45037e-05,-1.59358e-06,4.65568e-05,3.60789e-05,-2.70588e-05,-2.42364e-05
223,1.59178e-05,-1.77281e-05,4.65986e-05,3.02837e-05,-1.79628e-05,-2.48169e-05
224,1.62754e-05,-2.82675e-05,4.82431e-05,3.0747e-05,-8.79791e-06,-2.20423e-05
225,1.45579e-05,-1.73082e-05,5.08032e-05,3.70601e-05,-7.33916e-06,-2.33488e-05
226,1.39609e-05,-5.5288e-06,5.22557e-05,3.83069e-05,-9.73265e-06,-2.74165e-05
227,1.53986e-05,-7.13425e-06,5.00464e-05,3.64352e-05,-8.94233e-06,-2.78751e-05
228,1.57995e-05,-1.06573e-05,4.24374e-05,3.61951e-05,-4.47393e-06,-2.72743e-05
229,1.11865e-05,-1.22212e-05,3.37966e-05,3.4821e-05,1.67716e-06,-2.4573e-05
230,5.89159e-06,-8.79332e-06,3.21521e-05,3.15537e-05,1.27883e-06,-1.85156e-05
231,3.90604e-06,-1.03582e-05,3.41726e-05,2.772e-05,-3.57911e-07,-1.36827e-05
232,5.9033e-06,-1.99404e-05,3.23644e-05,2.31504e-05,5.71585e-06,-1.38712e-05
233,1.0519e-05,-2.23511e-05,3.25274e-05,2.4145e-05,1.25324e-05,-1.63173e-05
234,1.32623e-05,-1.25795e-05,3.94138e-05,3.16557e-05,1.6238e-05,-1.65799e-05
235,1.39466e-05,-4.49283e-06,4.6863e-05,3.62201e-05,2.07165e-05,-1.44505e-05
236,1.30776e-05,-3.1814e-06,4.62248e-05,3.78243e-05,2.07025e-05,-1.20695e-05
237,1.234e-05,-8.54101e-06,4.10718e-05,3.84659e-05,1.32291e-05,-9.05444e-06
238,1.29056e-05,-1.57987e-05,3.78977e-05,3.69043e-05,3.32268e-06,-9.3538e-06
239,1.30123e-05,-1.4519e-05,3.79076e-05,3.51738e-05,-2.61111e-06,-1.2845e-05
240,1.4519e-05,-3.4532e-06,4.15209e-05,3.6496e-05,-1.08336e-06,-1.53636e-05
241,2.01153e-05,6.87477e-06,4.82674e-05,3.77555e-05,7.59238e-06,-1.50395e-05
242,2.55805e-05,8.79621e-06,5.3688e-05,3.70389e-05,2.00693e-05,-1.29963e-05
243,2.54957e-05,3.88501e-06,5.23398e-05,3.29151e-05,2.89996e-05,-1.1359e-05
244,2.19194e-05,-7.69915e-06,4.79481e-05,2.63259e-05,2.69766e-05,-1.00395e-05
245,1.75524e-05,-1.41276e-05,5.13824e-05,2.46729e-05,1.6339e-05,-8.34248e-06
246,1.54157e-05,-8.35237e-06,5.98346e-05,2.84773e-05,1.07777e-05,-4.65438e-06
247,1.46474e-05,-1.09054e-06,6.35803e-05,3.07339e-05,1.68775e-05,-2.9565e-06
248,1.33221e-05,-1.14443e-06,6.20353e-05,2.9623e-05,2.44436e-05,-6.84617e-06
249,1.29821e-05,-6.79442e-06,5.89428e-05,2.76145e-05,2.4039e-05,-1.42469e-05
250,1.46529e-05,-1.69327e-05,5.64902e-05,2.61002e-05,1.77351e-05,-1.90202e-05
251,1.42882e-05,-1.92782e-05,5.59619e-05,2.61081e-05,1.04073e-05,-1.9338e-05
252,1.24652e-05,-6.40277e-06,5.90816e-05,2.83211e-05,8.47307e-06,-1.45665e-05
253,1.18219e-05,3.17549e-06,6.29278e-05,2.9432e-05,1.30906e-05,-5.73481e-06
254,1.15271e-05,4.46951e-06,6.43068e-05,3.12048e-05,1.85526e-05,1.62205e-06
255,1.35313e-05,8.66884e-06,6.19755e-05,3.58283e-05,1.98055e-05,1.20182e-06
256,1.37342e-05,1.11691e-05,5.74506e-05,3.77202e-05,1.9396e-05,-7.43263e-06
257,9.10114e-06,7.8481e-06,5.55676e-05,3.77389e-05,1.89608e-05,-1.53731e-05
258,4.42772e-06,-3.09446e-06,5.86079e-05,3.57253e-05,2.16828e-05,-1.53289e-05
259,6.59579e-06,-1.62351e-05,6.25188e-05,3.27461e-05,2.71422e-05,-8.89346e-06
260,1.09315e-05,-1.71016e-05,5.77441e-05,3.41543e-05,2.99867e-05,-1.53875e-06
261,1.0815e-05,-6.37002e-06,4.86043e-05,4.15239e-05,3.49157e-05,3.09595e-06
262,9.01502e-06,9.54856e-07,4.86031e-05,4.51329e-05,3.76853e-05,4.38365e-06
263,7.13433e-06,2.34056e-06,5.12875e-05,4.13881e-05,3.20587e-05,3.54303e-06
264,5.94597e-06,-1.6481e-06,4.85595e-05,3.46248e-05,2.39892e-05,6.72236e-07
265,6.1481e-06,-8.23053e-06,4.43025e-05,3.0598e-05,1.89783e-05,-4.75025e-06
266,5.98462e-06,-8.30758e-06,4.81217e-05,3.4303e-05,1.63443e-05,-1.01746e-05
267,5.71705e-06,-6.60559e-07,5.46215e-05,4.20115e-05,1.33421e-05,-1.16421e-05
268,4.4126e-06,4.47456e-06,5.58069e-05,4.43016e-05,1.47394e-05,-9.82871e-06
269,2.17309e-06,2.248e-06,5.12637e-05,4.12752e-05,1.81405e-05,-8.06272e-06
270,2.90566e-06,-4.11288e-06,4.50778e-05,3.9459e-05,1.55443e-05,-7.89685e-06
271,5.45571e-06,-1.43056e-05,4.22827e-05,4.11233e-05,7.17461e-06,-1.03181e-05
272,5.94125e-06,-1.89659e-05,4.38926e-05,4.80262e-05,3.77109e-06,-1.28014e-05
273,4.71558e-06,-1.17499e-05,4.66522e-05,5.57238e-05,1.29989e-05,-1.17819e-05
274,3.70266e-06,-1.97003e-06,4.91008e-05,5.67465e-05,2.95643e-05,-8.81167e-06
275,3.69363e-06,9.81497e-07,5.00525e-05,5.01529e-05,3.97148e-05,-5.17573e-06
276,5.87034e-06,-3.74226e-06,4.45047e-05,4.35426e-05,3.60693e-05,-5.84702e-06
277,9.67692e-06,-1.6029e-05,3.74394e-05,3.91069e-05,2.19158e-05,-1.03098e-05
278,9.59765e-06,-2.51454e-05,3.70004e-05,3.58979e-05,3.79605e-06,-1.20488e-05
279,5.99086e-06,-2.05652e-05,4.26608e-05,3.66055e-05,-1.04266e-05,-1.01378e-05
280,6.82614e-06,-1.13216e-05,4.68979e-05,3.6333e-05,-2.17313e-05,-5.08146e-06
281,1.33621e-05,-5.07095e-06,4.59246e-05,3.57372e-05,-3.62715e-05,7.82901e-07
282,1.87887e-05,3.52365e-06,4.06386e-05,3.92822e-05,-5.15685e-05,7.20859e-08
283,2.00552e-05,8.97352e-06,3.72098e-05,4.25567e-05,-5.54248e-05,-7.70392e-06
284,1.80855e-05,5.60319e-06,3.9767e-05,4.48064e-05,-4.25881e-05,-1.08833e-05
285,1.59636e-05,-5.58613e-06,4.74855e-05,4.18824e-05,-1.94402e-05,-9.9071e-06
286,1.58406e-05,-1.49521e-05,5.02073e-05,3.81223e-05,5.59656e-06,-7.88853e-06
287,1.66728e-05,-1.05079e-05,4.38642e-05,4.16551e-05,1.73239e-05,-7.46191e-06
288,1.72519e-05,2.67666e-06,3.96607e-05,4.81393e-05,1.62761e-05,-9.94541e-06
289,1.33052e-05,1.19811e-05,4.12461e-05,4.82968e-05,1.58963e-05,-1.31866e-05
290,7.49211e-06,1.19433e-05,4.40073e-05,4.28705e-05,1.96768e-05,-1.44798e-05
291,6.01662e-06,2.34975e-06,4.38132e-05,3.6412e-05,2.08081e-05,-1.27028e-05
292,9.91182e-06,-1.2477e-05,3.93955e-05,3.07914e-05,3.64769e-06,-1.14959e-05
293,1.34321e-05,-1.83706e-05,3.81818e-05,3.11375e-05,-2.39893e-05,-1.34531e-05
294,1.37687e-05,-1.08084e-05,4.34433e-05,3.7874e-05,-3.99368e-05,-1.46651e-05
295,1.46468e-05,-2.27925e-06,5.18185e-05,4.31127e-05,-3.69623e-05,-1.18328e-05
296,1.64442e-05,-1.60747e-06,5.42517e-05,4.24864e-05,-2.5315e-05,-7.98429e-06
297,1.88082e-05,-8.51141e-06,4.7324e-05,3.95947e-05,-1.32543e-05,-5.64549e-06
298,2.07365e-05,-1.845e-05,3.99985e-05,3.51594e-05,-4.65973e-06,-3.96569e-06
299,2.00948e-05,-2.05699e-05,4.17712e-05,3.44635e-05,3.7631e-06,-8.16899e-07
300,1.75225e-05,-1.08171e-05,4.97877e-05,3.90596e-05,1.81584e-05,-8.89904e-07
301,1.36893e-05,-1.85059e-06,5.61058e-05,4.12712e-05,3.6566e-05,-4.14939e-06
302,1.01159e-05,-2.21781e-06,5.67283e-05,3.89832e-05,4.94827e-05,-6.53249e-06
303,1.07266e-05,-8.32732e-06,5.03425e-05,3.58711e-05,4.77261e-05,-5.72283e-06
304,1.4621e-05,-1.91656e-05,4.15732e-05,3.28313e-05,3.20638e-05,-3.06042e-06
305,1.52952e-05,-2.47332e-05,3.79406e-05,3.60602e-05,1.37723e-05,-4.30337e-06
306,1.18522e-05,-1.38339e-05,4.22506e-05,4.65686e-05,3.9431e-06,-9.77471e-06
307,1.0401e-05,-3.83041e-06,4.81213e-05,4.99762e-05,5.7471e-07,-1.30328e-05
308,1.22523e-05,-2.84694e-06,4.93811e-05,4.6506e-05,-1.20906e-06,-1.27219e-05
309,1.32222e-05,-4.41784e-06,4.82381e-05,4.3057e-05,-1.0903e-06,-8.35864e-06
310,1.35826e-05,-7.96258e-06,4.96593e-05,4.02903e-05,4.31845e-06,-3.48144e-06
311,1.4178e-05,-1.00504e-05,5.45306e-05,3.87756e-05,1.18194e-05,-9.76122e-07
312,1.13385e-05,-1.63104e-05,5.99496e-05,3.50975e-05,2.06286e-05,-2.40708e-06
313,6.23899e-06,-2.52346e-05,6.27343e-05,2.93449e-05,3.23937e-05,-6.65714e-06
314,2.43915e-06,-2.44558e-05,6.27112e-05,2.80705e-05,3.94023e-05,-8.15681e-06
315,5.29782e-08,-1.15443e-05,6.09349e-05,3.36604e-05,4.03453e-05,-5.53716e-06
316,-1.84194e-06,-4.02122e-07,6.1991e-05,3.69228e-05,3.70466e-05,-1.78341e-06
317,-2.12433e-06,4.48131e-07,6.17957e-05,3.37611e-05,2.89212e-05,-6.80966e-08
318,1.20574e-06,-8.41589e-06,5.65876e-05,2.5579e-05,1.83678e-05,-1.1447e-06
319,5.13378e-06,-1.92521e-05,5.21705e-05,1.84565e-05,1.74309e-06,-5.35669e-06
320,4.02514e-06,-1.97864e-05,5.36002e-05,1.90225e-05,-1.38264e-05,-1.14953e-05
321,5.32521e-07,-8.768e-06,5.5419e-05,2.62195e-05,-1.44739e-05,-1.32373e-05
322,1.11279e-06,3.17433e-06,5.4706e-05,3.30774e-05,1.22722e-06,-7.02078e-06
323,8.60047e-06,7.25704e-06,5.20977e-05,3.62898e-05,1.83008e-05,-9.13323e-07
324,1.64877e-05,2.80311e-06,4.83405e-05,3.70809e-05,2.63124e-05,-3.11128e-07
325,1.76657e-05,-7.11237e-06,4.67571e-05,3.54225e-05,2.28418e-05,-4.19532e-06
326,1.44089e-05,-1.31443e-05,5.17259e-05,3.51272e-05,1.19996e-05,-1.07817e-05
327,1.14502e-05,-9.63539e-06,5.84768e-05,3.9281e-05,2.07972e-06,-1.828e-05
328,9.71207e-06,-2.50297e-06,5.8759e-05,4.38117e-05,-5.12559e-06,-2.28082e-05
329,8.14937e-06,3.3217e-08,5.54831e-05,4.39741e-05,-9.52709e-06,-2.41862e-05
330,7.86121e-06,-4.43152e-06,5.54785e-05,3.86213e-05,-4.68068e-06,-2.70201e-05
331,8.95307e-06,-1.78669e-05,5.82358e-05,2.90445e-05,1.05231e-05,-3.14447e-05
332,9.06649e-06,-2.45835e-05,5.90169e-05,2.61327e-05,2.49885e-05,-3.1693e-05
333,8.47284e-06,-1.16783e-05,5.68908e-05,3.23017e-05,3.25331e-05,-2.72381e-05
334,8.56005e-06,-1.82344e-07,5.47352e-05,3.50193e-05,3.20909e-05,-2.28516e-05
335,8.38134e-06,3.45037e-07,5.64804e-05,3.31429e-05,2.47202e-05,-1.87068e-05
336,1.11043e-05,2.68868e-07,5.73517e-05,3.45377e-05,1.60154e-05,-1.82144e-05
337,1.48851e-05,1.13201e-06,5.45108e-05,4.17202e-05,1.09579e-05,-2.14277e-05
338,1.4125e-05,5.47144e-07,5.43661e-05,4.63331e-05,7.10405e-06,-2.09505e-05
339,1.10293e-05,-6.31025e-06,6.2065e-05,3.98778e-05,9.20623e-06,-1.85277e-05
340,1.03312e-05,-1.65236e-05,6.79738e-05,3.25798e-05,2.50319e-05,-1.85875e-05
341,1.18862e-05,-1.8177e-05,6.36591e-05,3.38445e-05,4.10411e-05,-1.99746e-05
342,1.29595e-05,-9.25371e-06,5.54554e-05,3.76193e-05,4.48147e-05,-1.82822e-05
343,1.19616e-05,2.95243e-07,5.40539e-05,3.57206e-05,4.01446e-05,-1.65446e-05
344,1.17837e-05,5.09616e-06,5.70043e-05,3.20236e-05,3.12365e-05,-1.67123e-05
345,1.35704e-05,2.83538e-06,5.80116e-05,2.98765e-05,2.73687e-05,-1.72036e-05
346,1.40056e-05,-5.89009e-06,5.51773e-05,2.81211e-05,2.44679e-05,-1.65554e-05
347,1.26517e-05,-1.18528e-05,5.30748e-05,2.95169e-05,1.66382e-05,-1.59275e-05
348,1.26684e-05,-7.69781e-06,5.10869e-05,3.56191e-05,7.87924e-06,-1.63615e-05
349,1.293e-05,1.08304e-06,4.78803e-05,3.79186e-05,5.5259e-06,-1.57477e-05
350,1.14665e-05,3.76461e-06,4.68901e-05,3.07877e-05,1.11112e-05,-1.40257e-05
351,1.23161e-05,-4.16581e-06,4.6165e-05,2.14935e-05,1.79317e-05,-1.21304e-05
352,1.402e-05,-1.78766e-05,4.54824e-05,1.94665e-05,1.40015e-05,-9.86907e-06
353,1.3106e-05,-2.2884e-05,4.70519e-05,2.60933e-05,-8.54025e-08,-6.25922e-06
354,1.22403e-05,-1.49715e-05,5.10648e-05,3.15869e-05,-7.04756e-06,-3.71575e-06
355,1.42163e-05,-6.32542e-06,5.29684e-05,3.02894e-05,1.20548e-06,-2.81556e-06
356,1.63909e-05,-2.60351e-06,4.95299e-05,2.90472e-05,1.30665e-05,-2.96701e-06
357,1.50104e-05,-3.76507e-06,4.22912e-05,3.03675e-05,1.58152e-05,-3.43823e-06
358,1.15282e-05,-1.52218e-05,4.02559e-05,2.69316e-05,1.50306e-05,-7.55329e-06
359,1.06432e-05,-2.56363e-05,4.7209e-05,2.49273e-05,1.62391e-05,-1.58532e-05
360,1.45266e-05,-1.94862e-05,5.34934e-05,3.16447e-05,1.74312e-05,-2.0182e-05
361,1.96186e-05,-1.0609e-05,5.21508e-05,3.87371e-05,1.74214e-05,-1.52727e-05
362,2.09684e-05,-7.47661e-06,4.945e-05,4.07433e-05,1.82161e-05,-7.6536e-06
363,2.02226e-05,-3.16629e-06,4.70846e-05,4.19998e-05,1.95567e-05,-1.17848e-08
364,2.14799e-05,9.89842e-08,4.26185e-05,4.4734e-05,1.50915e-05,6.65054e-06
365,2.28365e-05,-1.16526e-06,4.21895e-05,4.4429e-05,-2.34706e-06,4.48149e-06
366,2.11155e-05,-1.11357e-05,4.49816e-05,4.00409e-05,-1.79395e-05,-3.97318e-06
367,1.88341e-05,-2.26582e-05,4.72046e-05,3.60212e-05,-1.70044e-05,-8.77989e-06
368,1.79739e-05,-2.2172e-05,4.73373e-05,3.6701e-05,-8.03232e-06,-8.43664e-06
369,1.54977e-05,-1.21734e-05,4.61221e-05,4.02807e-05,-7.5982e-07,-7.50115e-06
370,1.21006e-05,-6.02964e-06,4.89549e-05,3.98768e-05,3.04312e-06,-8.45682e-06
371,1.15198e-05,-5.19224e-06,5.24989e-05,3.45523e-05,4.40757e-06,-1.07145e-05
372,1.41943e-05,-8.54551e-06,5.4507e-05,2.73114e-05,1.26988e-05,-1.12856e-05
373,1.69271e-05,-1.45803e-05,5.84134e-05,2.36711e-05,2.72293e-05,-9.64484e-06
374,1.8048e-05,-1.55572e-05,6.6764e-05,2.49022e-05,4.05563e-05,-9.25717e-06
375,1.95113e-05,-9.56343e-06,7.06458e-05,2.72826e-05,5.03027e-05,-1.03803e-05
376,2.49599e-05,-4.49122e-06,6.91144e-05,2.61438e-05,4.9113e-05,-1.02425e-05
377,3.21389e-05,-6.17943e-06,6.84727e-05,2.24448e-05,3.40417e-05,-9.37396e-06
378,3.32708e-05,-1.32486e-05,6.74308e-05,2.01625e-05,1.53626e-05,-1.08162e-05
379,2.82773e-05,-2.14526e-05,6.40979e-05,2.09811e-05,2.74514e-06,-1.21648e-05
380,2.22436e-05,-2.16818e-05,6.27235e-05,2.63109e-05,-2.07385e-06,-1.1357e-05
381,1.79695e-05,-1.09801e-05,6.53413e-05,3.41665e-05,1.33897e-06,-1.05091e-05
382,1.41093e-05,3.30688e-06,6.81282e-05,3.83487e-05,9.75362e-06,-7.74096e-06
383,1.18625e-05,1.18261e-05,6.78347e-05,3.63998e-05,2.05448e-05,-3.07512e-06
384,1.21448e-05,9.86786e-06,6.21975e-05,3.06205e-05,3.38494e-05,-2.46749e-07
385,1.31232e-05,-4.5498e-06,5.49412e-05,2.473e-05,4.34715e-05,-5.21175e-07
386,1.23149e-05,-1.62158e-05,5.14525e-05,2.41433e-05,4.11128e-05,-2.74885e-06
387,9.62221e-06,-8.11233e-06,5.39445e-05,2.94399e-05,3.37692e-05,-3.70017e-06
388,9.22788e-06,2.12941e-06,5.83807e-05,3.16213e-05,3.11032e-05,-6.16372e-06
389,1.17304e-05,1.18701e-06,6.10119e-05,3.26552e-05,3.00189e-05,-8.56547e-06
390,1.34581e-05,-2.19819e-06,5.7361e-05,3.68745e-05,2.65609e-05,-5.76298e-06
391,1.27961e-05,-4.62839e-06,4.9977e-05,3.77117e-05,2.14853e-05,-3.73731e-06
392,8.54437e-06,-5.29118e-06,4.94309e-05,3.82306e-05,1.32134e-05,-8.30279e-06
393,1.81747e-06,-1.24852e-05,5.37423e-05,3.80149e-05,4.75853e-06,-1.40319e-05
394,-1.38312e-06,-2.33508e-05,5.01651e-05,3.60183e-05,-3.63741e-06,-1.52991e-05
395,-2.11358e-06,-2.1606e-05,4.16157e-05,3.58168e-05,-8.32817e-06,-1.62199e-05
396,-2.19864e-06,-1.04174e-05,4.03534e-05,4.0451e-05,-3.30057e-06,-1.5404e-05
397,-6.22084e-07,-4.65569e-06,4.5836e-05,4.29546e-05,6.70494e-06,-1.13679e-05
398,6.47359e-07,-5.27379e-06,4.65609e-05,3.9843e-05,1.43461e-05,-8.13131e-06
399,5.86269e-07,-9.62097e-06,4.10788e-05,3.45945e-05,1.67131e-05,-9.48041e-06
400,8.95586e-07,-1.51136e-05,3.6019e-05,3.23398e-05,1.50158e-05,-1.15776e-05
401,1.00946e-06,-1.2717e-05,3.73084e-05,3.59597e-05,1.28541e-05,-1.06258e-05
402,-6.72733e-08,-7.44804e-07,4.24854e-05,4.17109e-05,1.54992e-05,-7.71477e-06
403,7.12762e-08,8.23147e-06,4.7522e-05,4.40088e-05,2.00595e-05,-5.6012e-06
404,2.158e-06,8.30515e-06,4.79799e-05,4.27083e-05,2.25698e-05,-5.43834e-06
405,5.16026e-06,2.74211e-06,4.27707e-05,4.16939e-05,2.05065e-05,-5.38122e-06
406,7.25298e-06,-7.07127e-06,4.00795e-05,4.10068e-05,1.25687e-05,-6.21663e-06
407,9.24845e-06,-1.19489e-05,4.25435e-05,4.43234e-05,3.17669e-06,-7.57977e-06
408,1.17223e-05,-3.71741e-06,4.34877e-05,5.26656e-05,5.02163e-07,-7.9272e-06
409,1.20573e-05,9.17851e-06,4.08045e-05,5.77032e-05,7.64847e-06,-6.78385e-06
410,1.02235e-05,1.20301e-05,4.07644e-05,5.44894e-05,1.87061e-05,-8.26305e-06
411,1.04275e-05,3.97278e-06,4.2606e-05,4.50438e-05,2.52637e-05,-1.40383e-05
412,1.4803e-05,-9.16203e-06,4.12589e-05,3.38674e-05,2.13154e-05,-1.89958e-05
413,1.85622e-05,-1.47509e-05,3.85371e-05,3.15831e-05,1.06024e-05,-1.79984e-05
414,1.90427e-05,-2.70083e-06,4.02958e-05,4.04865e-05,4.56114e-06,-1.44498e-05
415,1.85518e-05,6.84379e-06,4.48128e-05,4.64532e-05,8.81577e-06,-1.3496e-05
416,1.82339e-05,3.04415e-06,4.81897e-05,4.44728e-05,1.70085e-05,-1.45531e-05
417,1.71651e-05,-1.40352e-06,4.55298e-05,4.24519e-05,2.83998e-05,-1.70906e-05
418,1.70361e-05,-2.10071e-06,3.88082e-05,4.19055e-05,4.19205e-05,-1.85789e-05
419,1.8085e-05,-2.12353e-06,3.93185e-05,4.55959e-05,4.5111e-05,-1.77432e-05
420,1.9384e-05,-7.703e-06,4.57508e-05,4.56913e-05,4.13286e-05,-1.86486e-05
421,1.87114e-05,-1.58092e-05,4.73615e-05,4.10695e-05,4.25611e-05,-2.33612e-05
422,1.62298e-05,-1.44861e-05,4.53692e-05,3.85262e-05,4.37822e-05,-2.88405e-05
423,1.60418e-05,-9.43382e-07,4.79314e-05,4.0227e-05,4.02858e-05,-3.11333e-05
424,1.76444e-05,8.46752e-06,5.68304e-05,4.19387e-05,3.57708e-05,-3.00095e-05
425,1.83431e-05,8.35101e-06,6.01711e-05,4.27873e-05,3.52313e-05,-2.55831e-05
426,1.64155e-05,1.45274e-07,5.08634e-05,4.09533e-05,3.62896e-05,-1.92959e-05
427,1.49186e-05,-9.98258e-06,4.05445e-05,3.51684e-05,3.07515e-05,-1.4775e-05
428,1.4288e-05,-1.1796e-05,4.03869e-05,3.46887e-05,2.53062e-05,-1.27438e-05
429,1.18568e-05,-4.51729e-06,4.47644e-05,4.15852e-05,2.8058e-05,-1.18383e-05
430,8.54414e-06,1.82524e-06,4.66349e-05,4.7498e-05,2.78547e-05,-1.10072e-05
431,7.68577e-06,1.88137e-06,4.46384e-05,4.55322e-05,1.33931e-05,-9.50761e-06
432,9.30719e-06,-2.20363e-06,4.34174e-05,3.8594e-05,-8.78231e-06,-5.92001e-06
433,1.06072e-05,-1.11212e-05,4.62477e-05,3.22301e-05,-3.17166e-05,-1.99437e-06
434,8.93072e-06,-1.47533e-05,4.95872e-05,3.29191e-05,-5.23121e-05,-2.08967e-06
435,5.779e-06,-6.69648e-06,4.84104e-05,3.79066e-05,-5.8222e-05,-4.1164e-06
436,4.61267e-06,1.46613e-06,4.43579e-05,4.14121e-05,-4.40353e-05,-2.38261e-06
437,6.34566e-06,2.56434e-06,4.31133e-05,4.1185e-05,-2.6622e-05,2.80634e-06
438,8.5014e-06,1.28962e-06,4.29437e-05,3.93997e-05,-1.85638e-05,6.1184e-06
439,8.69287e-06,-7.30047e-06,4.31828e-05,3.58557e-05,-1.11864e-05,3.5919e-06
440,8.15603e-06,-1.56051e-05,4.7241e-05,3.44872e-05,3.41826e-06,-3.41888e-07
441,8.69289e-06,-1.26489e-05,5.26472e-05,3.70998e-05,1.92946e-05,-1.72853e-06
442,9.59299e-06,-9.75387e-06,5.33625e-05,3.80878e-05,2.60457e-05,4.49273e-07
443,9.56291e-06,-1.11011e-05,5.09763e-05,3.95809e-05,1.96649e-05,2.41883e-06
444,1.00357e-05,-8.73468e-06,4.99606e-05,4.32008e-05,7.74399e-06,1.26763e-06
445,8.86172e-06,-4.2583e-06,5.23027e-05,4.40209e-05,7.11495e-07,5.20791e-07
446,6.03236e-06,-2.74755e-06,5.40227e-05,4.31856e-05,-2.12899e-06,-2.24098e-06
447,5.51292e-06,-8.91643e-06,5.36623e-05,4.2459e-05,3.81161e-07,-5.68926e-06
448,7.29658e-06,-1.70038e-05,5.15572e-05,4.3207e-05,1.41445e-05,-8.35955e-06
449,9.67539e-06,-1.48857e-05,4.94991e-05,4.49636e-05,2.47746e-05,-8.30983e-06
450,1.21263e-05,-4.48914e-06,5.0102e-05,4.29966e-05,2.47893e-05,-5.81831e-06
451,1.12427e-05,3.245e-06,5.17014e-05,3.81143e-05,2.24024e-05,-4.10689e-06
452,6.92869e-06,3.09782e-06,5.07104e-05,3.48899e-05,1.80434e-05,-3.4069e-06
453,4.02665e-06,-5.34782e-06,4.67946e-05,3.08955e-05,1.33088e-05,-1.50473e-06
454,4.40192e-06,-1.4761e-05,4.44372e-05,2.61188e-05,6.09483e-06,1.69399e-06
455,5.92027e-06,-1.45e-05,4.64585e-05,2.65406e-05,-4.42968e-06,2.00492e-06
456,6.49034e-06,-5.00551e-06,4.95922e-05,3.20843e-05,-1.23472e-05,-1.96367e-06
457,7.0217e-06,1.70581e-06,5.30525e-05,3.48178e-05,-1.08732e-05,-7.47129e-06
458,8.15646e-06,-1.24818e-06,5.38033e-05,3.07173e-05,-3.99564e-06,-1.00941e-05
459,1.02393e-05,-1.16813e-05,5.04514e-05,2.73217e-05,4.68159e-06,-9.00627e-06
460,1.16653e-05,-2.44729e-05,4.82804e-05,2.97375e-05,1.58811e-05,-6.34618e-06
461,1.06362e-05,-2.71993e-05,5.10848e-05,3.76713e-05,3.05415e-05,-5.2213e-06
462,1.0111e-05,-1.55981e-05,5.67263e-05,4.63223e-05,4.80914e-05,-6.8314e-06
463,1.10844e-05,-3.9182e-06,6.13014e-05,4.92876e-05,6.00697e-05,-9.17828e-06
464,1.37008e-05,-2.62906e-06,6.21086e-05,4.54978e-05,5.83984e-05,-9.81557e-06
465,1.78499e-05,-7.68283e-06,5.73074e-05,4.2189e-05,4.4484e-05,-9.5933e-06
466,2.15819e-05,-1.82744e-05,5.45699e-05,4.26441e-05,2.66464e-05,-8.96879e-06
467,2.09516e-05,-2.52995e-05,6.20523e-05,4.61701e-05,1.12211e-05,-7.87171e-06
468,1.64126e-05,-1.74661e-05,7.41536e-05,4.87953e-05,4.85391e-06,-2.44524e-06
469,1.15858e-05,-8.88921e-06,7.84737e-05,4.43131e-05,8.35814e-06,8.86394e-07
470,8.90117e-06,-6.41873e-06,7.42404e-05,3.86041e-05,1.6107e-05,-1.22424e-06
471,9.92574e-06,-4.47545e-06,6.72764e-05,3.73568e-05,2.04675e-05,-6.66328e-06
472,1.32017e-05,-2.90379e-06,6.07776e-05,3.96915e-05,1.95271e-05,-1.13023e-05
473,1.64619e-05,-7.41069e-07,5.88389e-05,4.10137e-05,1.16009e-05,-9.64559e-06
474,1.58978e-05,-4.76844e-06,6.19829e-05,3.48351e-05,2.51235e-06,-4.61721e-06
475,1.33256e-05,-1.34809e-05,6.11926e-05,2.7565e-05,3.84194e-06,-6.57317e-07
476,9.83633e-06,-1.46784e-05,5.39891e-05,2.95158e-05,1.1591e-05,-7.88059e-08
477,5.12476e-06,-9.33177e-06,4.79468e-05,3.90579e-05,1.76397e-05,3.17865e-06
478,1.85639e-06,-6.94368e-06,4.75851e-05,4.64185e-05,1.74454e-05,5.83403e-06
479,1.8596e-06,-9.21865e-06,4.97456e-05,4.72428e-05,1.20588e-05,2.93321e-06
480,6.00744e-06,-1.53869e-05,4.82931e-05,3.9954e-05,6.56639e-06,-3.61281e-06
481,1.22216e-05,-2.16748e-05,4.63516e-05,2.92428e-05,2.30184e-06,-7.62277e-06
482,1.45932e-05,-2.15424e-05,4.96087e-05,2.39969e-05,4.57893e-08,-8.23855e-06
483,1.34908e-05,-1.42748e-05,5.4419e-05,2.63098e-05,3.33842e-06,-8.21865e-06
484,1.38653e-05,-7.84594e-06,5.83699e-05,2.95162e-05,9.82517e-06,-8.90594e-06
485,1.5744e-05,-5.29485e-06,6.05354e-05,2.81653e-05,1.20747e-05,-1.07015e-05
486,1.75775e-05,-7.18363e-06,5.78753e-05,2.37497e-05,9.38776e-06,-1.13921e-05
487,1.78167e-05,-1.49815e-05,5.10175e-05,2.05e-05,3.66376e-06,-9.89155e-06
488,1.62109e-05,-2.02105e-05,4.93062e-05,2.50759e-05,-2.03293e-06,-9.65262e-06
489,1.36085e-05,-1.572e-05,5.44912e-05,3.45054e-05,-4.3397e-06,-1.21184e-05
490,1.11632e-05,-8.4004e-06,5.81154e-05,3.73495e-05,-2.54399e-06,-1.19542e-05
491,9.8078e-06,-6.80384e-06,5.54932e-05,3.17815e-05,5.14524e-09,-8.86207e-06
492,8.61604e-06,-1.19476e-05,5.06887e-05,2.75594e-05,1.77276e-06,-7.30624e-06
493,6.47761e-06,-2.18159e-05,5.12451e-05,2.84328e-05,1.44695e-06,-9.46317e-06
494,5.73781e-06,-2.44835e-05,5.7082e-05,3.25963e-05,1.03142e-06,-1.37873e-05
495,7.30206e-06,-1.57382e-05,6.15837e-05,3.80181e-05,4.91481e-06,-1.5404e-05
496,7.25623e-06,-1.1229e-05,6.1183e-05,3.60075e-05,1.17367e-05,-1.39366e-05
497,5.39659e-06,-1.26896e-05,5.88597e-05,3.57476e-05,1.7584e-05,-1.49881e-05
498,8.26287e-06,-1.2966e-05,5.5751e-05,4.3388e-05,2.02637e-05,-1.92743e-05
499,1.81351e-05,-1.01182e-05,5.03886e-05,4.63992e-05,1.99145e-05,-2.1272e-05
500,2.45159e-05,-6.50061e-06,4.7907e-05,4.02005e-05,1.56767e-05,-1.76102e-05
501,2.16282e-05,-1.13596e-05,5.22113e-05,2.57835e-05,1.46667e-05,-1.67052e-05
502,1.72534e-05,-2.09454e-05,5.65221e-05,1.61538e-05,2.75987e-05,-1.99667e-05
503,1.73038e-05,-1.93912e-05,5.70846e-05,2.06049e-05,4.62243e-05,-2.26666e-05
504,2.02192e-05,-4.92213e-06,5.38488e-05,3.71246e-05,5.39633e-05,-2.0037e-05
505,2.20621e-05,6.55904e-06,5.04481e-05,5.18211e-05,4.79677e-05,-1.49853e-05
506,1.9353e-05,1.04289e-05,4.66184e-05,5.44513e-05,3.6637e-05,-1.24571e-05
507,1.67031e-05,5.35648e-06,4.25341e-05,4.38093e-05,3.11166e-05,-1.21751e-05
508,1.70483e-05,-6.57743e-06,4.38878e-05,2.92808e-05,2.88313e-05,-1.24433e-05
509,1.69733e-05,-1.24845e-05,4.82146e-05,2.27784e-05,2.85669e-05,-1.23639e-05
510,1.58393e-05,-4.71934e-06,4.96088e-05,2.57169e-05,3.58118e-05,-1.15244e-05
511,1.37755e-05,5.26608e-06,5.05432e-05,3.09982e-05,4.41603e-05,-8.15537e-06
512,1.50977e-05,6.32449e-06,5.12872e-05,3.32134e-05,4.38624e-05,-3.55125e-06
513,1.90375e-05,-1.10417e-06,4.8584e-05,3.42263e-05,3.86933e-05,9.6415e-07
514,2.08769e-05,-1.27901e-05,4.43266e-05,3.42727e-05,3.49482e-05,3.82276e-06
515,1.75659e-05,-1.8005e-05,4.55496e-05,3.44836e-05,3.20449e-05,4.82006e-06
516,1.24638e-05,-9.90991e-06,5.21178e-05,3.71004e-05,2.81964e-05,4.77133e-06
517,9.06096e-06,2.46275e-06,5.75739e-05,4.11365e-05,2.48971e-05,3.71234e-06
518,8.62839e-06,5.79394e-06,5.92442e-05,4.36806e-05,2.45907e-05,-1.6256e-06
519,1.14469e-05,-1.51811e-06,5.62363e-05,4.27629e-05,2.82641e-05,-6.88612e-06
520,1.46725e-05,-1.51658e-05,5.06096e-05,3.75841e-05,3.1774e-05,-5.08013e-06
521,1.43416e-05,-2.20433e-05,4.85529e-05,3.97076e-05,3.00029e-05,-1.4107e-06
522,1.14118e-05,-1.27009e-05,5.31393e-05,4.82633e-05,2.78562e-05,-4.94802e-06
523,1.13998e-05,-1.75649e-06,5.84779e-05,4.99363e-05,2.81709e-05,-1.01575e-05
524,1.40635e-05,-2.30618e-07,5.85288e-05,4.6397e-05,2.19067e-05,-1.12372e-05
525,1.90708e-05,-5.3619e-07,5.48338e-05,4.68537e-05,7.4656e-06,-1.2272e-05
526,2.46434e-05,-7.35826e-08,5.26719e-05,4.98058e-05,1.48344e-06,-1.5066e-05
527,2.55011e-05,9.58871e-07,5.40586e-05,4.96118e-05,1.04378e-05,-1.6232e-05
528,2.12711e-05,-3.34913e-06,5.89079e-05,4.60146e-05,1.97506e-05,-1.71784e-05
529,1.67534e-05,-1.4099e-05,6.22623e-05,4.21613e-05,2.19137e-05,-1.72665e-05
530,1.32473e-05,-1.77822e-05,6.23399e-05,4.02443e-05,2.43255e-05,-1.40494e-05
531,1.27942e-05,-1.00505e-05,6.45163e-05,3.90456e-05,2.80534e-05,-9.59403e-06
532,1.45138e-05,5.32145e-07,6.78011e-05,3.78508e-05,3.1011e-05,-9.69255e-06
533,1.44634e-05,7.6705e-06,6.60508e-05,3.8513e-05,3.10735e-05,-1.32922e-05
534,1.60387e-05,5.13196e-06,5.89848e-05,3.81157e-05,2.48853e-05,-1.36088e-05
535,1.81449e-05,-4.48867e-06,5.23582e-05,3.38126e-05,1.54117e-05,-1.22952e-05
536,1.48429e-05,-8.64689e-06,5.20732e-05,3.06472e-05,8.08142e-06,-1.24098e-05
537,9.86426e-06,-2.46814e-06,5.41529e-05,3.45857e-05,3.83895e-06,-1.33802e-05
538,7.09871e-06,5.04987e-06,5.52967e-05,4.19415e-05,1.35133e-06,-1.28552e-05
539,5.52553e-06,6.1673e-06,5.35351e-05,4.59387e-05,-1.75411e-06,-1.17096e-05
540,4.74864e-06,9.85387e-07,4.88115e-05,4.32415e-05,-7.69751e-06,-8.91222e-06
541,5.28897e-06,-6.26512e-06,4.44997e-05,3.33027e-05,-1.7512e-05,-4.65568e-06
542,6.26921e-06,-6.485e-06,4.59547e-05,2.73379e-05,-2.60524e-05,-3.60498e-06
543,8.41898e-06,1.46991e-06,5.30131e-05,3.32416e-05,-2.41366e-05,-7.93684e-06
544,9.32178e-06,7.82828e-06,5.91482e-05,4.05681e-05,-1.09589e-05,-1.18165e-05
545,5.50628e-06,7.12076e-06,6.06066e-05,3.86455e-05,2.58105e-06,-1.29574e-05
546,3.24057e-07,-4.82162e-07,5.49579e-05,3.30661e-05,8.16647e-06,-1.43402e-05
547,3.92813e-07,-1.53207e-05,4.6308e-05,3.16412e-05,6.62155e-06,-1.2972e-05
548,5.41487e-06,-2.33654e-05,4.2075e-05,3.33795e-05,3.46116e-06,-8.67321e-06
549,7.89552e-06,-1.13284e-05,4.40569e-05,3.13554e-05,7.45877e-06,-1.02609e-05
550,4.79082e-06,8.0364e-07,4.74903e-05,2.7333e-05,2.02689e-05,-1.52338e-05
551,-1.0299e-07,1.72048e-06,4.84593e-05,2.78961e-05,3.17352e-05,-1.64603e-05
552,-9.53813e-07,2.66996e-06,4.40122e-05,3.16011e-05,3.76115e-05,-1.55616e-05
553,4.16951e-06,5.00534e-06,3.8047e-05,3.57419e-05,3.73871e-05,-1.26428e-05
554,1.04868e-05,5.30156e-06,3.81492e-05,3.78091e-05,2.74495e-05,-9.66454e-06
555,1.13902e-05,-3.61324e-06,4.194e-05,3.61612e-05,1.85092e-05,-8.4697e-06
556,7.02653e-06,-1.69256e-05,4.12108e-05,3.10792e-05,1.60853e-05,-9.27924e-06
557,1.20065e-06,-1.95752e-05,3.38812e-05,2.6893e-05,1.03494e-05,-1.24179e-05
558,-3.63636e-06,-7.63343e-06,2.82784e-05,2.61808e-05,4.65708e-06,-1.29485e-05
559,-4.91392e-06,4.27005e-06,3.46693e-05,2.8834e-05,5.6229e-06,-1.10922e-05
560,6.14752e-07,3.87514e-06,4.1249e-05,3.21738e-05,1.00928e-05,-1.13723e-05
561,9.33406e-06,-8.09105e-06,3.83689e-05,3.09247e-05,1.62994e-05,-1.37168e-05
562,1.35204e-05,-2.00596e-05,3.33451e-05,2.72694e-05,1.7342e-05,-1.59136e-05
563,1.41312e-05,-2.02305e-05,3.6014e-05,2.79702e-05,1.27777e-05,-1.68902e-05
564,1.48612e-05,-1.02813e-05,4.51978e-05,3.40186e-05,1.20146e-05,-1.70897e-05
565,1.53315e-05,-1.98841e-06,4.83302e-05,3.70138e-05,1.696e-05,-1.65571e-05
566,1.67171e-05,-2.33708e-06,4.34868e-05,3.46778e-05,1.87065e-05,-1.64516e-05
567,1.89333e-05,-1.04395e-05,3.53658e-05,3.03198e-05,1.31387e-05,-1.51725e-05
568,1.99529e-05,-2.16511e-05,3.0786e-05,2.58644e-05,3.07057e-06,-9.92119e-06
569,1.66004e-05,-2.59358e-05,3.45244e-05,2.56627e-05,-6.15555e-06,-2.2487e-06
570,1.23965e-05,-1.91279e-05,4.19399e-05,3.29738e-05,-9.19183e-06,1.15203e-06
571,1.07184e-05,-8.78181e-06,4.51102e-05,4.1016e-05,-5.77034e-06,-1.7989e-06
572,8.91964e-06,-4.13962e-06,4.27365e-05,4.20052e-05,-2.95104e-07,-5.83569e-06
573,7.87134e-06,-8.34777e-06,3.55366e-05,3.62723e-05,3.09307e-06,-4.88771e-06
574,1.12267e-05,-2.19941e-05,2.78365e-05,2.98674e-05,3.45615e-06,-2.33128e-06
575,1.55774e-05,-2.7583e-05,2.79303e-05,3.46245e-05,5.21352e-06,-4.93931e-06
576,1.54077e-05,-1.39571e-05,3.55202e-05,5.05062e-05,1.64722e-05,-9.90197e-06
577,1.19622e-05,-4.524e-06,4.11689e-05,5.63596e-05,3.02853e-05,-1.21721e-05
578,9.09188e-06,-6.78773e-06,4.08634e-05,4.75479e-05,2.86339e-05,-1.10334e-05
579,9.70391e-06,-9.30848e-06,3.85048e-05,3.82479e-05,1.21862e-05,-8.63574e-06
580,1.197e-05,-9.53133e-06,3.85223e-05,3.52189e-05,-2.11075e-07,-7.69997e-06
581,1.30302e-05,-5.98595e-06,4.23009e-05,3.69939e-05,9.24948e-07,-8.1766e-06
582,1.33163e-05,-7.49887e-06,4.50657e-05,3.55735e-05,1.20772e-05,-9.83868e-06
583,1.42051e-05,-1.61286e-05,4.47649e-05,3.39372e-05,2.08077e-05,-1.28622e-05
584,1.14358e-05,-1.88909e-05,4.605e-05,3.84098e-05,1.91798e-05,-1.57986e-05
585,5.47804e-06,-1.15018e-05,5.03957e-05,4.45132e-05,1.63214e-05,-1.65532e-05
586,2.56001e-06,-3.24807e-06,5.41353e-05,4.4901e-05,1.93551e-05,-1.64007e-05
587,4.13385e-06,-6.90935e-08,5.37469e-05,4.02142e-05,2.72501e-05,-1.79654e-05
588,8.0141e-06,-5.02395e-06,4.84394e-05,3.36882e-05,4.04916e-05,-1.86601e-05
589,9.66681e-06,-1.31111e-05,4.49243e-05,2.84385e-05,5.42468e-05,-1.81814e-05
590,9.30597e-06,-1.33928e-05,4.99042e-05,2.91492e-05,6.40813e-05,-1.73028e-05
591,1.03286e-05,-2.68928e-06,5.58255e-05,3.26681e-05,7.22954e-05,-1.48415e-05
592,1.22898e-05,7.30276e-06,5.75005e-05,3.23766e-05,7.83759e-05,-1.03166e-05
593,1.17993e-05,7.65848e-06,5.67021e-05,3.08004e-05,7.4908e-05,-8.85811e-06
594,1.02256e-05,-8.69418e-07,5.40653e-05,3.24603e-05,6.0745e-05,-1.23183e-05
595,1.17475e-05,-1.35842e-05,5.34874e-05,3.52439e-05,3.59998e-05,-1.51806e-05
596,1.48662e-05,-1.87884e-05,5.82308e-05,3.75959e-05,1.9129e-06,-1.18293e-05
597,1.78113e-05,-1.18004e-05,6.43092e-05,4.20941e-05,-3.35378e-05,-3.9176e-06
598,2.0371e-05,-3.73583e-06,6.50571e-05,4.53459e-05,-5.9649e-05,1.36746e-06
599,2.28033e-05,-3.46399e-06,5.82194e-05,4.12102e-05,-6.95545e-05,-1.36889e-06
600,2.3983e-05,-8.45914e-06,4.8125e-05,3.3409e-05,-6.32443e-05,-1.20281e-05
601,2.31077e-05,-2.14043e-05,4.2329e-05,2.86346e-05,-4.98423e-05,-2.03943e-05
602,2.10417e-05,-2.98342e-05,4.33691e-05,2.88481e-05,-4.33734e-05,-1.87861e-05
603,1.88778e-05,-1.73629e-05,4.72413e-05,3.21819e-05,-4.54777e-05,-1.22522e-05
604,1.64697e-05,-2.67119e-06,4.98738e-05,3.53063e-05,-4.88274e-05,-1.01031e-05
605,1.53879e-05,-1.32848e-06,5.33899e-05,3.67934e-05,-4.74332e-05,-1.26176e-05
606,1.64539e-05,-4.63977e-06,5.51381e-05,3.81735e-05,-3.93757e-05,-1.47179e-05
607,1.86597e-05,-5.32111e-06,5.0457e-05,4.08389e-05,-2.51584e-05,-1.70677e-05
608,2.22337e-05,-2.73322e-06,4.63012e-05,4.45132e-05,-9.77611e-06,-1.91692e-05
609,2.33507e-05,-6.90391e-06,5.03713e-05,4.32818e-05,1.0263e-05,-2.0608e-05
610,1.83724e-05,-1.66589e-05,6.10241e-05,3.39989e-05,3.51086e-05,-2.36898e-05
611,1.35667e-05,-1.70327e-05,6.74253e-05,2.57525e-05,4.11229e-05,-2.5472e-05
612,1.34916e-05,-5.22474e-06,6.61482e-05,2.60724e-05,1.82834e-05,-2.47429e-05
613,1.27089e-05,4.12283e-06,6.39243e-05,3.24437e-05,-1.2983e-05,-2.1904e-05
614,1.01062e-05,6.16314e-06,6.09797e-05,3.97741e-05,-3.43282e-05,-1.85386e-05
615,1.0681e-05,4.9864e-07,5.67487e-05,3.97031e-05,-4.14017e-05,-1.42152e-05
616,1.44972e-05,-8.41022e-06,5.16942e-05,3.19361e-05,-3.7575e-05,-1.249e-05
617,1.68593e-05,-1.06241e-05,4.94501e-05,2.75625e-05,-2.56286e-05,-1.41948e-05
618,1.77474e-05,-3.13261e-06,5.15029e-05,3.12888e-05,-2.00358e-06,-1.46996e-05
619,1.84433e-05,4.83954e-06,5.5479e-05,3.47771e-05,3.56703e-05,-1.15079e-05
620,1.93688e-05,5.44802e-06,5.78818e-05,3.1992e-05,8.09927e-05,-7.05164e-06
621,1.95019e-05,-6.56246e-07,5.46792e-05,2.57393e-05,0.000116181,-7.82654e-06
622,1.85911e-05,-1.11386e-05,5.04909e-05,2.14204e-05,0.000120698,-1.42926e-05
623,1.80778e-05,-1.53849e-05,5.09451e-05,2.39902e-05,0.000101093,-1.89076e-05
624,1.70981e-05,-7.38749e-06,5.40797e-05,3.0478e-05,8.3071e-05,-1.59394e-05
625,1.64296e-05,2.94746e-06,5.68575e-05,3.43458e-05,7.53116e-05,-9.2327e-06
626,1.66397e-05,3.71038e-06,5.85005e-05,3.35541e-05,6.84823e-05,-4.35313e-06
627,1.65567e-05,-2.06435e-06,5.68619e-05,3.21928e-05,5.49159e-05,-4.58249e-06
628,1.74916e-05,-1.52813e-05,5.21175e-05,3.31884e-05,3.32302e-05,-7.1218e-06
629,1.86009e-05,-2.4846e-05,5.10478e-05,3.7032e-05,8.87386e-06,-8.31752e-06
630,1.64295e-05,-1.72379e-05,5.75085e-05,4.40669e-05,-5.39999e-06,-6.91071e-06
631,1.26603e-05,-8.4857e-06,6.6921e-05,4.70613e-05,-6.07384e-06,-1.86545e-06
632,1.02138e-05,-4.34698e-06,7.09665e-05,4.85228e-05,-5.87645e-06,1.65029e-06
633,1.00517e-05,-2.07504e-07,6.53034e-05,4.89603e-05,-1.44398e-05,2.02819e-06
634,1.09786e-05,2.50402e-06,5.72684e-05,4.59903e-05,-2.41912e-05,1.88922e-06
635,1.16669e-05,3.63882e-06,5.6889e-05,4.53943e-05,-2.44723e-05,2.11485e-07
636,1.28031e-05,-3.5751e-06,6.07889e-05,4.31505e-05,-1.16576e-05,-2.33805e-08
637,1.46171e-05,-1.3474e-05,6.0696e-05,3.99576e-05,3.9959e-06,1.90908e-06
638,1.31058e-05,-1.52278e-05,5.68132e-05,3.73379e-05,6.51376e-06,3.98944e-06
639,9.06618e-06,-9.14116e-06,5.1953e-05,3.73533e-05,4.36387e-06,4.71746e-06
640,4.1932e-06,-4.50719e-06,5.176e-05,4.08794e-05,6.18429e-06,7.65534e-06
641,7.26798e-07,-3.79993e-06,5.39693e-05,4.60939e-05,1.09482e-05,1.26306e-05
642,4.56273e-06,-9.56048e-06,5.26447e-05,4.60006e-05,1.52365e-05,1.50634e-05
643,1.09887e-05,-1.91533e-05,5.01921e-05,4.05993e-05,9.16685e-06,1.04363e-05
644,1.52391e-05,-2.18296e-05,5.16206e-05,3.81524e-05,3.60173e-07,2.83657e-06
645,1.47674e-05,-1.46533e-05,5.72756e-05,3.94673e-05,-8.14935e-07,1.24539e-06
646,1.07428e-05,-7.89438e-06,6.40611e-05,3.83995e-05,5.67735e-06,6.69959e-06
647,4.77122e-06,-8.79009e-06,6.50261e-05,3.35782e-05,1.30017e-05,1.13092e-05
648,3.28743e-07,-1.52967e-05,5.58436e-05,2.91586e-05,1.45659e-05,9.82181e-06
649,-1.5986e-08,-2.36533e-05,4.43782e-05,2.74735e-05,8.30339e-06,5.7348e-06
650,1.5579e-06,-2.48018e-05,4.13163e-05,3.25554e-05,2.3102e-06,3.24429e-06
651,3.24725e-06,-1.40648e-05,4.59765e-05,4.12773e-05,3.02213e-06,1.37394e-06
652,4.85946e-06,-5.22691e-07,5.01349e-05,4.68733e-05,7.46721e-06,-1.2588e-06
653,6.75361e-06,4.60232e-06,5.10482e-05,4.75504e-05,1.11059e-05,-5.00912e-06
654,6.77631e-06,2.55225e-07,4.76965e-05,4.64308e-05,1.23889e-05,-8.43729e-06
655,5.53918e-06,-1.45536e-05,4.10033e-05,4.17931e-05,8.47602e-06,-1.05951e-05
656,2.94242e-06,-2.32749e-05,3.44187e-05,3.70718e-05,9.01518e-07,-1.6373e-05
657,-1.29008e-06,-1.00342e-05,3.26173e-05,3.88627e-05,-7.17737e-07,-1.89532e-05
658,-7.95216e-06,2.90923e-06,3.69878e-05,4.35229e-05,4.49198e-06,-1.53576e-05
659,-1.27616e-05,6.54e-06,4.19901e-05,4.77987e-05,8.85288e-06,-1.03551e-05
660,-1.01791e-05,1.04211e-05,3.93681e-05,4.82567e-05,7.38405e-06,-9.50956e-06
661,-2.24083e-06,9.56903e-06,3.2234e-05,4.54005e-05,1.59491e-06,-1.10426e-05
662,2.73428e-06,6.62875e-06,3.15081e-05,4.48538e-05,-7.08949e-06,-1.15179e-05
663,2.55096e-06,-1.00022e-06,3.44509e-05,4.4922e-05,-9.94023e-06,-1.23384e-05
664,3.53179e-06,-1.10612e-05,3.4162e-05,4.59263e-05,-2.29934e-07,-1.77333e-05
665,7.47584e-06,-1.21796e-05,3.03239e-05,4.82723e-05,8.76738e-06,-2.38407e-05
666,1.1383e-05,-1.60548e-06,2.74618e-05,5.34672e-05,1.23344e-05,-2.39207e-05
667,1.46123e-05,8.82726e-06,3.18976e-05,5.5939e-05,1.8425e-05,-2.07437e-05
668,1.48146e-05,1.14231e-05,3.91876e-05,5.2716e-05,2.29288e-05,-1.92282e-05
669,1.35409e-05,3.14679e-06,4.07181e-05,4.64561e-05,2.53207e-05,-1.88394e-05
670,1.64232e-05,-9.6894e-06,3.79073e-05,4.06383e-05,2.12337e-05,-1.69589e-05
671,2.10679e-05,-1.33624e-05,4.03587e-05,4.17863e-05,1.1665e-05,-1.53057e-05
672,2.28383e-05,-5.47192e-06,4.66356e-05,4.99399e-05,7.812e-06,-1.17824e-05
673,2.01805e-05,2.84476e-06,4.99889e-05,5.53419e-05,1.55674e-05,-7.31679e-06
674,1.58982e-05,3.94689e-06,5.06708e-05,5.07296e-05,2.67827e-05,-6.87367e-06
675,1.27866e-05,-8.91634e-07,4.70647e-05,4.09676e-05,3.3914e-05,-1.10129e-05
676,1.21328e-05,-1.13609e-05,4.17814e-05,3.33859e-05,3.5386e-05,-1.31342e-05
677,1.37497e-05,-1.73355e-05,4.1994e-05,3.59435e-05,2.96832e-05,-1.35596e-05
678,1.69469e-05,-1.08888e-05,4.5259e-05,4.49609e-05,2.47401e-05,-1.47427e-05
679,1.83892e-05,-1.16875e-06,4.58987e-05,4.67272e-05,2.70419e-05,-1.33431e-05
680,1.60141e-05,-3.58919e-07,4.39908e-05,3.82612e-05,3.23687e-05,-8.29493e-06
681,1.26389e-05,-7.18505e-06,4.09942e-05,2.90004e-05,3.27981e-05,-4.66006e-06
682,1.13599e-05,-1.99504e-05,3.81951e-05,2.55518e-05,2.84243e-05,-2.73408e-06
683,1.20361e-05,-2.57929e-05,3.77967e-05,2.77948e-05,2.45231e-05,-3.85587e-06
684,1.31957e-05,-1.37272e-05,4.0537e-05,2.9383e-05,2.6008e-05,-8.13876e-06
685,1.40466e-05,-4.21425e-06,4.32354e-05,2.60415e-05,2.95962e-05,-7.06326e-06
686,1.5376e-05,-8.04749e-06,4.50042e-05,2.3533e-05,2.67801e-05,-3.32553e-06
687,1.76774e-05,-1.18567e-05,4.51796e-05,2.71474e-05,1.586e-05,-1.97385e-06
688,1.9421e-05,-9.46629e-06,4.20708e-05,3.0745e-05,3.28e-06,-4.31636e-06
689,1.7998e-05,-3.66446e-06,3.99125e-05,2.94884e-05,-3.84604e-06,-9.11922e-06
690,1.41565e-05,-9.43332e-06,4.48893e-05,2.31227e-05,-1.22569e-06,-1.03604e-05
691,1.02119e-05,-2.39245e-05,5.24734e-05,1.91182e-05,7.38912e-06,-9.87248e-06
692,7.11881e-06,-2.71583e-05,5.37968e-05,2.31978e-05,9.77257e-06,-9.9665e-06
693,7.25349e-06,-1.54591e-05,5.17935e-05,2.98849e-05,2.97157e-06,-9.21851e-06
694,6.93696e-06,-4.03177e-06,5.27457e-05,3.34856e-05,-8.70912e-06,-7.2833e-06
695,5.6468e-06,-1.94992e-06,5.40334e-05,3.14962e-05,-2.04051e-05,-5.57234e-06
696,6.02464e-06,-9.06283e-06,5.29596e-05,2.48154e-05,-1.91846e-05,-4.31632e-06
697,8.09319e-06,-2.0184e-05,5.16286e-05,2.22883e-05,-5.55224e-06,-1.78998e-06
698,9.70725e-06,-2.28138e-05,5.30662e-05,2.94833e-05,1.51972e-05,-9.82966e-07
699,1.12233e-05,-1.11408e-05,5.61887e-05,3.9674e-05,3.46023e-05,-3.00639e-06
700,1.33326e-05,2.68115e-06,5.89026e-05,4.43067e-05,4.29846e-05,-4.36467e-06
701,1.38611e-05,6.90214e-06,5.78335e-05,4.28891e-05,3.99271e-05,-6.30506e-06
702,1.37511e-05,2.21444e-06,5.15842e-05,3.87812e-05,3.19663e-05,-1.19256e-05
703,1.27407e-05,-8.45866e-06,4.74742e-05,3.51498e-05,2.52987e-05,-1.72412e-05
704,9.1965e-06,-1.28381e-05,5.18889e-05,3.72099e-05,2.37773e-05,-1.6785e-05
705,6.97787e-06,-2.91121e-06,5.98807e-05,4.56821e-05,3.08848e-05,-1.15885e-05
706,8.05739e-06,8.50556e-06,6.39851e-05,5.1756e-05,4.02641e-05,-7.69803e-06
707,1.08039e-05,7.0982e-06,6.17483e-05,5.20846e-05,4.01051e-05,-6.86483e-06
708,1.31664e-05,-4.70319e-06,5.50701e-05,4.895e-05,2.96366e-05,-5.97204e-06
709,1.4233e-05,-2.17347e-05,5.10981e-05,4.08986e-05,2.17552e-05,-4.98163e-06
710,1.54241e-05,-2.85959e-05,5.39876e-05,3.73569e-05,2.27217e-05,-6.71834e-06
711,1.94538e-05,-1.70346e-05,5.84425e-05,4.12813e-05,2.99392e-05,-1.16353e-05
712,2.6023e-05,-7.37752e-06,5.84026e-05,4.29098e-05,3.60958e-05,-1.57171e-05
713,3.01246e-05,-7.86189e-06,5.51066e-05,4.06251e-05,3.70645e-05,-1.81915e-05
714,3.04623e-05,-7.48214e-06,4.98266e-05,3.99939e-05,3.40642e-05,-2.48361e-05
715,2.82685e-05,-5.58263e-06,4.61847e-05,4.03583e-05,2.66882e-05,-3.09158e-05
716,2.45276e-05,-5.28215e-06,5.07621e-05,4.16071e-05,1.46471e-05,-2.84494e-05
717,1.95598e-05,-1.25045e-05,5.83066e-05,3.83774e-05,5.66386e-06,-2.13409e-05
718,1.4142e-05,-2.26703e-05,5.96521e-05,2.95044e-05,9.4349e-06,-1.80197e-05
719,1.17284e-05,-2.12963e-05,5.36306e-05,2.59788e-05,1.77239e-05,-2.07651e-05
720,1.28528e-05,-1.13284e-05,4.8667e-05,2.90814e-05,1.69479e-05,-2.40515e-05
721,1.38786e-05,-6.50346e-06,5.55998e-05,3.18801e-05,8.85812e-06,-2.32324e-05
722,1.49552e-05,-7.91773e-06,6.30925e-05,3.13578e-05,7.39026e-07,-2.11042e-05
723,1.54231e-05,-1.13579e-05,5.89019e-05,2.70132e-05,-3.66514e-06,-2.17644e-05
724,1.5263e-05,-1.65523e-05,5.17781e-05,2.05472e-05,-1.07735e-05,-2.49645e-05
725,1.30874e-05,-1.75898e-05,5.16002e-05,2.00687e-05,-1.85988e-05,-3.01976e-05
726,1.116e-05,-9.98543e-06,5.74649e-05,2.83707e-05,-2.12199e-05,-3.49026e-05
727,9.50693e-06,-8.60987e-07,6.50136e-05,3.62833e-05,-2.10954e-05,-3.46321e-05
728,6.29656e-06,2.0685e-06,7.12708e-05,3.70261e-05,-2.52399e-05,-2.81091e-05
729,5.57893e-06,-3.56413e-06,7.15599e-05,3.26976e-05,-2.90609e-05,-1.96589e-05
730,8.23468e-06,-1.46872e-05,6.59091e-05,2.78476e-05,-2.3399e-05,-1.45011e-05
731,7.96005e-06,-2.02754e-05,6.06429e-05,2.94609e-05,-4.10771e-06,-1.08939e-05
732,5.00275e-06,-1.358e-05,6.00903e-05,3.53229e-05,2.16443e-05,-7.21807e-06
733,4.91499e-06,-2.7204e-06,6.198e-05,3.64388e-05,3.65451e-05,-6.71876e-06
734,7.53362e-06,1.30943e-06,6.03442e-05,3.28552e-05,3.31175e-05,-5.88394e-06
735,9.76455e-06,-2.5499e-06,5.28438e-05,2.83526e-05,2.30783e-05,-2.77233e-06
736,9.48566e-06,-1.26979e-05,4.53456e-05,2.55408e-05,1.99378e-05,-4.20594e-06
737,7.81759e-06,-1.72518e-05,4.61341e-05,2.80722e-05,1.95826e-05,-1.36233e-05
738,6.56544e-06,-7.33437e-06,5.48187e-05,3.43481e-05,1.94686e-05,-2.13934e-05
739,6.69533e-06,1.61609e-06,6.29242e-05,3.85294e-05,2.25511e-05,-2.38722e-05
740,6.82282e-06,4.65035e-06,6.46378e-05,4.1057e-05,2.41769e-05,-2.28625e-05
741,8.04529e-06,7.23619e-06,6.02663e-05,4.42467e-05,1.56049e-05,-2.11129e-05
742,1.18994e-05,6.75032e-06,5.36875e-05,4.36645e-05,4.24135e-06,-2.17921e-05
743,1.7348e-05,4.84814e-06,5.31894e-05,3.9354e-05,-3.73747e-06,-2.2453e-05
744,1.91431e-05,-1.80145e-06,5.95201e-05,3.28419e-05,-4.34493e-06,-2.42271e-05
745,1.46466e-05,-1.11394e-05,6.21029e-05,2.5336e-05,4.91718e-06,-2.45335e-05
746,1.05617e-05,-1.13106e-05,5.77262e-05,2.43435e-05,1.26259e-05,-2.30162e-05
747,1.13403e-05,-1.58204e-06,5.28353e-05,2.99757e-05,1.54192e-05,-1.91374e-05
748,1.36974e-05,5.68412e-06,5.25952e-05,3.3941e-05,1.92904e-05,-1.42767e-05
749,1.6957e-05,5.10926e-06,5.81098e-05,3.22309e-05,2.06345e-05,-8.1182e-06
750,1.96823e-05,-2.5575e-06,6.2234e-05,2.73027e-05,1.97972e-05,-2.93983e-06
751,1.94786e-05,-1.20354e-05,5.90977e-05,2.30935e-05,1.79903e-05,-2.75786e-06
752,1.73123e-05,-1.34076e-05,5.57969e-05,2.28767e-05,1.84195e-05,-6.2348e-06
753,1.67646e-05,-6.00866e-06,5.5164e-05,2.66561e-05,2.24124e-05,-9.30839e-06
754,1.67445e-05,1.282e-06,5.60093e-05,3.0878e-05,2.72011e-05,-8.42684e-06
755,1.74071e-05,4.50399e-06,5.51529e-05,3.33816e-05,2.87577e-05,-5.89344e-06
756,1.80658e-05,2.137e-06,4.98947e-05,3.29664e-05,2.78883e-05,-5.28517e-06
757,1.63342e-05,-7.19686e-06,4.39629e-05,2.99275e-05,2.52501e-05,-6.12122e-06
758,1.18569e-05,-1.25482e-05,4.1884e-05,3.00974e-05,1.75257e-05,-5.39906e-06
759,6.93357e-06,-6.47846e-06,4.37966e-05,3.51461e-05,8.87038e-06,-3.65763e-06
760,5.28937e-06,1.97139e-07,4.72333e-05,3.80503e-05,3.65793e-06,-1.30579e-06
761,7.43904e-06,1.33572e-06,4.96436e-05,3.68076e-05,5.0415e-06,3.25765e-07
762,1.03003e-05,7.8801e-08,4.84067e-05,3.33324e-05,1.10998e-05,4.11325e-06
763,1.10125e-05,-5.97292e-06,4.61054e-05,2.89607e-05,1.71004e-05,9.16887e-06
764,1.05361e-05,-8.61417e-06,4.73146e-05,3.21112e-05,1.70546e-05,8.80209e-06
765,9.73479e-06,1.57898e-06,5.16835e-05,4.49149e-05,1.37156e-05,2.57538e-07
766,8.42932e-06,1.03145e-05,5.44639e-05,4.92418e-05,1.46285e-05,-5.51177e-06
767,6.87148e-06,8.66769e-06,5.45942e-05,4.36503e-05,2.23178e-05,-3.32494e-06
768,8.11496e-06,4.48166e-06,5.05563e-05,4.11848e-05,3.13215e-05,-2.98069e-06
769,1.1041e-05,3.36404e-06,4.40331e-05,4.099e-05,3.2678e-05,-9.44147e-06
770,1.20526e-05,4.46119e-06,4.48407e-05,3.95841e-05,2.46415e-05,-1.68074e-05
771,1.04608e-05,-1.87405e-06,5.22889e-05,3.53357e-05,2.04863e-05,-1.77391e-05
772,1.07515e-05,-1.23377e-05,5.55552e-05,3.3037e-05,2.97976e-05,-1.42915e-05
773,1.05007e-05,-1.22751e-05,4.83216e-05,3.73898e-05,4.05271e-05,-1.08347e-05
774,7.8534e-06,-1.42208e-06,3.8792e-05,4.52432e-05,4.96674e-05,-1.05472e-05
775,6.38149e-06,6.09993e-06,3.92935e-05,4.88735e-05,5.89937e-05,-1.11395e-05
776,5.42059e-06,4.79488e-06,4.54012e-05,4.7489e-05,6.29294e-05,-1.0821e-05
777,5.61592e-06,-5.59747e-06,4.63979e-05,4.37972e-05,6.33957e-05,-1.04336e-05
778,8.94938e-06,-1.58461e-05,4.32291e-05,4.15947e-05,5.71317e-05,-1.30718e-05
779,1.26581e-05,-1.53839e-05,4.54298e-05,4.31666e-05,4.42498e-05,-1.82913e-05
780,1.4468e-05,-7.96827e-06,5.37471e-05,4.72576e-05,2.70156e-05,-2.06635e-05
781,1.42788e-05,-3.74387e-06,6.16288e-05,4.89106e-05,1.21074e-05,-1.67779e-05
782,1.26849e-05,-5.81455e-06,6.21451e-05,4.46138e-05,1.28376e-06,-9.09429e-06
783,1.33372e-05,-1.33717e-05,5.50807e-05,3.68122e-05,-1.33907e-05,-3.56696e-06
784,1.59618e-05,-2.54453e-05,4.70739e-05,3.14087e-05,-3.31897e-05,-1.37585e-06
785,1.80938e-05,-2.9214e-05,4.57263e-05,3.31905e-05,-4.65759e-05,-6.10991e-07
786,1.9134e-05,-1.96363e-05,5.13908e-05,3.68559e-05,-4.15045e-05,-2.7175e-06
787,1.95505e-05,-1.15285e-05,5.73726e-05,3.36523e-05,-2.08367e-05,-5.99856e-06
788,2.01653e-05,-1.43709e-05,5.66299e-05,2.50701e-05,6.93681e-06,-4.01013e-06
789,2.08029e-05,-2.16665e-05,4.82761e-05,1.98697e-05,2.9459e-05,1.4951e-06
790,1.99431e-05,-3.01922e-05,4.02904e-05,2.04938e-05,3.68465e-05,6.31569e-06
791,1.67905e-05,-2.89187e-05,4.04839e-05,2.48008e-05,3.12584e-05,6.26665e-06
792,1.26757e-05,-1.1977e-05,4.55487e-05,3.13408e-05,2.73207e-05,4.74756e-06
793,1.31356e-05,-8.62913e-07,4.69127e-05,3.60228e-05,3.01106e-05,4.81344e-06
794,1.67699e-05,1.67714e-07,4.56828e-05,3.55404e-05,2.98178e-05,1.46733e-06
795,1.57855e-05,2.69388e-06,4.4731e-05,3.22654e-05,2.14007e-05,-1.46997e-06
796,1.19593e-05,1.36278e-06,4.1613e-05,2.74669e-05,1.22463e-05,-8.60207e-07
797,8.75743e-06,-3.63472e-06,3.94792e-05,2.6347e-05,3.50905e-06,1.22057e-06
798,5.25285e-06,-1.16457e-05,4.27696e-05,2.65612e-05,-1.55642e-06,4.6275e-06
799,3.4307e-06,-1.93789e-05,4.64749e-05,2.57383e-05,2.74231e-06,5.75369e-06
800,5.55567e-06,-1.72629e-05,4.51581e-05,2.79851e-05,1.97084e-06,3.78434e-06
801,7.42774e-06,-7.49428e-06,4.49582e-05,3.31282e-05,-7.31022e-06,1.22147e-06
802,7.43774e-06,-2.81181e-06,5.01172e-05,3.54806e-05,-1.48848e-05,-6.8712e-07
803,7.20648e-06,-4.35493e-06,4.88658e-05,3.3542e-05,-1.90739e-05,-2.67676e-06
804,6.62059e-06,-1.12608e-05,3.96395e-05,3.12711e-05,-1.80419e-05,-6.25357e-06
805,5.45252e-06,-2.07432e-05,3.19264e-05,3.10761e-05,-1.60149e-05,-9.92959e-06
806,3.78625e-06,-2.20288e-05,3.48838e-05,3.35511e-05,-9.00894e-06,-1.27205e-05
807,3.78762e-06,-1.25849e-05,4.30794e-05,3.78658e-05,3.06352e-06,-1.40213e-05
808,5.47002e-06,-1.49693e-06,4.83915e-05,4.17441e-05,6.31661e-06,-1.42172e-05
809,6.44648e-06,3.21705e-06,4.85258e-05,4.28243e-05,-3.47877e-06,-1.31265e-05
810,6.51982e-06,-9.0107e-07,4.36327e-05,4.0284e-05,-1.77502e-05,-1.1057e-05
811,6.57785e-06,-1.24565e-05,3.89903e-05,3.49448e-05,-2.77003e-05,-1.00381e-05
812,7.14446e-06,-1.78035e-05,4.08313e-05,3.32083e-05,-3.20122e-05,-1.1563e-05
813,8.93412e-06,-9.92826e-06,4.78805e-05,3.83016e-05,-3.3784e-05,-1.36283e-05
814,1.01993e-05,1.38215e-06,5.17351e-05,4.53349e-05,-3.69324e-05,-1.4007e-05
815,1.01269e-05,4.19653e-06,4.95085e-05,4.84142e-05,-4.29586e-05,-1.47227e-05
816,9.33434e-06,-1.15419e-06,4.51455e-05,4.91244e-05,-4.9968e-05,-1.65303e-05
817,8.56666e-06,-1.03663e-05,4.41685e-05,4.62251e-05,-5.13221e-05,-1.80116e-05
818,8.01661e-06,-1.24476e-05,4.71653e-05,4.24967e-05,-4.36023e-05,-2.04326e-05
819,8.94506e-06,-3.54979e-06,4.92628e-05,4.29582e-05,-3.01716e-05,-2.20518e-05
820,1.17971e-05,1.13548e-06,4.61994e-05,4.47981e-05,-1.74784e-05,-1.8351e-05
821,1.38657e-05,1.74312e-06,4.38545e-05,4.62731e-05,-5.13071e-06,-1.109e-05
822,1.43358e-05,3.05378e-06,4.50164e-05,4.53873e-05,4.14411e-06,-7.06438e-06
823,1.39934e-05,-1.11475e-06,4.3896e-05,4.32915e-05,5.36923e-06,-7.74412e-06
824,1.21279e-05,-8.31415e-06,4.11569e-05,4.17231e-05,1.07146e-06,-8.18418e-06
825,9.59073e-06,-1.83107e-05,4.42683e-05,3.65726e-05,1.14964e-06,-6.31839e-06
826,8.25533e-06,-2.70898e-05,5.19249e-05,3.07934e-05,7.30795e-06,-3.6372e-06
827,9.6826e-06,-2.45825e-05,5.73772e-05,3.16898e-05,1.2009e-05,-5.52379e-06
828,1.24015e-05,-1.24831e-05,5.52253e-05,3.8112e-05,1.34313e-05,-1.14926e-05
829,1.52491e-05,-2.75338e-06,5.17258e-05,4.31125e-05,1.13788e-05,-1.62163e-05
830,1.5954e-05,3.64721e-07,5.11414e-05,4.39099e-05,1.34677e-05,-1.77207e-05
831,1.34581e-05,-3.25501e-06,5.0201e-05,4.36846e-05,2.02816e-05,-1.58162e-05
832,1.14065e-05,-1.00345e-05,4.89024e-05,4.47951e-05,2.25877e-05,-1.29382e-05
833,1.01987e-05,-1.06605e-05,5.05792e-05,4.79851e-05,2.02725e-05,-9.47658e-06
834,9.81117e-06,-5.12875e-06,5.17895e-05,5.13522e-05,2.25163e-05,-5.54881e-06
835,9.03841e-06,-1.43646e-06,4.98321e-05,4.99664e-05,3.01558e-05,-3.77421e-06
836,8.03251e-06,-1.68048e-06,4.62241e-05,4.3276e-05,3.24973e-05,-5.95289e-06
837,6.8215e-06,-6.60957e-06,4.20972e-05,3.67649e-05,2.73689e-05,-7.4561e-06
838,6.04148e-06,-1.81869e-05,4.11673e-05,3.39684e-05,1.91568e-05,-7.26206e-06
839,6.57807e-06,-2.44973e-05,4.48903e-05,3.56335e-05,1.45459e-05,-1.13491e-05
840,9.06648e-06,-1.67549e-05,4.9629e-05,4.07233e-05,1.87546e-05,-1.63155e-05
841,1.14817e-05,-6.46918e-06,5.11086e-05,4.31634e-05,3.04172e-05,-1.49547e-05
842,1.28561e-05,-3.82604e-06,5.08571e-05,4.16129e-05,3.96444e-05,-1.1714e-05
843,1.23235e-05,-9.46397e-06,5.10769e-05,4.08386e-05,4.14234e-05,-1.18028e-05
844,9.71426e-06,-2.31848e-05,5.32539e-05,4.20325e-05,3.74688e-05,-1.37704e-05
845,7.34e-06,-3.02439e-05,5.72066e-05,4.75812e-05,2.71478e-05,-1.3566e-05
846,7.29704e-06,-1.88418e-05,6.16162e-05,5.46379e-05,1.56473e-05,-1.23975e-05
847,1.10417e-05,-5.81602e-06,6.31647e-05,5.43667e-05,4.61246e-06,-1.27757e-05
848,1.47523e-05,-1.86838e-06,6.25009e-05,4.85591e-05,-1.19982e-05,-1.06596e-05
849,1.42138e-05,-4.4902e-07,5.97982e-05,4.6371e-05,-2.32986e-05,-9.19937e-06
850,1.34407e-05,-1.26087e-06,5.59095e-05,4.52146e-05,-1.82724e-05,-1.08135e-05
851,1.72378e-05,-1.6518e-06,5.67675e-05,4.15879e-05,-6.46655e-06,-1.33313e-05
852,2.0366e-05,-5.99839e-06,6.02746e-05,3.98717e-05,9.0492e-06,-1.29056e-05
853,2.0095e-05,-1.46364e-05,6.12083e-05,4.05415e-05,3.50573e-05,-1.00704e-05
854,1.71176e-05,-1.59951e-05,6.01059e-05,4.44942e-05,5.29844e-05,-8.90923e-06
855,1.20933e-05,-9.01755e-06,6.03449e-05,4.66659e-05,5.49771e-05,-8.53461e-06
856,8.50791e-06,-5.70591e-07,6.4626e-05,4.50155e-05,7.02151e-05,-9.0422e-06
857,9.46782e-06,4.02213e-06,6.42445e-05,4.52197e-05,0.000111548,-1.16608e-05
858,1.1858e-05,1.00229e-06,5.4572e-05,4.29938e-05,0.000150039,-1.45268e-05
859,1.19306e-05,-5.13651e-06,4.70916e-05,3.76276e-05,0.000141088,-1.57113e-05
860,1.15808e-05,-5.10055e-06,5.01881e-05,3.78848e-05,9.00491e-05,-1.4626e-05
861,1.23167e-05,1.24588e-06,5.62187e-05,4.53467e-05,3.80654e-05,-9.24137e-06
862,1.31692e-05,5.33289e-06,5.98395e-05,5.03371e-05,9.58275e-06,-3.97432e-06
863,1.34379e-05,3.77892e-06,5.75868e-05,4.70541e-05,-1.44793e-07,-2.7567e-06
864,1.26599e-05,-8.92411e-07,5.20543e-05,3.71761e-05,2.1844e-06,-2.19374e-06
865,1.04122e-05,-8.74693e-06,4.99284e-05,2.67984e-05,8.03488e-06,-2.43943e-06
866,8.03511e-06,-1.33134e-05,5.35176e-05,2.61938e-05,5.7783e-06,-7.15783e-06
867,9.38112e-06,-7.70118e-06,6.13972e-05,3.45004e-05,-1.09153e-06,-1.15949e-05
868,1.23762e-05,2.92051e-07,6.74851e-05,3.87507e-05,-2.41943e-06,-9.17275e-06
869,1.32527e-05,-3.10027e-07,6.68799e-05,3.76739e-05,1.78315e-06,-2.8271e-06
870,1.26745e-05,-1.10565e-05,5.93237e-05,3.42467e-05,4.53098e-06,1.1784e-07
871,1.29258e-05,-2.62637e-05,5.11997e-05,2.79657e-05,3.72172e-06,-1.83977e-06
872,1.29237e-05,-2.9473e-05,4.83407e-05,2.55116e-05,1.75969e-06,-4.76176e-06
873,1.05802e-05,-1.29266e-05,4.9757e-05,2.92883e-05,6.2931e-06,-4.73134e-06
874,8.96597e-06,4.54745e-07,5.0754e-05,3.08359e-05,2.02722e-05,-2.34255e-06
875,1.00211e-05,6.88751e-07,5.43773e-05,2.80653e-05,3.78379e-05,-7.34102e-07
876,1.03637e-05,2.14002e-07,5.79791e-05,2.74264e-05,5.27401e-05,-3.3303e-06
877,9.37591e-06,-1.0925e-06,5.79087e-05,2.69472e-05,6.13567e-05,-9.38139e-06
878,1.02395e-05,-2.85904e-06,5.88821e-05,2.46768e-05,5.32162e-05,-1.12736e-05
879,1.25158e-05,-8.94779e-06,6.04137e-05,2.12797e-05,3.50432e-05,-8.34598e-06
880,1.68757e-05,-1.88011e-05,6.0546e-05,2.09526e-05,2.45508e-05,-7.55199e-06
881,1.8668e-05,-1.93073e-05,6.18277e-05,2.69901e-05,2.17276e-05,-1.11687e-05
882,1.80093e-05,-9.64111e-06,6.27736e-05,3.30871e-05,1.9229e-05,-1.26979e-05
883,2.02419e-05,-2.05409e-06,6.381e-05,3.3966e-05,1.49484e-05,-1.16631e-05
884,2.19842e-05,-1.8909e-06,6.22481e-05,3.11437e-05,9.40593e-06,-1.1333e-05
885,2.16742e-05,-8.33679e-06,5.60177e-05,2.64629e-05,7.231e-06,-1.17572e-05
886,2.07465e-05,-1.65056e-05,4.76161e-05,2.25582e-05,6.75946e-06,-1.2497e-05
887,2.03421e-05,-1.70732e-05,4.23631e-05,2.51284e-05,3.77649e-06,-1.28139e-05
888,2.01387e-05,-8.85732e-06,4.25201e-05,3.258e-05,3.87366e-06,-1.31893e-05
889,2.0636e-05,-2.3631e-06,4.66013e-05,3.80156e-05,1.03855e-05,-1.30743e-05
890,2.15761e-05,-4.09509e-06,5.13173e-05,3.82327e-05,1.63297e-05,-1.23947e-05
891,2.42433e-05,-1.06105e-05,5.19332e-05,3.45752e-05,1.69405e-05,-1.19723e-05
892,2.75713e-05,-1.82253e-05,5.15976e-05,2.9568e-05,1.09204e-05,-1.21832e-05
893,2.67874e-05,-1.98075e-05,5.58711e-05,2.78537e-05,5.33178e-07,-1.04965e-05
894,2.30436e-05,-1.23227e-05,6.32616e-05,3.13393e-05,-5.11809e-06,-4.46535e-06
895,2.0996e-05,-2.62601e-06,6.71264e-05,3.38049e-05,-2.32953e-06,1.78545e-06
896,2.3736e-05,2.04219e-06,6.54763e-05,3.18502e-05,1.86335e-06,1.28168e-06
897,2.84158e-05,-9.59478e-08,5.84891e-05,3.03884e-05,2.54114e-07,-2.09995e-06
898,2.94799e-05,-1.02505e-05,5.12292e-05,2.69184e-05,-5.01609e-06,-5.20247e-06
899,2.63442e-05,-1.62967e-05,4.999e-05,2.5333e-05,-9.95068e-06,-1.01913e-05
900,2.31613e-05,-6.42315e-06,5.2084e-05,3.17987e-05,-8.98293e-06,-1.4532e-05
901,2.0785e-05,2.43967e-06,5.19483e-05,3.94681e-05,3.70107e-06,-1.44196e-05
902,1.97003e-05,2.56977e-06,5.18206e-05,4.57148e-05,2.10016e-05,-9.4994e-06
903,1.86151e-05,3.72113e-06,5.09902e-05,4.77979e-05,3.08558e-05,-7.16511e-06
904,1.73021e-05,4.59994e-06,4.71127e-05,4.56631e-05,3.14236e-05,-8.02472e-06
905,1.68414e-05,2.87447e-06,4.63495e-05,4.28892e-05,2.36539e-05,-4.96081e-06
906,1.65127e-05,-5.29201e-06,5.13473e-05,4.12893e-05,1.6784e-05,1.79641e-07
907,1.30172e-05,-1.76485e-05,5.42008e-05,3.72215e-05,1.89451e-05,-1.73e-07
908,9.00407e-06,-1.92283e-05,5.16953e-05,3.38434e-05,1.74506e-05,-8.61281e-06
909,7.80114e-06,-1.04156e-05,5.0513e-05,3.56849e-05,4.73059e-06,-1.83345e-05
910,7.92736e-06,-2.79064e-06,4.9985e-05,3.93048e-05,-1.37248e-05,-2.15722e-05
911,9.78801e-06,-1.88107e-06,4.49838e-05,3.98732e-05,-2.89937e-05,-1.93869e-05
912,8.74109e-06,-1.11312e-05,3.92104e-05,3.5693e-05,-2.75145e-05,-1.64151e-05
913,7.30185e-06,-2.34519e-05,3.9098e-05,3.29555e-05,-1.20101e-05,-1.42521e-05
914,9.69473e-06,-2.53185e-05,4.50703e-05,3.63127e-05,6.6599e-06,-1.28973e-05
915,1.30163e-05,-1.39919e-05,5.13457e-05,4.3734e-05,1.88314e-05,-1.29032e-05
916,1.26671e-05,-2.28714e-06,5.38403e-05,4.74055e-05,1.65696e-05,-1.17328e-05
917,1.011e-05,4.08192e-07,5.22953e-05,4.55513e-05,8.42297e-07,-9.6164e-06
918,1.0508e-05,-6.3234e-06,5.00104e-05,4.14053e-05,-1.23319e-05,-1.03517e-05
919,1.24359e-05,-1.82698e-05,4.96274e-05,3.54858e-05,-1.31615e-05,-1.37572e-05
920,1.13947e-05,-2.27574e-05,5.33284e-05,3.03205e-05,-8.34997e-06,-1.54253e-05
921,7.33377e-06,-1.247e-05,5.88576e-05,3.12317e-05,-3.58271e-06,-1.15777e-05
922,3.75473e-06,9.44157e-07,6.09474e-05,3.41308e-05,3.68728e-06,-5.74615e-06
923,3.15697e-06,5.06467e-06,5.71675e-05,3.40941e-05,1.62954e-05,-5.04717e-06
924,5.1465e-06,-1.12917e-06,4.86362e-05,2.87749e-05,2.74093e-05,-1.3498e-05
925,6.71499e-06,-1.40301e-05,4.29439e-05,2.09932e-05,2.78225e-05,-1.98835e-05
926,5.42401e-06,-1.99867e-05,4.67042e-05,2.16967e-05,1.72382e-05,-1.87426e-05
927,2.28141e-06,-9.04757e-06,5.46599e-05,2.99632e-05,9.23251e-06,-1.94658e-05
928,5.01074e-07,2.37726e-06,5.7152e-05,3.65452e-05,1.35633e-05,-2.15035e-05
929,-3.48814e-07,4.618e-06,5.58032e-05,4.35207e-05,2.31651e-05,-1.9122e-05
930,-2.7384e-06,4.10565e-06,5.46876e-05,4.64791e-05,2.70918e-05,-1.18232e-05
931,-5.75681e-06,1.74615e-06,5.08695e-05,4.0264e-05,2.76182e-05,-7.20788e-06
932,-7.99407e-06,-1.99923e-06,4.83467e-05,3.60312e-05,2.86198e-05,-5.17169e-06
933,-6.57989e-06,-8.5592e-06,5.33073e-05,3.29397e-05,3.31703e-05,-5.06352e-06
934,-1.70843e-06,-1.50524e-05,5.72138e-05,2.90966e-05,3.54408e-05,-7.93355e-06
935,-5.24083e-07,-1.55877e-05,5.6562e-05,2.9245e-05,2.8862e-05,-8.52098e-06
936,-1.02642e-06,-1.0415e-05,5.64016e-05,3.34879e-05,2.3179e-05,-5.23275e-06
937,-9.15069e-07,-8.59354e-06,5.774e-05,3.58175e-05,2.25047e-05,-2.00893e-06
938,-3.793e-06,-9.76638e-06,5.59349e-05,3.50276e-05,2.22372e-05,-2.29523e-06
939,-5.43931e-06,-1.46721e-05,4.8652e-05,3.71873e-05,1.97831e-05,-3.98478e-06
940,-2.36827e-06,-2.2423e-05,4.31003e-05,4.51326e-05,1.90038e-05,-5.44997e-06
941,2.82909e-06,-2.22688e-05,4.64007e-05,5.5116e-05,2.65041e-05,-7.37018e-06
942,6.25851e-06,-9.85331e-06,5.22432e-05,6.12808e-05,3.57277e-05,-8.75943e-06
943,5.60878e-06,3.68002e-06,5.39843e-05,6.07651e-05,3.71128e-05,-7.87242e-06
944,4.04616e-06,8.65828e-06,5.14263e-05,5.30404e-05,3.18412e-05,-7.84796e-06
945,3.8548e-06,3.25582e-06,4.69269e-05,4.18105e-05,2.59786e-05,-9.30581e-06
946,4.29792e-06,-1.08906e-05,4.25227e-05,3.38664e-05,1.79491e-05,-1.10584e-05
947,4.87368e-06,-1.83108e-05,4.02118e-05,3.64672e-05,5.22981e-06,-1.253e-05
948,6.75944e-06,-8.71332e-06,3.98572e-05,4.62589e-05,-6.75114e-06,-1.35266e-05
949,9.831e-06,5.1485e-06,3.95054e-05,5.30665e-05,-1.3546e-05,-1.28667e-05
950,1.2449e-05,1.03873e-05,3.86498e-05,5.49409e-05,-1.99981e-05,-1.25564e-05
951,1.34582e-05,6.81439e-06,3.51008e-05,5.68723e-05,-2.97088e-05,-1.2801e-05
952,1.26811e-05,-7.32485e-06,3.10949e-05,5.63622e-05,-3.62864e-05,-1.18932e-05
953,1.12415e-05,-1.6623e-05,3.32934e-05,5.49565e-05,-3.3378e-05,-1.17722e-05
954,1.10841e-05,-5.85477e-06,3.87002e-05,5.83747e-05,-2.04665e-05,-1.02842e-05
955,1.33598e-05,5.89049e-06,4.08224e-05,5.63624e-05,-3.41214e-06,-1.05171e-05
956,1.49166e-05,5.67254e-06,4.30207e-05,5.13221e-05,7.54386e-06,-1.30835e-05
957,1.64227e-05,4.19148e-06,4.43146e-05,5.16328e-05,7.78088e-06,-1.11423e-05
958,1.93055e-05,4.69177e-06,4.40335e-05,5.09529e-05,4.88925e-06,-5.25509e-06
959,2.09383e-05,5.65477e-06,4.77841e-05,4.73674e-05,4.06435e-06,-1.32167e-06
960,2.11493e-05,-2.09654e-06,5.51791e-05,4.28794e-05,7.76696e-06,-3.08399e-06
961,2.2374e-05,-1.53311e-05,5.94045e-05,4.18088e-05,1.92097e-05,-1.1092e-05
962,2.27263e-05,-1.74695e-05,5.9231e-05,4.86104e-05,2.98899e-05,-1.83677e-05
963,2.2359e-05,-6.86458e-06,5.81366e-05,5.54385e-05,3.18699e-05,-1.74256e-05
964,2.28178e-05,2.3587e-06,6.07786e-05,5.1277e-05,2.5987e-05,-1.3238e-05
965,2.15071e-05,2.28709e-06,6.42967e-05,4.24691e-05,1.60154e-05,-1.36098e-05
966,2.06012e-05,-4.77766e-06,6.36052e-05,3.56806e-05,8.75943e-06,-1.63462e-05
967,2.2243e-05,-1.30779e-05,6.16157e-05,3.3956e-05,5.51355e-07,-1.47895e-05
968,2.47367e-05,-1.10194e-05,6.03127e-05,3.91164e-05,-8.65806e-06,-1.10731e-05
969,2.31796e-05,1.18246e-06,5.80102e-05,4.59393e-05,-8.64103e-06,-1.04104e-05
970,1.68331e-05,9.73189e-06,5.62206e-05,4.81106e-05,2.02808e-06,-1.08801e-05
971,1.10135e-05,8.37618e-06,5.48327e-05,4.50942e-05,1.17367e-05,-9.50887e-06
972,1.07964e-05,1.37095e-06,5.09315e-05,4.03921e-05,1.45301e-05,-9.44585e-06
973,1.57226e-05,-7.65528e-06,4.75505e-05,3.32887e-05,1.22629e-05,-1.06304e-05
974,1.85082e-05,-1.11036e-05,5.1797e-05,2.61483e-05,9.02145e-06,-9.41504e-06
975,1.54195e-05,-3.35473e-06,5.96489e-05,2.51606e-05,9.42579e-06,-5.91267e-06
976,9.5922e-06,8.74854e-06,6.18717e-05,2.68657e-05,1.37435e-05,-2.36208e-06
977,6.50743e-06,1.43095e-05,5.70045e-05,2.58499e-05,1.53704e-05,-1.02068e-06
978,8.44657e-06,1.00653e-05,4.98776e-05,2.21589e-05,1.13518e-05,-3.1359e-06
979,1.33141e-05,-3.29268e-06,4.57247e-05,1.52674e-05,6.03333e-06,-6.47264e-06
980,1.45975e-05,-1.09851e-05,4.69654e-05,1.43689e-05,2.71293e-06,-6.80616e-06
981,1.09809e-05,-3.59331e-06,4.99971e-05,2.44414e-05,5.09199e-06,-8.85946e-06
982,7.64472e-06,7.329e-07,5.00543e-05,3.24029e-05,1.26941e-05,-1.04747e-05
983,8.25598e-06,-1.94169e-06,4.71247e-05,3.45279e-05,1.94708e-05,-7.08352e-06
984,1.03985e-05,-4.93324e-06,4.13267e-05,3.5865e-05,2.07618e-05,-4.74384e-06
985,1.23556e-05,-9.47139e-06,3.72968e-05,3.12436e-05,1.92831e-05,-4.8619e-06
986,1.40218e-05,-1.25546e-05,3.89604e-05,2.64573e-05,2.38327e-05,-4.6114e-06
987,1.18819e-05,-1.67825e-05,4.32146e-05,2.57713e-05,3.87375e-05,-3.23368e-06
988,1.10991e-05,-2.1933e-05,4.40277e-05,2.73699e-05,4.83439e-05,-2.90755e-06
989,1.58647e-05,-1.93661e-05,4.2519e-05,3.04241e-05,3.79175e-05,-5.26799e-06
990,1.97327e-05,-9.82424e-06,4.41259e-05,3.10256e-05,2.31764e-05,-8.33677e-06
991,1.7155e-05,-2.87218e-06,4.9073e-05,2.95846e-05,1.80255e-05,-1.03766e-05
992,1.12919e-05,-2.21986e-06,4.85777e-05,2.71554e-05,2.1033e-05,-1.15738e-05
993,1.07093e-05,-9.26762e-06,4.49744e-05,2.26466e-05,3.01596e-05,-1.1799e-05
994,1.34103e-05,-1.82845e-05,4.58891e-05,1.81315e-05,3.21223e-05,-9.66906e-06
995,1.35313e-05,-2.02046e-05,5.14717e-05,2.2108e-05,2.40838e-05,-6.03112e-06
996,1.11037e-05,-1.30787e-05,5.64354e-05,3.31399e-05,1.87633e-05,-2.14149e-06
997,7.35414e-06,-5.71229e-06,5.55702e-05,4.03398e-05,2.47163e-05,1.59292e-07
998,5.2975e-06,-5.94441e-06,5.11452e-05,3.96405e-05,2.77868e-05,-1.02121e-06
999,6.02302e-06,-1.33773e-05,4.6851e-05,3.58222e-05,1.68769e-05,-3.0927e-06
1000,7.54863e-06,-2.36831e-05,4.49043e-05,3.15338e-05,1.40962e-06,-2.52947e-06
1001,5.79159e-06,-2.61258e-05,4.56421e-05,3.19415e-05,-3.62016e-06,4.38847e-08
1002,2.79639e-06,-1.67519e-05,4.82922e-05,3.82825e-05,7.80524e-06,2.07877e-06
1003,3.05357e-06,-5.40382e-06,5.06658e-05,4.20796e-05,3.20624e-05,1.94967e-06
1004,7.44497e-06,1.01865e-06,5.17243e-05,3.80792e-05,6.11715e-05,1.963e-06
1005,1.41954e-05,6.80192e-07,5.25998e-05,3.24144e-05,8.50665e-05,4.20018e-06
1006,2.00249e-05,-1.19147e-05,5.51395e-05,2.87864e-05,9.29528e-05,9.56808e-07
1007,2.19347e-05,-2.1108e-05,5.96296e-05,2.71098e-05,8.2452e-05,-6.98072e-06
1008,2.036e-05,-1.13501e-05,6.44122e-05,2.83206e-05,6.94111e-05,-7.98528e-06
1009,1.72169e-05,-7.73967e-07,6.33977e-05,2.92121e-05,6.19248e-05,-5.45288e-06
1010,1.39117e-05,3.30605e-06,5.67271e-05,2.93963e-05,5.57728e-05,-8.49272e-06
1011,1.1301e-05,5.63426e-06,4.83482e-05,3.06289e-05,4.97899e-05,-1.07055e-05
1012,8.70818e-06,2.57923e-06,4.02172e-05,3.58382e-05,4.65112e-05,-6.41882e-06
1013,6.92733e-06,-3.08114e-06,4.02615e-05,3.84848e-05,4.03237e-05,-1.83118e-06
1014,8.32367e-06,-1.09635e-05,4.44102e-05,3.01518e-05,2.70638e-05,-1.59261e-06
1015,1.20087e-05,-1.76065e-05,4.41867e-05,1.91302e-05,1.21825e-05,-3.78203e-06
1016,1.33157e-05,-1.46553e-05,4.06518e-05,1.98652e-05,-2.25815e-06,-5.78666e-06
1017,1.29458e-05,-2.86677e-06,3.94337e-05,2.8233e-05,-8.61009e-06,-7.12928e-06
1018,1.16564e-05,4.76944e-06,4.02532e-05,3.254e-05,1.75095e-06,-8.12077e-06
1019,1.10238e-05,2.13293e-06,3.74063e-05,2.83049e-05,1.53199e-05,-7.09281e-06
1020,1.15501e-05,-9.30834e-06,3.41563e-05,1.72543e-05,2.06422e-05,-4.46624e-06
1021,1.28376e-05,-2.06781e-05,3.7078e-05,7.46158e-06,1.24167e-05,-4.96749e-06
1022,1.36148e-05,-2.07825e-05,4.61951e-05,7.8672e-06,-2.3943e-06,-9.36308e-06
1023,1.17933e-05,-8.86965e-06,5.28043e-05,1.67441e-05,-6.21905e-06,-1.34762e-05
1024,1.05598e-05,2.93204e-06,5.70614e-05,2.31172e-05,2.44598e-06,-1.37949e-05
1025,1.22562e-05,7.20754e-06,5.37856e-05,2.52455e-05,6.55962e-06,-1.16881e-05
1026,1.5389e-05,3.73443e-06,4.23349e-05,2.99625e-05,-6.00915e-06,-1.06728e-05
1027,1.74513e-05,-9.01775e-06,3.4198e-05,3.55848e-05,-2.58224e-05,-1.30529e-05
1028,1.787e-05,-1.80878e-05,3.85797e-05,3.71036e-05,-3.14966e-05,-1.91719e-05
1029,1.58179e-05,-1.33654e-05,5.04842e-05,3.77182e-05,-1.13597e-05,-2.43343e-05
1030,1.29598e-05,-4.8878e-06,5.5696e-05,3.95689e-05,2.49193e-05,-2.29482e-05
1031,1.14723e-05,-1.84812e-06,5.01377e-05,4.05073e-05,5.62439e-05,-1.90182e-05
1032,1.13029e-05,-4.89278e-06,4.07363e-05,3.58647e-05,7.03038e-05,-1.74148e-05
1033,1.12433e-05,-1.53905e-05,3.64534e-05,2.84778e-05,6.67603e-05,-1.72745e-05
1034,1.00592e-05,-2.17673e-05,3.87048e-05,2.87336e-05,4.77745e-05,-1.6765e-05
1035,9.83626e-06,-9.29723e-06,4.23471e-05,3.84371e-05,2.83565e-05,-1.3475e-05
1036,1.38319e-05,5.50479e-06,4.31075e-05,4.54457e-05,2.01355e-05,-1.35795e-05
1037,1.8944e-05,7.10039e-06,4.31314e-05,4.70183e-05,1.22235e-05,-1.45217e-05
1038,1.99041e-05,4.8108e-06,4.15511e-05,4.825e-05,-8.47329e-06,-1.46598e-05
1039,1.62275e-05,3.00564e-06,4.12181e-05,4.54156e-05,-3.73137e-05,-1.73451e-05
1040,1.23738e-05,2.67235e-07,4.55139e-05,3.69925e-05,-5.26562e-05,-1.54153e-05
1041,8.7967e-06,-9.89125e-06,5.08584e-05,2.88286e-05,-4.20762e-05,-9.38208e-06
1042,5.21745e-06,-2.26754e-05,5.34284e-05,2.62991e-05,-1.95137e-05,-5.85622e-06
1043,4.943e-06,-2.11188e-05,5.28056e-05,3.00559e-05,-8.60489e-06,-7.87808e-06
1044,5.73291e-06,-6.14001e-06,5.22136e-05,3.75499e-05,-1.01806e-05,-9.31929e-06
1045,6.29267e-06,2.65332e-06,5.60039e-05,4.47929e-05,-9.29355e-06,-1.01626e-05
1046,9.47344e-06,7.3006e-07,5.75972e-05,4.78281e-05,-7.68571e-06,-1.35294e-05
1047,1.57403e-05,-6.22614e-06,5.34981e-05,4.5608e-05,-9.43068e-06,-1.71516e-05
1048,1.87244e-05,-1.29181e-05,4.8936e-05,4.24297e-05,-1.62919e-05,-1.86054e-05
1049,1.65077e-05,-1.26663e-05,5.16679e-05,4.32031e-05,-2.55917e-05,-1.81249e-05
1050,1.18048e-05,-4.82167e-06,5.88817e-05,4.80652e-05,-2.90572e-05,-1.46856e-05
1051,9.91605e-06,2.101e-06,6.43592e-05,5.41859e-05,-2.4049e-05,-8.59664e-06
1052,1.16574e-05,2.28416e-06,6.35496e-05,5.89504e-05,-1.6434e-05,-3.60011e-06
1053,1.3447e-05,-3.46737e-06,5.66294e-05,5.82112e-05,-1.07148e-05,-2.4831e-06
1054,1.33112e-05,-1.22252e-05,4.93164e-05,5.18008e-05,-9.9035e-06,-5.1067e-06
1055,1.16511e-05,-1.34264e-05,4.72801e-05,4.59297e-05,-1.05095e-05,-8.56118e-06
1056,1.16556e-05,-5.21728e-06,5.22251e-05,4.57296e-05,-6.5097e-06,-1.16549e-05
1057,1.35401e-05,-4.70371e-07,5.75703e-05,4.84254e-05,2.49541e-06,-1.37401e-05
1058,1.71242e-05,-5.38114e-06,5.87086e-05,4.75236e-05,1.11644e-05,-1.54093e-05
1059,1.93256e-05,-1.46083e-05,5.44396e-05,4.09602e-05,1.4066e-05,-1.79219e-05
1060,1.83969e-05,-2.54841e-05,5.15878e-05,3.47642e-05,7.975e-06,-1.71053e-05
1061,1.63045e-05,-2.60319e-05,5.44751e-05,3.68307e-05,-1.92345e-06,-1.21224e-05
1062,1.49675e-05,-9.56494e-06,5.78851e-05,4.25031e-05,-1.73861e-06,-8.42036e-06
1063,1.3018e-05,3.99482e-06,5.62897e-05,4.02582e-05,8.93971e-06,-9.66385e-06
1064,1.2518e-05,4.87936e-06,5.30405e-05,3.51431e-05,1.66214e-05,-1.59237e-05
1065,1.22563e-05,7.42521e-07,5.32906e-05,3.69809e-05,1.32724e-05,-1.81784e-05
1066,9.51822e-06,-3.74028e-06,5.86345e-05,4.21948e-05,6.11117e-06,-1.6188e-05
1067,7.57211e-06,-2.93708e-06,6.5731e-05,4.38502e-05,3.07923e-06,-1.23948e-05
1068,9.01766e-06,-3.53695e-06,6.83652e-05,4.15167e-05,9.01139e-06,-1.04484e-05
1069,1.36249e-05,-1.04193e-05,6.47107e-05,3.91734e-05,1.55133e-05,-9.09091e-06
1070,1.38149e-05,-1.05309e-05,5.82421e-05,4.05271e-05,1.48007e-05,-8.37185e-06
1071,9.63485e-06,5.95256e-07,5.3181e-05,4.3455e-05,1.68702e-05,-8.98359e-06
1072,6.87271e-06,9.87515e-06,5.2093e-05,4.25039e-05,2.1891e-05,-9.22256e-06
1073,6.83092e-06,9.41162e-06,4.97271e-05,3.98826e-05,2.15309e-05,-9.80592e-06
1074,8.28905e-06,-6.80984e-08,4.56883e-05,3.83457e-05,1.90271e-05,-8.96414e-06
1075,7.4963e-06,-1.2313e-05,4.30851e-05,3.60756e-05,1.57143e-05,-7.18806e-06
1076,4.39894e-06,-1.84151e-05,4.8153e-05,3.40203e-05,8.92738e-06,-4.79263e-06
1077,1.24094e-06,-1.41978e-05,5.8909e-05,3.65391e-05,2.48306e-06,-5.39244e-06
1078,-2.227e-08,-6.10692e-06,6.60068e-05,4.26633e-05,2.59764e-06,-7.43531e-06
1079,5.89724e-07,-2.66094e-06,6.43126e-05,4.64173e-05,5.82829e-06,-6.85925e-06
1080,4.61474e-06,-7.49368e-06,5.46798e-05,4.50572e-05,9.29369e-06,-5.02054e-06
1081,1.01543e-05,-1.8407e-05,4.57665e-05,4.21429e-05,1.0777e-05,-5.65493e-06
1082,1.29039e-05,-2.35068e-05,4.50589e-05,4.09379e-05,1.22321e-05,-6.58023e-06
1083,1.17443e-05,-1.67201e-05,5.09717e-05,3.92171e-05,2.03431e-05,-8.47863e-06
1084,8.90496e-06,-9.61525e-06,5.42819e-05,3.69184e-05,3.13896e-05,-1.24127e-05
1085,7.67273e-06,-9.40145e-06,5.19569e-05,3.66304e-05,3.45526e-05,-1.63077e-05
1086,8.37617e-06,-1.1641e-05,4.6006e-05,3.40562e-05,2.84147e-05,-1.70548e-05
1087,1.03789e-05,-2.04146e-05,4.07433e-05,2.64561e-05,1.63204e-05,-1.55268e-05
1088,1.216e-05,-2.62975e-05,4.16527e-05,2.24269e-05,-1.6881e-06,-1.50559e-05
1089,1.4433e-05,-1.64281e-05,5.15047e-05,2.65797e-05,-1.90519e-05,-1.51451e-05
1090,1.66094e-05,-9.89834e-06,5.94301e-05,3.01562e-05,-3.23898e-05,-1.50783e-05
1091,1.71718e-05,-1.37441e-05,5.7581e-05,2.9961e-05,-4.16771e-05,-1.20377e-05
1092,1.50139e-05,-1.54138e-05,5.12943e-05,3.10081e-05,-4.38666e-05,-8.89276e-06
1093,1.33807e-05,-1.21771e-05,4.79985e-05,3.46105e-05,-4.17171e-05,-1.18206e-05
1094,1.49738e-05,-6.63859e-06,4.88541e-05,3.86001e-05,-3.58172e-05,-1.61076e-05
1095,1.55293e-05,-8.6567e-06,4.97624e-05,3.72079e-05,-1.69662e-05,-1.74875e-05
1096,1.60954e-05,-1.68047e-05,4.76253e-05,3.14034e-05,1.20817e-05,-1.76186e-05
1097,1.56614e-05,-1.7079e-05,4.33483e-05,3.01587e-05,3.48228e-05,-1.67954e-05
1098,1.35341e-05,-6.5862e-06,4.03795e-05,3.53306e-05,5.13543e-05,-1.56713e-05
1099,1.14395e-05,2.32925e-07,4.07002e-05,3.87932e-05,7.33794e-05,-1.71521e-05
1100,9.00762e-06,-2.79457e-06,4.03198e-05,3.91222e-05,9.18701e-05,-2.00235e-05
1101,1.10825e-05,-1.29433e-05,3.67301e-05,3.75283e-05,8.67419e-05,-2.0265e-05
1102,1.44873e-05,-2.29795e-05,3.53169e-05,3.51782e-05,5.75292e-05,-1.80349e-05
1103,1.49171e-05,-2.39901e-05,3.96827e-05,3.6777e-05,2.92436e-05,-1.60547e-05
1104,1.37852e-05,-1.5745e-05,4.51416e-05,4.26803e-05,2.10907e-05,-1.3079e-05
1105,1.31415e-05,-9.0466e-06,4.84502e-05,4.8021e-05,2.7892e-05,-8.38839e-06
1106,1.26549e-05,-1.06726e-05,4.58731e-05,4.86522e-05,3.41326e-05,-6.04368e-06
1107,1.25454e-05,-1.85415e-05,4.10405e-05,4.40501e-05,3.82982e-05,-7.80605e-06
1108,1.41465e-05,-2.97606e-05,4.28869e-05,3.7147e-05,4.10555e-05,-1.14747e-05
1109,1.7046e-05,-3.27601e-05,5.02656e-05,3.63696e-05,3.94634e-05,-1.34535e-05
1110,2.08825e-05,-2.08289e-05,5.58631e-05,4.29822e-05,3.41971e-05,-1.22045e-05
1111,2.40547e-05,-8.0883e-06,5.70216e-05,4.75471e-05,3.12649e-05,-4.84523e-06
1112,2.48718e-05,-7.06375e-06,5.63597e-05,4.5467e-05,3.27629e-05,1.75865e-06
1113,2.24153e-05,-1.44377e-05,5.44054e-05,4.06018e-05,3.2505e-05,-6.35982e-07
1114,1.89369e-05,-2.78343e-05,5.34572e-05,3.50751e-05,2.82479e-05,-7.5525e-06
1115,1.61548e-05,-3.19676e-05,5.56208e-05,3.14648e-05,2.46666e-05,-9.69601e-06
1116,1.45561e-05,-1.72852e-05,5.63856e-05,3.5398e-05,2.59178e-05,-5.81473e-06
1117,1.36383e-05,-6.84498e-06,5.27681e-05,4.32876e-05,2.9967e-05,-6.14315e-06
1118,1.23209e-05,-9.19898e-06,5.17402e-05,4.76185e-05,3.29349e-05,-1.26489e-05
1119,9.87296e-06,-1.20487e-05,5.33328e-05,4.65945e-05,2.74861e-05,-1.65168e-05
1120,6.84213e-06,-1.35816e-05,5.23572e-05,4.06547e-05,8.45332e-06,-1.25123e-05
1121,4.35214e-06,-1.28881e-05,4.9854e-05,3.48685e-05,-1.33608e-05,-4.38674e-06
1122,2.46312e-06,-1.61785e-05,5.03464e-05,2.82072e-05,-1.97387e-05,2.61356e-07
1123,3.86197e-06,-2.5304e-05,5.51725e-05,2.28463e-05,-1.27292e-05,-3.91461e-06
1124,7.3386e-06,-2.62408e-05,5.85373e-05,2.64566e-05,-5.65446e-06,-1.08738e-05
1125,7.81443e-06,-1.46777e-05,5.85544e-05,3.62273e-05,-2.15204e-06,-1.23964e-05
1126,5.31652e-06,-1.78388e-06,5.93211e-05,4.25716e-05,1.5472e-06,-1.04179e-05
1127,4.52826e-06,3.38196e-06,6.09946e-05,3.97194e-05,4.10909e-06,-7.28678e-06
1128,1.03693e-05,-3.59472e-06,6.02443e-05,3.15487e-05,1.1193e-05,-5.38512e-06
1129,1.7508e-05,-1.55453e-05,5.45803e-05,2.61549e-05,2.53696e-05,-6.46372e-06
1130,1.91902e-05,-1.85718e-05,5.06653e-05,2.75124e-05,4.15553e-05,-9.52484e-06
1131,1.55358e-05,-9.38447e-06,5.06338e-05,3.30346e-05,5.51915e-05,-9.5197e-06
1132,1.18494e-05,-1.27442e-06,5.3259e-05,3.6852e-05,5.61863e-05,-5.61253e-06
1133,1.02613e-05,-3.12071e-06,5.41259e-05,3.48575e-05,4.05333e-05,-9.56354e-07
1134,9.31341e-06,-1.15138e-05,5.01007e-05,2.87071e-05,2.03899e-05,1.11564e-07
1135,8.8286e-06,-2.01202e-05,4.58259e-05,2.43127e-05,4.8923e-06,-5.62399e-06
1136,9.83313e-06,-1.9119e-05,4.93601e-05,2.80075e-05,-8.08071e-06,-1.41864e-05
1137,1.20903e-05,-5.69117e-06,5.91419e-05,3.7206e-05,-1.84289e-05,-1.70006e-05
1138,1.35586e-05,8.41363e-06,6.55111e-05,4.10511e-05,-2.27142e-05,-1.21321e-05
1139,1.3956e-05,1.10835e-05,6.62293e-05,3.7451e-05,-1.92669e-05,-7.17765e-06
1140,1.27999e-05,4.75157e-06,6.19131e-05,3.13735e-05,-9.05398e-06,-5.78183e-06
1141,1.10782e-05,-9.66299e-06,5.50341e-05,2.45718e-05,3.90887e-06,-5.52415e-06
1142,9.39592e-06,-1.76284e-05,5.20687e-05,2.71799e-05,1.47842e-05,-6.07338e-06
1143,8.77061e-06,-5.38832e-06,5.64081e-05,4.25269e-05,2.49638e-05,-7.91728e-06
1144,7.56942e-06,4.27802e-06,6.02154e-05,5.2178e-05,3.12914e-05,-1.12116e-05
1145,5.52485e-06,4.5537e-06,5.91526e-05,4.91225e-05,2.72613e-05,-1.52823e-05
1146,5.13275e-06,8.12889e-06,5.68791e-05,4.149e-05,1.91268e-05,-1.47512e-05
1147,4.551e-06,1.0939e-05,5.46556e-05,3.46578e-05,1.80276e-05,-9.75609e-06
1148,3.34613e-06,1.05507e-05,5.2432e-05,3.34997e-05,2.28955e-05,-5.65614e-06
1149,4.79618e-06,3.19746e-06,5.46341e-05,3.57887e-05,2.8619e-05,-7.26076e-06
1150,7.22779e-06,-6.11267e-06,5.77484e-05,3.77079e-05,3.54334e-05,-1.20267e-05
1151,8.24788e-06,-3.74151e-06,5.66359e-05,3.93828e-05,3.97902e-05,-1.58638e-05
1152,9.73887e-06,6.68778e-06,5.02961e-05,4.15013e-05,4.05865e-05,-1.76776e-05
1153,1.13782e-05,1.32435e-05,4.30538e-05,4.15967e-05,3.91505e-05,-1.74271e-05
1154,1.06599e-05,1.34301e-05,3.85069e-05,3.84687e-05,3.33464e-05,-1.69261e-05
1155,9.05445e-06,7.154e-06,3.6132e-05,3.28895e-05,2.47942e-05,-1.60721e-05
1156,9.56362e-06,-1.08915e-06,3.78996e-05,2.79332e-05,7.79441e-06,-1.71593e-05
1157,1.31212e-05,-2.3921e-06,4.43147e-05,2.72525e-05,-1.56058e-05,-2.028e-05
1158,1.59908e-05,3.33332e-06,4.87518e-05,2.95363e-05,-3.215e-05,-2.05144e-05
1159,1.77983e-05,6.74786e-06,4.66372e-05,3.21978e-05,-3.23689e-05,-1.6156e-05
1160,2.0923e-05,4.00653e-06,4.00855e-05,3.44804e-05,-2.01207e-05,-1.18594e-05
1161,2.41719e-05,-2.16511e-06,3.53354e-05,3.40508e-05,-8.60841e-06,-1.05285e-05
1162,2.53309e-05,-9.43643e-06,3.48724e-05,2.98658e-05,-7.13604e-06,-1.05481e-05
1163,2.28379e-05,-1.04051e-05,3.74858e-05,3.11298e-05,-1.6445e-05,-1.11448e-05
1164,1.9097e-05,-9.29214e-07,4.16359e-05,3.98577e-05,-2.60812e-05,-1.14315e-05
1165,1.67558e-05,7.74021e-06,4.33372e-05,4.50523e-05,-2.01263e-05,-9.40973e-06
1166,1.76407e-05,6.2831e-06,4.027e-05,4.39033e-05,5.38792e-06,-6.71844e-06
1167,2.0668e-05,-1.33403e-06,3.50984e-05,4.17235e-05,3.27529e-05,-3.92543e-06
1168,2.18871e-05,-1.27977e-05,3.40694e-05,3.59196e-05,4.23118e-05,-1.16677e-06
1169,1.77568e-05,-1.83488e-05,3.76408e-05,2.79764e-05,3.42744e-05,-4.28078e-06
1170,1.05788e-05,-9.80613e-06,4.0183e-05,2.88282e-05,2.61375e-05,-9.89767e-06
1171,7.40779e-06,-1.92676e-06,3.70719e-05,3.34639e-05,2.57277e-05,-9.10995e-06
1172,1.05646e-05,1.58653e-06,3.42354e-05,3.43045e-05,2.74233e-05,-6.23696e-06
1173,1.64711e-05,6.06876e-06,3.37257e-05,3.34238e-05,2.96901e-05,-7.95483e-06
1174,2.15899e-05,7.86412e-06,3.27474e-05,3.07686e-05,3.26546e-05,-9.92418e-06
1175,2.09138e-05,7.27559e-06,3.6464e-05,2.9597e-05,2.82684e-05,-1.22736e-05
1176,1.6422e-05,-3.77473e-07,4.57501e-05,2.90002e-05,1.8386e-05,-1.41992e-05
1177,1.29068e-05,-1.40067e-05,5.22631e-05,2.76614e-05,1.237e-05,-1.48027e-05
1178,1.14453e-05,-1.68675e-05,5.25518e-05,2.7738e-05,8.77336e-06,-1.53672e-05
1179,1.26345e-05,-6.50002e-06,5.38691e-05,3.21852e-05,8.43459e-06,-1.27727e-05
1180,1.56832e-05,-8.79103e-07,5.79529e-05,3.73198e-05,9.95409e-06,-7.42105e-06
1181,1.60167e-05,-4.66919e-06,5.70957e-05,3.92202e-05,5.56763e-06,-1.75863e-06
1182,1.17222e-05,-1.43075e-05,5.02989e-05,3.73125e-05,1.37875e-06,6.29036e-07
1183,6.88498e-06,-2.27389e-05,4.40525e-05,3.51764e-05,3.15386e-06,-3.65154e-06
1184,2.77707e-06,-2.08859e-05,4.77735e-05,3.79745e-05,9.79291e-06,-1.27998e-05
1185,2.21658e-06,-8.95447e-06,5.76094e-05,4.46834e-05,2.35925e-05,-1.59359e-05
1186,3.42562e-06,5.25589e-07,6.1472e-05,4.97724e-05,4.09231e-05,-1.27242e-05
1187,4.58618e-06,-2.92432e-07,5.68198e-05,4.83689e-05,5.12351e-05,-1.04465e-05
1188,6.13929e-06,-7.80747e-06,5.10335e-05,4.17605e-05,4.89134e-05,-1.05293e-05
1189,7.26136e-06,-1.64026e-05,4.91319e-05,3.47449e-05,3.58992e-05,-1.16052e-05
1190,6.3529e-06,-1.78858e-05,5.26092e-05,3.28498e-05,1.91117e-05,-1.34977e-05
1191,5.67687e-06,-9.06863e-06,5.85973e-05,3.51267e-05,3.71848e-06,-1.27721e-05
1192,7.75278e-06,2.2277e-07,6.17752e-05,3.68035e-05,-8.19463e-06,-7.23175e-06
1193,1.12957e-05,9.31701e-07,6.01763e-05,3.4826e-05,-1.24383e-05,-3.13594e-06
1194,1.39391e-05,-4.18922e-06,5.54624e-05,2.86858e-05,-5.27497e-06,-4.91198e-06
1195,1.54923e-05,-1.26541e-05,5.18268e-05,2.14999e-05,9.40311e-06,-6.86674e-06
1196,1.73599e-05,-1.37856e-05,5.36869e-05,2.18861e-05,2.12474e-05,-5.68758e-06
1197,1.97221e-05,-1.06426e-06,6.05993e-05,3.00622e-05,2.62161e-05,-3.2239e-06
1198,2.11126e-05,5.66122e-06,6.40922e-05,3.25778e-05,2.99928e-05,-4.64107e-06
1199,2.07905e-05,3.44932e-07,6.3025e-05,3.03517e-05,3.50132e-05,-7.57366e-06
1200,1.94279e-05,-4.17681e-06,6.02337e-05,3.3244e-05,3.73955e-05,-7.84991e-06
1201,1.71605e-05,-5.38601e-06,5.68792e-05,3.75766e-05,3.48873e-05,-8.63447e-06
1202,1.4871e-05,-3.32786e-06,5.59724e-05,3.92797e-05,2.87644e-05,-6.63642e-06
1203,1.41342e-05,-5.79879e-06,5.7204e-05,3.50744e-05,2.7948e-05,-3.98699e-06
1204,1.65702e-05,-1.25931e-05,5.78615e-05,3.20456e-05,3.56051e-05,-2.36878e-07
1205,1.62418e-05,-1.37512e-05,5.76873e-05,3.70526e-05,3.79694e-05,1.83546e-06
1206,1.22801e-05,-6.77372e-06,5.63998e-05,4.48715e-05,3.18747e-05,1.96852e-06
1207,7.81095e-06,7.67239e-07,5.43646e-05,4.70435e-05,2.70746e-05,1.14662e-06
1208,5.34017e-06,2.55119e-06,5.12089e-05,4.57164e-05,2.27619e-05,8.02395e-07
1209,5.33512e-06,-4.42295e-06,4.88798e-05,4.44532e-05,1.8009e-05,1.72871e-06
1210,6.09062e-06,-1.58817e-05,4.93401e-05,4.31465e-05,1.27974e-05,1.94213e-06
1211,6.52959e-06,-1.84479e-05,5.20025e-05,4.4256e-05,2.82822e-06,2.0485e-06
1212,7.04202e-06,-8.70932e-06,5.32322e-05,4.83365e-05,-1.02066e-05,1.56202e-06
1213,8.17771e-06,1.30659e-06,5.20785e-05,5.34473e-05,-1.41859e-05,-5.8709e-07
1214,9.42605e-06,2.18688e-06,4.95953e-05,5.59299e-05,-5.11517e-06,-3.96134e-06
1215,1.04472e-05,-4.89008e-06,4.84618e-05,5.35168e-05,7.62934e-06,-5.51208e-06
1216,9.51341e-06,-1.45285e-05,5.07994e-05,4.59696e-05,1.08424e-05,-5.97598e-06
1217,7.69834e-06,-1.63927e-05,5.50922e-05,4.24998e-05,4.68912e-06,-5.7827e-06
1218,8.64847e-06,-7.2796e-06,5.79568e-05,4.66617e-05,-8.51842e-07,-6.69735e-06
1219,1.16736e-05,1.83463e-06,5.76949e-05,5.07024e-05,-4.02627e-06,-9.96098e-06
1220,1.38423e-05,3.45083e-06,5.46377e-05,5.05088e-05,-8.79048e-06,-1.30348e-05
1221,1.38985e-05,1.10328e-06,5.02142e-05,4.83844e-05,-1.45287e-05,-1.03211e-05
1222,1.15506e-05,-8.67745e-06,4.8671e-05,4.53638e-05,-1.94686e-05,-5.40192e-06
1223,8.5317e-06,-1.83124e-05,5.30864e-05,4.50698e-05,-2.26602e-05,-6.60573e-06
1224,8.42206e-06,-1.26069e-05,5.82046e-05,4.35185e-05,-1.89329e-05,-9.04149e-06
1225,1.0971e-05,-3.47274e-06,5.73204e-05,3.81993e-05,-6.30189e-06,-7.48419e-06
1226,1.2699e-05,-2.89898e-06,5.32269e-05,3.64556e-05,1.07266e-05,-7.08368e-06
1227,1.30381e-05,-3.39558e-06,4.86024e-05,3.84391e-05,2.59817e-05,-1.08588e-05
1228,1.19513e-05,-2.89534e-06,4.57241e-05,4.00626e-05,4.50545e-05,-1.81896e-05
1229,1.15337e-05,-2.91262e-06,4.67384e-05,4.00381e-05,6.20912e-05,-2.16333e-05
1230,1.21568e-05,-7.83641e-06,4.80418e-05,3.75303e-05,6.24801e-05,-2.11114e-05
1231,1.29799e-05,-1.84276e-05,4.30455e-05,3.15784e-05,4.87175e-05,-1.98555e-05
1232,1.30841e-05,-2.0633e-05,3.57403e-05,2.59052e-05,3.16909e-05,-1.81316e-05
1233,1.30966e-05,-1.07305e-05,3.60128e-05,2.61836e-05,2.07031e-05,-1.50214e-05
1234,1.22324e-05,-1.5066e-06,4.27468e-05,2.90066e-05,1.96293e-05,-1.2314e-05
1235,9.22402e-06,4.04596e-07,4.57406e-05,2.85301e-05,2.33493e-05,-1.28834e-05
1236,8.86759e-06,-5.16519e-06,4.21177e-05,2.41279e-05,2.23958e-05,-1.25183e-05
1237,1.02555e-05,-1.3961e-05,3.92505e-05,2.15362e-05,1.64032e-05,-1.17107e-05
1238,1.0234e-05,-1.57043e-05,4.39399e-05,2.57124e-05,7.73892e-06,-1.34645e-05
1239,1.23894e-05,-8.76528e-06,5.01516e-05,3.18454e-05,3.77272e-07,-1.55417e-05
1240,1.5204e-05,-3.98453e-06,5.01504e-05,3.26696e-05,-4.25273e-06,-1.57981e-05
1241,1.51304e-05,-5.71509e-06,4.70154e-05,3.05453e-05,-1.36134e-05,-1.65846e-05
1242,1.11578e-05,-1.07242e-05,4.50814e-05,2.97983e-05,-2.56211e-05,-1.62749e-05
1243,5.32947e-06,-1.79375e-05,4.666e-05,2.80507e-05,-3.48973e-05,-1.42681e-05
1244,1.75303e-06,-2.05656e-05,5.36961e-05,2.77823e-05,-3.86191e-05,-1.53323e-05
1245,3.38782e-06,-1.35297e-05,6.08694e-05,3.13084e-05,-3.26522e-05,-1.7651e-05
1246,6.26225e-06,-7.66014e-06,6.15177e-05,3.19934e-05,-1.94409e-05,-1.41683e-05
1247,7.16935e-06,-9.42152e-06,5.70422e-05,3.03095e-05,-9.40978e-06,-1.04509e-05
1248,7.29641e-06,-1.30183e-05,5.2249e-05,3.16655e-05,-8.20602e-06,-9.29464e-06
1249,7.34379e-06,-1.90615e-05,4.94262e-05,3.3496e-05,-1.21627e-05,-8.60541e-06
1250,6.57649e-06,-2.2195e-05,4.80325e-05,3.47387e-05,-1.4874e-05,-1.04111e-05
1251,5.36229e-06,-1.04755e-05,4.75758e-05,3.51438e-05,-1.20811e-05,-1.05114e-05
1252,5.92609e-06,-4.04354e-07,4.79041e-05,3.4819e-05,-8.23028e-06,-7.57275e-06
1253,7.58715e-06,3.53907e-10,4.83739e-05,3.40706e-05,-7.16694e-06,-6.88985e-06
1254,9.44045e-06,1.03133e-08,4.8463e-05,3.45628e-05,-6.46436e-06,-6.06755e-06
1255,9.7965e-06,-3.59037e-06,4.81347e-05,4.10351e-05,-2.39646e-06,-5.03675e-06
1256,7.95255e-06,-7.61767e-06,4.95132e-05,4.71056e-05,3.74695e-06,-6.52859e-06
1257,5.94982e-06,-1.34749e-05,5.25078e-05,4.07502e-05,8.60388e-06,-7.86059e-06
1258,4.29772e-06,-2.06812e-05,5.37781e-05,3.07274e-05,1.3094e-05,-9.08806e-06
1259,3.03095e-06,-2.23942e-05,5.50455e-05,2.94863e-05,1.07826e-05,-9.85203e-06
1260,2.69241e-06,-1.54145e-05,5.81121e-05,3.60051e-05,5.44236e-06,-9.24923e-06
1261,3.51052e-06,-6.04293e-06,6.23842e-05,4.05722e-05,5.84284e-06,-8.77619e-06
1262,7.23087e-06,-3.56874e-07,6.43889e-05,3.79575e-05,1.00603e-05,-9.75172e-06
1263,1.20053e-05,-4.71271e-06,6.08074e-05,3.00844e-05,1.05964e-05,-8.8756e-06
1264,1.44611e-05,-1.51802e-05,5.36829e-05,2.46718e-05,-1.38541e-06,-5.03059e-06
1265,1.28283e-05,-1.82671e-05,5.39989e-05,2.80317e-05,-1.83907e-05,-2.72345e-06
1266,1.37886e-05,-8.9514e-06,6.13091e-05,3.34493e-05,-2.54123e-05,-4.94755e-06
1267,1.70963e-05,3.48946e-06,6.4018e-05,3.35245e-05,-1.93625e-05,-9.92574e-06
1268,1.85986e-05,7.45206e-06,5.88061e-05,3.08369e-05,-1.15479e-05,-1.3732e-05
1269,1.73708e-05,2.36351e-06,5.07894e-05,2.94367e-05,-6.17097e-06,-1.37016e-05
1270,1.40586e-05,-5.12881e-06,4.69769e-05,2.89508e-05,-1.43909e-06,-1.10948e-05
1271,1.05007e-05,-3.61201e-06,4.90205e-05,3.42013e-05,4.30547e-06,-8.85124e-06
1272,9.87766e-06,5.77987e-06,5.26612e-05,4.5076e-05,9.83988e-06,-8.08853e-06
1273,1.3127e-05,9.48268e-06,5.4546e-05,5.10006e-05,1.74657e-05,-1.06343e-05
1274,1.57175e-05,1.8285e-06,5.56386e-05,4.68733e-05,2.8143e-05,-1.58927e-05
1275,1.64868e-05,-9.09807e-06,5.43317e-05,3.99924e-05,3.54727e-05,-1.75431e-05
1276,1.72425e-05,-2.06795e-05,5.1964e-05,3.73508e-05,3.47887e-05,-1.27174e-05
1277,1.65074e-05,-2.18683e-05,5.2277e-05,4.3069e-05,3.16307e-05,-1.07451e-05
1278,1.35223e-05,-6.9371e-06,5.25695e-05,5.49369e-05,3.84185e-05,-1.35076e-05
1279,1.21499e-05,1.27936e-07,4.99833e-05,5.88369e-05,5.3736e-05,-1.45607e-05
1280,1.05275e-05,-1.46752e-06,4.89627e-05,5.31228e-05,5.92046e-05,-1.19333e-05
1281,1.00105e-05,-1.57599e-06,4.85587e-05,4.99411e-05,4.22202e-05,-7.8216e-06
1282,1.02472e-05,-3.10656e-06,4.49421e-05,5.18435e-05,2.06601e-05,-7.85083e-06
1283,8.78081e-06,-1.57202e-06,4.31697e-05,5.34486e-05,1.61776e-05,-1.19099e-05
1284,7.54464e-06,-4.90368e-06,4.90061e-05,4.80242e-05,2.61668e-05,-1.51743e-05
1285,7.1536e-06,-1.32843e-05,5.72192e-05,4.0593e-05,3.4294e-05,-1.48939e-05
1286,7.48301e-06,-1.57393e-05,5.70604e-05,3.84425e-05,3.14108e-05,-1.58896e-05
1287,9.6409e-06,-7.25717e-06,5.54525e-05,3.93615e-05,3.13298e-05,-1.65367e-05
1288,8.51115e-06,1.45387e-06,5.73546e-05,3.97268e-05,4.18773e-05,-1.40005e-05
1289,2.50774e-06,3.64396e-06,5.56888e-05,3.86376e-05,5.16419e-05,-8.92957e-06
1290,-6.95161e-09,-2.00194e-06,5.10756e-05,3.55894e-05,5.34627e-05,-7.91306e-07
1291,2.65765e-06,-1.21918e-05,4.78602e-05,3.41972e-05,4.32853e-05,9.57589e-06
1292,5.37015e-06,-1.52489e-05,4.87846e-05,3.82503e-05,2.82266e-05,1.95829e-05
1293,6.66371e-06,-8.73057e-06,4.97588e-05,4.37186e-05,2.35633e-05,2.6933e-05
1294,7.35103e-06,-2.42696e-06,5.14855e-05,4.59736e-05,3.10044e-05,3.16449e-05
1295,6.76126e-06,-4.06349e-06,5.51439e-05,4.4503e-05,4.02728e-05,3.41061e-05
1296,6.81363e-06,-1.1239e-05,5.55472e-05,3.97298e-05,4.66201e-05,3.56631e-05
1297,1.05666e-05,-2.03812e-05,5.24017e-05,3.2362e-05,4.5672e-05,3.67706e-05
1298,1.54935e-05,-2.08734e-05,5.17255e-05,3.08617e-05,3.46941e-05,3.96561e-05
1299,1.73148e-05,-9.40589e-06,5.54043e-05,3.82021e-05,2.20732e-05,4.16094e-05
1300,1.62331e-05,2.82519e-06,5.94671e-05,4.5611e-05,1.61176e-05,3.96658e-05
1301,1.61837e-05,4.65228e-06,5.75091e-05,4.52785e-05,1.61491e-05,3.45944e-05
1302,1.82699e-05,-3.25919e-06,4.84134e-05,3.81848e-05,1.76881e-05,2.73279e-05
1303,2.16851e-05,-1.59973e-05,4.12505e-05,2.88078e-05,1.75213e-05,1.83692e-05
1304,2.32333e-05,-2.01235e-05,4.35328e-05,2.51289e-05,1.49163e-05,1.15911e-05
1305,2.22191e-05,-6.78538e-06,5.3176e-05,3.23441e-05,1.45477e-05,8.90168e-06
1306,2.25641e-05,7.56448e-06,6.01805e-05,3.79962e-05,1.95398e-05,4.85301e-06
1307,2.34555e-05,1.07433e-05,5.95778e-05,3.35099e-05,2.36021e-05,2.22399e-06
1308,2.26384e-05,8.14651e-06,5.2633e-05,2.69882e-05,1.93204e-05,2.82465e-06
1309,2.13862e-05,2.91913e-06,4.53751e-05,2.66959e-05,1.25571e-05,2.92958e-06
1310,2.14546e-05,-4.25733e-07,4.66326e-05,3.19197e-05,8.63658e-06,3.66112e-06
1311,1.87875e-05,-5.74809e-06,5.29107e-05,3.44302e-05,6.11787e-06,2.50851e-06
1312,1.17707e-05,-1.3575e-05,5.34168e-05,3.20164e-05,-7.81875e-07,-1.30372e-06
1313,8.49082e-06,-1.27246e-05,5.21437e-05,3.17128e-05,-8.00901e-06,-5.35554e-06
1314,1.08911e-05,-2.265e-06,5.44046e-05,3.60611e-05,-5.02967e-06,-8.64499e-06
1315,1.15652e-05,4.94289e-06,5.77295e-05,3.87286e-05,4.30034e-07,-1.05329e-05
1316,1.07011e-05,5.29492e-06,5.55925e-05,3.65518e-05,3.23977e-06,-1.00322e-05
1317,1.18564e-05,4.97877e-07,4.6223e-05,3.1403e-05,6.27604e-06,-9.03157e-06
1318,1.39492e-05,-7.53164e-06,4.10868e-05,2.81618e-05,9.84274e-06,-1.06619e-05
1319,1.45142e-05,-1.10109e-05,4.96806e-05,3.13884e-05,1.52061e-05,-1.4701e-05
1320,1.51328e-05,-6.11433e-06,6.23916e-05,3.9748e-05,2.63691e-05,-1.83548e-05
1321,1.70859e-05,-6.27057e-07,6.56204e-05,4.49251e-05,3.90922e-05,-1.9747e-05
1322,1.94272e-05,-3.01743e-06,6.05033e-05,4.17282e-05,4.59465e-05,-2.03702e-05
1323,2.12841e-05,-1.15328e-05,5.32613e-05,3.2675e-05,4.77516e-05,-2.17859e-05
1324,2.08216e-05,-2.20405e-05,4.94153e-05,2.36372e-05,4.86005e-05,-2.46828e-05
1325,1.90963e-05,-2.59893e-05,5.2909e-05,2.11078e-05,5.19569e-05,-2.78871e-05
1326,1.80386e-05,-1.9713e-05,5.98695e-05,2.47648e-05,5.28765e-05,-3.05679e-05
1327,1.64815e-05,-1.23405e-05,6.35417e-05,2.85072e-05,4.35809e-05,-3.23292e-05
1328,1.47041e-05,-1.10611e-05,6.34322e-05,3.02935e-05,2.36471e-05,-3.41303e-05
1329,1.41415e-05,-1.16723e-05,6.05648e-05,3.13728e-05,2.33799e-06,-3.51002e-05
1330,1.45455e-05,-1.66746e-05,5.38912e-05,3.13077e-05,-1.11923e-05,-3.41823e-05
1331,1.34948e-05,-1.96638e-05,4.74108e-05,3.14602e-05,-1.32407e-05,-3.38675e-05
1332,9.54381e-06,-1.12755e-05,4.75523e-05,3.56431e-05,-1.53655e-06,-3.48961e-05
1333,6.08801e-06,-4.33741e-06,5.33593e-05,4.04445e-05,2.01122e-05,-3.69306e-05
1334,7.63658e-06,-5.09489e-06,5.89389e-05,3.9427e-05,3.75538e-05,-3.68063e-05
1335,1.27072e-05,-7.18282e-06,5.88756e-05,3.59725e-05,4.34902e-05,-3.33329e-05
1336,1.73543e-05,-7.91979e-06,5.50465e-05,3.41286e-05,4.76944e-05,-3.04586e-05
1337,1.95773e-05,-8.00538e-06,5.50676e-05,3.2437e-05,5.92933e-05,-3.03517e-05
1338,1.9253e-05,-1.51801e-05,5.76732e-05,2.74256e-05,7.67101e-05,-2.81414e-05
1339,1.68789e-05,-2.81182e-05,6.05655e-05,2.36103e-05,8.6884e-05,-2.41989e-05
1340,1.56253e-05,-3.16436e-05,6.14831e-05,2.93631e-05,6.98558e-05,-2.61335e-05
1341,1.66506e-05,-2.06533e-05,5.69109e-05,4.16704e-05,4.28039e-05,-3.28825e-05
1342,1.78089e-05,-6.26662e-06,5.19361e-05,4.78698e-05,3.48495e-05,-3.73208e-05
1343,1.83866e-05,4.28997e-07,4.66751e-05,4.3969e-05,4.17167e-05,-3.5393e-05
1344,1.61593e-05,-5.0385e-06,3.96991e-05,3.52656e-05,4.48274e-05,-3.20742e-05
1345,1.43773e-05,-1.58001e-05,3.58108e-05,3.02282e-05,3.44883e-05,-3.08863e-05
1346,1.52699e-05,-1.8185e-05,4.05915e-05,3.23399e-05,1.98766e-05,-3.18958e-05
1347,1.74976e-05,-7.56941e-06,4.9256e-05,3.78069e-05,9.98508e-06,-3.1054e-05
1348,1.70279e-05,5.05792e-06,5.45174e-05,4.26173e-05,3.98825e-06,-2.68391e-05
1349,1.45999e-05,9.8508e-06,5.23463e-05,4.69169e-05,1.50518e-06,-2.35062e-05
1350,1.4297e-05,4.33368e-06,4.45064e-05,4.90344e-05,4.3845e-06,-2.43396e-05
1351,1.52913e-05,-8.47193e-06,3.88778e-05,4.68349e-05,5.66543e-06,-2.89694e-05
1352,1.48094e-05,-1.45507e-05,3.99222e-05,4.62833e-05,3.97111e-06,-3.42129e-05
1353,1.30359e-05,-6.77344e-06,4.55194e-05,5.10246e-05,1.13645e-05,-3.7204e-05
1354,1.30896e-05,3.35301e-06,4.97065e-05,5.40723e-05,3.03969e-05,-3.70631e-05
1355,1.62848e-05,5.30259e-06,4.98278e-05,5.19058e-05,4.47238e-05,-3.73916e-05
1356,1.81235e-05,-3.24097e-06,4.57124e-05,4.90853e-05,4.2971e-05,-3.63973e-05
1357,1.55171e-05,-1.89174e-05,4.29898e-05,4.61155e-05,3.08049e-05,-3.24455e-05
1358,1.14342e-05,-2.41891e-05,4.72362e-05,4.67193e-05,1.69776e-05,-3.01754e-05
1359,8.71884e-06,-1.14427e-05,5.52993e-05,4.99306e-05,9.76403e-06,-2.86975e-05
1360,8.7321e-06,-2.2088e-06,5.84758e-05,4.96262e-05,1.44054e-05,-2.50589e-05
1361,1.03533e-05,-1.98222e-06,5.51067e-05,4.72839e-05,1.96577e-05,-1.97061e-05
1362,1.24154e-05,1.58837e-06,4.73875e-05,4.37312e-05,1.51715e-05,-1.67828e-05
1363,1.27088e-05,6.21516e-06,4.01852e-05,3.8327e-05,4.66321e-06,-1.82398e-05
1364,1.19429e-05,7.30562e-06,4.15469e-05,3.6741e-05,-5.78972e-06,-1.94724e-05
1365,1.17021e-05,7.84901e-07,4.60521e-05,3.75546e-05,-7.79096e-06,-1.92347e-05
1366,1.20387e-05,-8.76113e-06,4.36657e-05,3.60768e-05,-1.11201e-06,-1.82627e-05
1367,1.18408e-05,-1.05635e-05,3.84561e-05,3.73656e-05,1.59599e-06,-1.80195e-05
1368,1.08068e-05,-2.35132e-06,3.48543e-05,4.47714e-05,-1.97498e-06,-1.69964e-05
1369,8.79722e-06,5.78784e-06,3.55815e-05,4.98816e-05,-6.7835e-06,-1.46769e-05
1370,6.09947e-06,8.84142e-06,3.874e-05,4.86342e-05,-8.10504e-06,-1.14523e-05
1371,4.39813e-06,3.77589e-06,3.76547e-05,4.34572e-05,-3.62912e-06,-6.25121e-06
1372,2.34542e-06,-5.76174e-06,3.6767e-05,3.83544e-05,-1.24341e-06,-2.31303e-06
1373,3.4913e-08,-9.43647e-06,3.83095e-05,3.73215e-05,-8.75123e-07,-3.50103e-06
1374,6.84492e-07,-3.23349e-06,3.93566e-05,3.80923e-05,2.14413e-06,-6.78052e-06
1375,4.08197e-06,3.87476e-06,4.10997e-05,3.77825e-05,6.76176e-06,-7.18481e-06
1376,7.01294e-06,4.13844e-06,4.45739e-05,3.56804e-05,3.0046e-06,-4.93703e-06
1377,7.02079e-06,-3.70605e-06,4.42613e-05,3.03094e-05,-9.87691e-06,-3.32695e-06
1378,7.03928e-06,-1.49746e-05,4.03386e-05,2.34844e-05,-2.28904e-05,-4.62427e-06
1379,8.90969e-06,-1.38774e-05,4.25275e-05,2.42439e-05,-2.74046e-05,-5.80535e-06
1380,1.04492e-05,1.17035e-06,5.1038e-05,3.21184e-05,-2.09643e-05,-4.62447e-06
1381,8.30876e-06,1.17194e-05,5.71961e-05,3.57914e-05,-1.39569e-05,-4.033e-06
1382,4.11691e-06,8.79843e-06,5.66458e-05,3.20878e-05,-1.71181e-05,-5.42896e-06
1383,2.86742e-06,-2.81803e-06,5.11548e-05,2.86732e-05,-2.80748e-05,-6.5485e-06
1384,4.90307e-06,-1.99733e-05,4.55114e-05,2.55803e-05,-3.55024e-05,-4.57288e-06
1385,6.60028e-06,-2.53096e-05,4.44496e-05,2.18747e-05,-3.21078e-05,-3.96896e-06
1386,8.2849e-06,-1.43189e-05,4.42325e-05,2.54008e-05,-1.7157e-05,-5.54984e-06
1387,1.20097e-05,-6.60775e-06,4.048e-05,3.299e-05,2.66902e-07,-6.99825e-06
1388,1.46063e-05,-8.17511e-06,3.84664e-05,3.74121e-05,6.9993e-06,-7.25769e-06
1389,1.36439e-05,-1.03225e-05,4.03095e-05,3.97461e-05,-5.89284e-06,-9.03528e-06
1390,1.29866e-05,-9.49376e-06,4.23622e-05,4.16611e-05,-3.14247e-05,-1.61696e-05
1391,1.41929e-05,-7.48284e-06,4.77666e-05,4.40543e-05,-5.22777e-05,-2.09264e-05
1392,1.25736e-05,-1.27773e-05,5.38725e-05,4.13764e-05,-5.32271e-05,-1.94642e-05
1393,9.72202e-06,-2.31899e-05,5.42404e-05,3.36668e-05,-3.77708e-05,-1.58613e-05
1394,7.95404e-06,-2.38541e-05,5.25344e-05,2.85875e-05,-3.32385e-05,-1.65228e-05
1395,9.12797e-06,-1.36285e-05,5.28736e-05,2.89172e-05,-4.51499e-05,-1.61825e-05
1396,8.5207e-06,-5.89572e-06,5.50769e-05,3.24937e-05,-5.45584e-05,-1.27847e-05
1397,3.69916e-06,-6.10084e-06,5.16796e-05,3.42133e-05,-5.43431e-05,-9.71948e-06
1398,-1.1593e-06,-1.38794e-05,3.97921e-05,2.99682e-05,-4.83725e-05,-8.22066e-06
1399,-3.00636e-06,-2.36989e-05,3.09943e-05,2.41202e-05,-4.42179e-05,-1.01798e-05
1400,-8.93592e-07,-2.6084e-05,3.52777e-05,2.64275e-05,-3.62059e-05,-1.55975e-05
1401,2.32061e-06,-1.79358e-05,4.34573e-05,3.6521e-05,-1.61358e-05,-2.02679e-05
1402,4.42796e-06,-7.52934e-06,4.71324e-05,4.36092e-05,1.21038e-05,-2.02627e-05
1403,4.33102e-06,-3.60854e-06,4.84772e-05,4.14384e-05,3.31409e-05,-1.57081e-05
1404,4.06472e-06,-9.03695e-06,4.78887e-05,3.44243e-05,3.84447e-05,-8.87862e-06
1405,4.60385e-06,-2.12121e-05,4.59947e-05,3.06428e-05,3.05485e-05,-4.30999e-06
1406,6.01532e-06,-2.6187e-05,4.63174e-05,3.27925e-05,1.50896e-05,-3.18774e-06
1407,8.82319e-06,-1.4109e-05,5.05224e-05,3.49833e-05,2.43278e-06,-4.53986e-06
1408,1.19623e-05,2.1406e-06,5.37138e-05,3.33653e-05,1.29903e-06,-4.05142e-06
1409,1.25262e-05,5.91474e-06,5.19608e-05,3.16282e-05,7.94105e-06,-1.18555e-06
1410,8.98683e-06,-7.76875e-07,4.80165e-05,3.10764e-05,9.15091e-06,1.51216e-06
1411,5.62385e-06,-1.23369e-05,4.63697e-05,3.06144e-05,2.37318e-06,3.83166e-06
1412,6.09975e-06,-1.75571e-05,4.68474e-05,3.15913e-05,-5.69049e-06,3.14833e-06
1413,8.52032e-06,-1.04196e-05,4.8084e-05,3.67145e-05,-1.04893e-05,-5.86853e-07
1414,8.90223e-06,-5.73456e-06,4.98062e-05,4.023e-05,-1.67928e-05,-3.66921e-06
1415,8.05573e-06,-6.97359e-06,5.32296e-05,3.75669e-05,-2.48982e-05,-6.43304e-06
1416,1.04476e-05,-6.17597e-06,5.66037e-05,3.64128e-05,-2.64266e-05,-6.99764e-06
1417,1.34562e-05,-4.3506e-06,5.65747e-05,3.52543e-05,-2.12676e-05,-8.88652e-06
1418,1.2545e-05,-5.30313e-07,6.00382e-05,3.27702e-05,-1.74856e-05,-1.22826e-05
1419,8.15478e-06,-3.78874e-06,6.92201e-05,3.03258e-05,-1.42137e-05,-1.05009e-05
1420,4.7934e-06,-1.56676e-05,7.27752e-05,2.83554e-05,-1.80042e-06,-5.58913e-06
1421,6.5103e-06,-2.19172e-05,6.74203e-05,3.29988e-05,1.5359e-05,-3.80059e-06
1422,1.26689e-05,-1.53167e-05,6.20752e-05,4.18931e-05,2.90819e-05,-3.9821e-06
1423,1.74387e-05,-7.50691e-06,6.07575e-05,4.48681e-05,3.97017e-05,-2.82762e-06
1424,1.79428e-05,-7.99563e-06,6.01472e-05,4.4154e-05,4.53484e-05,-6.40531e-07
1425,1.81979e-05,-1.5822e-05,5.6092e-05,4.30755e-05,4.68526e-05,-2.96837e-06
1426,1.9651e-05,-2.33763e-05,4.99235e-05,3.87008e-05,3.85905e-05,-1.04976e-05
1427,1.93496e-05,-2.06295e-05,4.8833e-05,3.47969e-05,2.6674e-05,-1.50148e-05
1428,1.63394e-05,-9.27979e-06,5.10644e-05,3.75975e-05,2.43453e-05,-1.16626e-05
1429,1.50876e-05,-5.68923e-07,5.22725e-05,4.38396e-05,2.91379e-05,-5.94604e-06
1430,1.74744e-05,-8.0621e-07,4.9988e-05,4.59896e-05,3.15691e-05,-4.3714e-06
1431,2.13384e-05,-8.24207e-06,4.56756e-05,4.22033e-05,2.98421e-05,-5.5143e-06
1432,2.34577e-05,-1.97478e-05,4.29611e-05,3.62152e-05,2.34675e-05,-5.7276e-06
1433,2.3116e-05,-2.4261e-05,4.64784e-05,3.45602e-05,1.49033e-05,-5.23509e-06
1434,2.16359e-05,-1.7501e-05,5.35884e-05,3.86097e-05,1.00206e-05,-5.91984e-06
1435,1.87142e-05,-8.58772e-06,5.49869e-05,4.51287e-05,1.35562e-05,-5.61962e-06
1436,1.57942e-05,-3.39818e-06,5.03356e-05,5.11431e-05,2.97291e-05,-3.57389e-06
1437,1.49987e-05,-2.83253e-06,4.51811e-05,5.19391e-05,5.76095e-05,-2.24003e-06
1438,1.66545e-05,-1.11256e-05,4.27889e-05,4.40649e-05,8.71709e-05,-6.01969e-06
1439,1.96823e-05,-1.63488e-05,4.46133e-05,3.52058e-05,0.00010583,-1.05368e-05
1440,2.3398e-05,-5.60888e-06,5.09558e-05,3.24925e-05,0.000107657,-1.26762e-05
1441,2.5614e-05,4.72503e-06,5.675e-05,3.365e-05,9.5727e-05,-1.22442e-05
1442,2.4382e-05,4.38479e-06,5.86658e-05,3.56279e-05,8.03731e-05,-1.20458e-05
1443,2.01778e-05,1.99183e-06,5.52954e-05,3.65399e-05,6.32192e-05,-1.42835e-05
1444,1.70812e-05,1.1492e-06,4.88743e-05,3.60839e-05,4.58048e-05,-1.30283e-05
1445,1.4203e-05,2.22476e-06,4.53681e-05,3.83416e-05,2.43464e-05,-7.56413e-06
1446,1.18543e-05,1.12445e-06,4.66113e-05,3.8613e-05,2.92193e-07,-3.86383e-06
1447,1.38603e-05,-4.57961e-06,5.03168e-05,3.61133e-05,-2.66519e-05,-4.57744e-06
1448,1.50557e-05,-5.6332e-06,5.31132e-05,3.5927e-05,-5.01037e-05,-5.94393e-06
1449,1.36488e-05,1.74618e-06,5.48864e-05,3.73188e-05,-5.13161e-05,-5.04986e-06
1450,1.30289e-05,5.44836e-06,5.3948e-05,3.74083e-05,-3.04833e-05,-4.72861e-06
1451,1.57095e-05,3.1891e-06,4.89643e-05,3.83956e-05,-5.81586e-06,-6.89779e-06
1452,2.00573e-05,-1.96174e-06,4.33924e-05,4.1268e-05,7.52241e-06,-7.1359e-06
1453,2.23544e-05,-7.29494e-06,4.06725e-05,4.29902e-05,8.38247e-06,-5.05381e-06
1454,2.18459e-05,-6.07295e-06,4.26958e-05,4.40489e-05,7.53625e-06,-4.31141e-06
1455,1.94146e-05,3.92694e-06,4.48309e-05,4.63136e-05,1.45537e-05,-5.09569e-06
1456,1.73859e-05,1.38793e-05,4.76809e-05,4.94978e-05,2.45798e-05,-5.63765e-06
1457,1.73306e-05,1.50685e-05,4.89971e-05,4.94779e-05,3.56037e-05,-5.70212e-06
1458,1.7145e-05,5.97627e-06,4.84501e-05,4.43058e-05,4.32262e-05,-6.34917e-06
1459,1.45773e-05,-8.28512e-06,4.8291e-05,3.86166e-05,3.6899e-05,-8.86075e-06
1460,1.156e-05,-1.25433e-05,5.1256e-05,4.08812e-05,1.82344e-05,-1.15001e-05
1461,1.09832e-05,-1.28615e-06,5.48209e-05,4.99036e-05,4.03845e-06,-9.39278e-06
1462,1.10792e-05,9.34476e-06,5.58981e-05,5.64053e-05,3.57437e-06,-3.9547e-06
1463,9.33683e-06,6.65941e-06,5.57253e-05,5.14991e-05,8.86331e-06,9.23719e-08
1464,7.37526e-06,-5.13462e-06,5.4704e-05,4.0521e-05,1.00212e-05,1.91763e-06
1465,7.08767e-06,-2.28753e-05,5.51481e-05,3.35042e-05,-7.37235e-07,7.68208e-07
1466,7.89519e-06,-2.86018e-05,5.71282e-05,3.54644e-05,-2.23186e-05,-4.1595e-06
1467,9.99093e-06,-1.45378e-05,5.97392e-05,4.43107e-05,-3.6553e-05,-1.10484e-05
1468,1.25884e-05,-4.64517e-06,6.18116e-05,4.40467e-05,-3.26532e-05,-1.18804e-05
1469,1.26873e-05,-2.74385e-06,6.30209e-05,3.7059e-05,-2.112e-05,-8.75046e-06
1470,1.20909e-05,-1.12248e-06,6.02996e-05,3.54175e-05,-1.18858e-05,-7.77106e-06
1471,1.53776e-05,-2.21484e-06,5.40802e-05,3.54021e-05,-5.05217e-06,-5.86234e-06
1472,2.0926e-05,-2.97736e-06,5.02595e-05,3.193e-05,2.73323e-06,-1.76298e-06
1473,2.05446e-05,-8.59711e-06,5.17673e-05,2.42804e-05,1.39306e-05,2.92007e-06
1474,1.54733e-05,-2.02773e-05,5.60094e-05,1.75935e-05,3.82752e-05,3.08615e-06
1475,1.32905e-05,-2.31315e-05,5.9804e-05,1.79817e-05,7.19005e-05,-1.28912e-06
1476,1.36093e-05,-1.30348e-05,5.96674e-05,2.53266e-05,9.13198e-05,-7.12142e-06
1477,1.33218e-05,-4.34202e-06,5.87599e-05,3.12509e-05,8.44465e-05,-1.15746e-05
1478,1.19887e-05,-3.01006e-06,5.45154e-05,3.18519e-05,6.52721e-05,-1.32435e-05
1479,1.07866e-05,-8.30721e-06,4.69584e-05,2.41238e-05,4.79262e-05,-1.30106e-05
1480,1.19814e-05,-1.63145e-05,4.20844e-05,1.37742e-05,3.04224e-05,-1.30257e-05
1481,1.31268e-05,-1.69347e-05,4.48459e-05,1.23294e-05,1.49296e-05,-1.38369e-05
1482,1.19343e-05,-6.26714e-06,4.96682e-05,1.97876e-05,1.33492e-05,-1.47064e-05
1483,9.19752e-06,4.70258e-06,5.2842e-05,2.49766e-05,2.59496e-05,-1.5684e-05
1484,6.51459e-06,6.13996e-06,5.3209e-05,2.33178e-05,3.95802e-05,-1.6452e-05
1485,8.80725e-06,-7.9987e-07,5.01556e-05,1.85601e-05,4.5827e-05,-1.47058e-05
1486,1.33992e-05,-1.067e-05,4.88055e-05,1.28361e-05,3.99647e-05,-1.08498e-05
1487,1.50273e-05,-1.45903e-05,5.41778e-05,1.36659e-05,2.62523e-05,-1.01492e-05
1488,1.34666e-05,-9.32e-06,6.20462e-05,2.41098e-05,1.40751e-05,-1.14153e-05
1489,1.0455e-05,-2.55283e-06,6.39569e-05,3.35432e-05,9.60471e-06,-1.05466e-05
1490,7.78589e-06,-2.81006e-06,6.09063e-05,3.40211e-05,9.19973e-06,-9.16903e-06
1491,7.24342e-06,-8.18204e-06,5.67638e-05,3.03377e-05,7.9332e-06,-1.18725e-05
1492,8.69711e-06,-2.03887e-05,5.66102e-05,2.50245e-05,6.71347e-06,-1.43616e-05
1493,9.997e-06,-2.86061e-05,6.041e-05,2.52597e-05,1.04072e-05,-1.58282e-05
1494,8.8545e-06,-1.67201e-05,6.22399e-05,3.25146e-05,2.41991e-05,-1.6897e-05
1495,4.19746e-06,-5.2616e-06,5.64595e-05,3.74567e-05,4.72709e-05,-1.52616e-05
1496,-8.64299e-07,-4.50866e-06,5.16311e-05,4.01958e-05,6.95819e-05,-1.34298e-05
1497,-1.78732e-06,-2.01443e-06,5.19951e-05,4.42334e-05,8.48499e-05,-1.12018e-05
1498,2.25955e-06,9.70689e-07,5.07707e-05,4.62343e-05,9.26305e-05,-9.17591e-06
1499,5.56722e-06,4.62294e-07,5.03966e-05,4.25452e-05,9.30655e-05,-9.57198e-06
1500,5.00338e-06,-8.58847e-06,5.30491e-05,3.13808e-05,9.13617e-05,-8.97251e-06
1501,4.35347e-06,-2.08767e-05,5.53271e-05,2.14518e-05,9.13856e-05,-4.45297e-06
1502,5.3779e-06,-2.33388e-05,5.53664e-05,2.30613e-05,8.50596e-05,-9.37506e-07
1503,4.83773e-06,-1.3404e-05,5.02513e-05,3.24401e-05,6.66676e-05,-8.98319e-08
1504,2.68007e-06,-2.23115e-06,4.59045e-05,3.79226e-05,4.0665e-05,-1.80806e-06
1505,-3.12702e-07,1.95672e-06,4.56783e-05,3.55923e-05,6.72049e-06,-4.90859e-06
1506,-5.6394e-07,-4.00421e-06,4.78792e-05,3.06447e-05,-3.16837e-05,-6.8942e-06
1507,2.47466e-06,-1.47713e-05,4.84096e-05,3.00439e-05,-6.29351e-05,-7.37966e-06
1508,3.333e-06,-1.98417e-05,5.10946e-05,3.61966e-05,-6.72507e-05,-7.58825e-06
1509,5.32924e-06,-1.59419e-05,5.55061e-05,4.4222e-05,-4.39971e-05,-8.00997e-06
1510,9.80017e-06,-1.0549e-05,5.69736e-05,4.643e-05,-1.8975e-05,-7.83868e-06
1511,1.36092e-05,-9.08826e-06,5.59028e-05,4.26614e-05,-1.09281e-05,-8.12232e-06
1512,1.40918e-05,-1.2205e-05,5.10246e-05,3.87883e-05,-1.2806e-05,-1.0769e-05
1513,9.86638e-06,-2.15003e-05,4.49674e-05,3.50649e-05,-1.36729e-05,-1.47202e-05
1514,2.62929e-06,-2.63853e-05,4.3803e-05,3.43541e-05,-1.19309e-05,-1.48955e-05
1515,-2.45348e-06,-1.7083e-05,5.01986e-05,3.88502e-05,-7.44094e-06,-1.28404e-05
1516,-2.94527e-06,-2.74003e-06,5.667e-05,4.07242e-05,-1.03528e-06,-1.12873e-05
1517,-1.08412e-06,5.03363e-06,5.60629e-05,3.8077e-05,4.84395e-06,-1.0826e-05
1518,1.47288e-06,2.14018e-06,4.81864e-05,3.74331e-05,7.45992e-06,-1.51305e-05
1519,3.69339e-06,-1.27657e-05,4.16451e-05,3.53705e-05,6.04592e-06,-2.24796e-05
1520,5.34966e-06,-2.18041e-05,4.30357e-05,3.23079e-05,1.46181e-06,-2.22972e-05
1521,6.85349e-06,-1.02674e-05,4.85964e-05,3.74364e-05,-1.14693e-06,-1.40181e-05
1522,7.31302e-06,8.68577e-07,5.09401e-05,4.22365e-05,-8.5205e-07,-8.17944e-06
1523,6.02459e-06,-3.33188e-06,5.0109e-05,4.12521e-05,-5.66792e-07,-5.94454e-06
1524,7.39564e-06,-1.34824e-05,4.57824e-05,4.15075e-05,-8.218e-07,-6.3752e-06
1525,1.11378e-05,-2.04526e-05,4.20267e-05,4.31938e-05,-3.54206e-06,-7.99279e-06
1526,1.26838e-05,-2.19017e-05,4.76779e-05,4.65451e-05,-9.63098e-06,-8.28447e-06
1527,9.72775e-06,-2.82129e-05,5.79046e-05,4.71587e-05,-1.00773e-05,-9.18996e-06
1528,3.17961e-06,-3.69801e-05,6.10196e-05,4.08027e-05,-4.79321e-06,-9.86335e-06
1529,-8.34144e-07,-3.45226e-05,5.78617e-05,3.40121e-05,-3.50358e-06,-1.24035e-05
1530,1.03756e-06,-2.03091e-05,5.35102e-05,3.52643e-05,-1.54586e-06,-1.47864e-05
1531,4.83375e-06,-8.2184e-06,4.91998e-05,4.07358e-05,7.53864e-06,-1.31769e-05
1532,6.70923e-06,-6.36192e-06,4.62713e-05,4.48028e-05,1.93875e-05,-1.02708e-05
1533,5.78457e-06,-1.64134e-05,4.20905e-05,4.32084e-05,2.98148e-05,-6.70561e-06
1534,5.58937e-06,-3.02366e-05,3.61485e-05,3.86223e-05,3.17348e-05,-4.25865e-06
1535,8.15511e-06,-3.26942e-05,3.5965e-05,3.76472e-05,2.24185e-05,-5.11803e-06
1536,1.27871e-05,-2.07617e-05,4.26899e-05,3.9564e-05,9.90567e-06,-6.49998e-06
1537,1.69792e-05,-8.08265e-06,5.02197e-05,4.0415e-05,1.46676e-06,-5.34599e-06
1538,1.82669e-05,-4.28578e-06,5.14941e-05,4.27109e-05,-2.19827e-06,-4.82519e-06
1539,1.88044e-05,-8.42136e-06,4.63175e-05,4.84337e-05,-6.08681e-06,-6.04614e-06
1540,1.87875e-05,-1.82155e-05,4.09848e-05,5.10316e-05,-1.4775e-05,-4.89892e-06
1541,1.82695e-05,-2.18692e-05,4.14818e-05,5.02332e-05,-2.51603e-05,-2.82146e-06
1542,1.87928e-05,-1.35408e-05,4.63989e-05,4.99701e-05,-2.6838e-05,-2.85785e-06
1543,2.04563e-05,-4.48023e-06,5.04636e-05,5.09105e-05,-1.61552e-05,-2.85626e-06
1544,2.19191e-05,-3.17196e-06,5.0553e-05,5.06229e-05,-4.02473e-06,-3.14468e-06
1545,2.53475e-05,-8.37273e-06,4.72688e-05,5.01128e-05,-1.43947e-06,-2.76277e-06
