Time_Index,DELTOID_Affected,DELTOID_NonAffected,BICEPS_Affected,BICEPS_NonAffected,FOREARM_Affected,FOREARM_NonAffected
1,1.69564e-05,-2.36045e-05,6.40825e-05,2.45227e-05,-2.00376e-06,-7.65692e-06
2,1.67713e-05,-2.18417e-05,6.32877e-05,2.9781e-05,3.78136e-06,-9.09938e-06
3,1.94351e-05,-1.43142e-05,6.25773e-05,3.69386e-05,6.52753e-06,-5.66966e-06
4,1.9307e-05,-1.12764e-05,6.36647e-05,3.72241e-05,9.89118e-06,3.45477e-06
5,1.533e-05,-1.40582e-05,6.39879e-05,3.0416e-05,1.17659e-05,7.9401e-06
6,1.04166e-05,-1.96803e-05,6.19373e-05,2.30677e-05,8.61094e-06,2.21051e-06
7,6.44441e-06,-2.3121e-05,6.14989e-05,2.06426e-05,2.30805e-06,-8.56815e-06
8,1.08307e-06,-1.69887e-05,6.04467e-05,2.49368e-05,-3.76718e-07,-1.67017e-05
9,-4.81247e-06,-5.72587e-06,5.92746e-05,3.28848e-05,6.79774e-06,-1.78203e-05
10,-6.52892e-06,-1.23471e-06,5.97373e-05,3.86396e-05,2.48474e-05,-1.28024e-05
11,-2.55714e-06,-6.25195e-06,5.92105e-05,3.83159e-05,4.22405e-05,-7.36888e-06
12,2.01304e-06,-1.73854e-05,5.64727e-05,3.25236e-05,4.88036e-05,-6.74489e-06
13,1.36673e-06,-2.52657e-05,5.50803e-05,2.69082e-05,4.28158e-05,-8.93816e-06
14,-2.28135e-06,-1.83733e-05,5.63896e-05,2.95592e-05,3.22656e-05,-9.34691e-06
15,-3.26692e-06,-6.49923e-06,5.76596e-05,3.80223e-05,2.81208e-05,-8.75051e-06
16,1.48237e-06,-4.59393e-06,5.74534e-05,4.33187e-05,2.94899e-05,-8.34878e-06
17,1.12464e-05,-5.40958e-06,5.57354e-05,4.58539e-05,2.3378e-05,-6.65019e-06
18,2.12386e-05,-2.09256e-06,5.26974e-05,4.92228e-05,4.82951e-06,-2.75384e-06
19,2.54702e-05,1.27569e-06,4.99113e-05,5.10417e-05,-1.55921e-05,1.58289e-06
20,2.3492e-05,-1.08352e-06,5.07017e-05,4.66652e-05,-2.37175e-05,3.01953e-06
21,2.19501e-05,-1.06325e-05,5.40325e-05,3.85116e-05,-1.44531e-05,1.83709e-06
22,2.30954e-05,-1.50586e-05,5.46409e-05,3.50755e-05,3.49295e-06,-1.68982e-07
23,2.3407e-05,-6.22895e-06,4.99739e-05,3.54157e-05,1.47884e-05,-3.70276e-06
24,2.60015e-05,4.465e-06,4.23118e-05,3.22271e-05,1.43392e-05,-5.79863e-06
25,3.11123e-05,5.27793e-06,3.68304e-05,2.61051e-05,1.14399e-05,-4.43955e-06
26,3.1486e-05,-1.53143e-06,3.86426e-05,2.25646e-05,4.82281e-06,-3.80409e-06
27,2.93011e-05,-9.29768e-06,4.52972e-05,2.06933e-05,-1.1149e-05,-7.9205e-06
28,2.92233e-05,-1.11374e-05,4.77181e-05,1.98384e-05,-3.08269e-05,-1.59163e-05
29,2.93886e-05,-4.37077e-06,4.55666e-05,2.4161e-05,-4.94199e-05,-2.18098e-05
30,2.63046e-05,6.28105e-06,4.53697e-05,3.35227e-05,-5.478e-05,-2.05846e-05
31,2.15415e-05,1.3296e-05,4.59669e-05,4.05569e-05,-3.83986e-05,-1.30174e-05
32,1.9215e-05,1.1149e-05,4.26997e-05,3.97923e-05,-1.3318e-05,-5.04636e-06
33,2.04817e-05,-1.2986e-06,3.91842e-05,3.4331e-05,7.89892e-06,-1.80983e-06
34,2.04044e-05,-1.44622e-05,3.99185e-05,3.14369e-05,2.50492e-05,-1.92673e-06
35,1.45571e-05,-1.40638e-05,4.23861e-05,3.54559e-05,3.90787e-05,-1.202e-06
36,8.32361e-06,-2.67096e-06,4.16021e-05,4.2151e-05,5.36636e-05,-1.12126e-06
37,7.58769e-06,4.39851e-06,3.74006e-05,4.43706e-05,6.61853e-05,-5.46089e-06
38,1.01572e-05,2.34572e-08,3.29172e-05,4.3587e-05,7.09076e-05,-1.23289e-05
39,1.15123e-05,-1.43497e-05,3.07993e-05,4.34355e-05,6.88262e-05,-2.03133e-05
40,9.68822e-06,-3.00928e-05,3.58386e-05,4.41292e-05,6.15026e-05,-2.96179e-05
41,5.03784e-06,-3.10165e-05,4.53957e-05,4.82201e-05,5.11941e-05,-3.22158e-05
42,2.41731e-06,-1.86488e-05,5.10786e-05,5.22402e-05,4.5724e-05,-2.3034e-05
43,4.43924e-06,-9.54027e-06,5.12425e-05,5.15056e-05,4.87927e-05,-1.1915e-05
44,8.60813e-06,-6.65781e-06,4.89879e-05,4.81561e-05,4.8561e-05,-9.33247e-06
45,1.21918e-05,-4.38145e-06,4.43834e-05,4.56397e-05,3.3002e-05,-1.14363e-05
46,1.62831e-05,-2.48796e-06,3.93291e-05,4.56071e-05,6.12013e-06,-1.10299e-05
47,1.87049e-05,-5.51077e-06,3.95157e-05,4.46982e-05,-1.26182e-05,-1.09059e-05
48,1.55745e-05,-1.39944e-05,4.24642e-05,4.07001e-05,-9.70301e-06,-1.63767e-05
49,8.90973e-06,-1.6508e-05,4.16431e-05,3.82926e-05,7.11906e-06,-2.57371e-05
50,5.63221e-06,-6.16432e-06,3.60084e-05,4.05849e-05,2.06845e-05,-3.01919e-05
51,9.17835e-06,5.57773e-06,2.98803e-05,4.41559e-05,2.61969e-05,-2.65227e-05
52,1.22859e-05,7.38678e-06,2.82049e-05,4.51325e-05,2.47175e-05,-2.10101e-05
53,6.68314e-06,3.11487e-07,3.31794e-05,4.29249e-05,1.76302e-05,-1.68686e-05
54,-3.60622e-06,-1.02418e-05,4.03133e-05,3.96271e-05,1.18503e-05,-1.09567e-05
55,-6.29699e-06,-1.56197e-05,4.22953e-05,3.93582e-05,9.21975e-06,-3.27136e-06
56,-5.15713e-07,-9.35085e-06,4.09898e-05,4.38863e-05,4.6345e-06,2.66771e-06
57,4.84016e-06,1.63203e-06,4.52455e-05,4.99764e-05,-3.88961e-06,6.67228e-06
58,6.83357e-06,4.63547e-06,5.14095e-05,5.29816e-05,-1.69837e-05,9.74664e-06
59,5.58855e-06,-2.52e-06,5.18619e-05,5.01403e-05,-3.12208e-05,1.13521e-05
60,2.61613e-06,-1.32182e-05,4.81742e-05,4.28528e-05,-4.02596e-05,1.13564e-05
61,4.21766e-06,-1.927e-05,4.6148e-05,3.95585e-05,-4.52077e-05,9.08795e-06
62,8.07802e-06,-1.57283e-05,5.03365e-05,4.66636e-05,-4.77797e-05,3.98361e-06
63,9.76757e-06,-7.89035e-06,5.54799e-05,5.48672e-05,-4.37096e-05,-5.16526e-07
64,1.17831e-05,-4.78267e-06,5.88903e-05,5.06084e-05,-3.46423e-05,-1.77138e-07
65,1.41577e-05,-8.56743e-06,5.76731e-05,3.63668e-05,-2.51672e-05,1.77466e-06
66,1.50978e-05,-1.72185e-05,5.21379e-05,2.60673e-05,-1.04481e-05,-1.57648e-06
67,1.39307e-05,-2.30143e-05,4.81294e-05,2.75377e-05,1.28907e-05,-1.02339e-05
68,1.33792e-05,-1.49368e-05,4.88464e-05,3.63651e-05,3.59743e-05,-1.71176e-05
69,1.64642e-05,-1.69753e-06,5.1974e-05,4.30064e-05,4.87203e-05,-1.9273e-05
70,2.11301e-05,-1.03361e-07,5.3602e-05,4.35466e-05,5.09125e-05,-2.10673e-05
71,2.37861e-05,-4.71244e-06,5.35967e-05,4.07883e-05,4.65935e-05,-2.18541e-05
72,2.35649e-05,-5.56094e-06,5.22958e-05,3.47698e-05,4.05314e-05,-1.98147e-05
73,2.06857e-05,-4.16468e-06,5.36002e-05,2.72679e-05,3.57835e-05,-1.6442e-05
74,1.79027e-05,-7.43867e-06,6.0145e-05,2.26089e-05,3.10615e-05,-1.26041e-05
75,1.86262e-05,-1.96155e-05,6.44671e-05,2.05477e-05,2.63913e-05,-8.00877e-06
76,2.04941e-05,-2.87084e-05,6.0421e-05,2.30688e-05,2.27148e-05,-1.1378e-06
77,1.90068e-05,-2.35942e-05,5.24265e-05,3.36599e-05,1.54457e-05,4.15732e-06
78,1.62576e-05,-1.17095e-05,4.67935e-05,4.67938e-05,6.38973e-06,3.60743e-06
79,1.47494e-05,-4.9468e-06,4.92145e-05,5.20549e-05,3.03233e-06,5.80566e-07
80,1.05328e-05,-7.29503e-06,5.4139e-05,4.80824e-05,4.31992e-06,4.52897e-07
81,4.05713e-06,-1.49024e-05,5.40302e-05,4.06415e-05,9.93951e-06,1.8044e-06
82,1.72864e-07,-1.7913e-05,5.11236e-05,3.75701e-05,1.84001e-05,3.71191e-07
83,5.61703e-07,-9.53969e-06,5.27896e-05,4.15997e-05,2.06876e-05,-2.17526e-06
84,2.81722e-06,3.26511e-06,5.7835e-05,4.63015e-05,1.71715e-05,-1.48125e-06
85,3.65839e-06,8.29455e-06,6.01789e-05,4.65266e-05,1.26539e-05,9.7117e-07
86,3.90906e-06,2.81942e-06,5.84183e-05,4.35735e-05,9.98592e-06,8.48114e-07
87,5.45251e-06,-8.13635e-06,5.34579e-05,3.87031e-05,7.48202e-06,-1.74505e-06
88,6.75772e-06,-1.5667e-05,5.05257e-05,3.42391e-05,1.4387e-06,-4.83553e-06
89,5.65606e-06,-1.11869e-05,5.06928e-05,3.42624e-05,-4.00183e-06,-8.93224e-06
90,4.6934e-06,3.779e-08,5.13484e-05,3.68319e-05,-5.33363e-06,-1.59723e-05
91,5.73026e-06,4.9502e-06,5.001e-05,3.73254e-05,-6.55438e-06,-2.37081e-05
92,6.621e-06,4.97016e-08,4.5912e-05,3.56227e-05,-9.99081e-06,-2.59326e-05
93,8.1722e-06,-1.01787e-05,4.3463e-05,3.27369e-05,-1.21493e-05,-2.1527e-05
94,1.05078e-05,-1.6875e-05,4.52683e-05,2.97076e-05,-1.30486e-05,-1.75441e-05
95,1.21826e-05,-1.05613e-05,5.06806e-05,2.97276e-05,-9.38815e-06,-1.86703e-05
96,1.44918e-05,6.75377e-07,5.84791e-05,3.08434e-05,2.00986e-06,-2.18413e-05
97,1.83366e-05,2.65993e-06,6.47786e-05,2.90434e-05,1.5707e-05,-2.42321e-05
98,2.20314e-05,-6.7251e-07,6.40959e-05,2.82153e-05,2.55567e-05,-2.60876e-05
99,2.38132e-05,-4.96279e-06,5.55868e-05,3.03483e-05,3.39686e-05,-2.72265e-05
100,2.45146e-05,-9.91932e-06,4.64327e-05,3.29724e-05,4.45349e-05,-2.71933e-05
101,2.44811e-05,-1.33387e-05,4.67103e-05,3.61242e-05,5.50948e-05,-2.29188e-05
102,2.25342e-05,-1.71972e-05,5.6207e-05,3.81435e-05,6.28705e-05,-1.39838e-05
103,2.00553e-05,-1.72257e-05,6.43736e-05,3.96484e-05,6.46517e-05,-3.06355e-06
104,2.09234e-05,-8.19643e-06,6.52874e-05,4.25275e-05,5.75346e-05,7.72831e-06
105,2.34264e-05,2.05736e-06,5.78126e-05,4.60472e-05,4.36519e-05,1.34834e-05
106,2.10791e-05,4.34861e-06,5.07896e-05,4.76875e-05,2.56265e-05,9.81192e-06
107,1.49924e-05,-1.39486e-06,5.59218e-05,4.47965e-05,2.51334e-06,-2.28891e-06
108,1.19447e-05,-1.04809e-05,6.39528e-05,3.88054e-05,-1.98716e-05,-1.72568e-05
109,1.26725e-05,-1.51268e-05,6.33729e-05,3.57855e-05,-3.42323e-05,-3.08611e-05
110,1.2355e-05,-1.05951e-05,5.81341e-05,3.94014e-05,-3.76001e-05,-4.02383e-05
111,7.18481e-06,-2.73938e-06,5.38572e-05,4.55106e-05,-3.92534e-05,-4.34756e-05
112,6.86676e-07,9.70279e-07,5.15698e-05,4.66339e-05,-4.01159e-05,-4.16574e-05
113,-1.53328e-06,-4.01546e-07,5.26573e-05,4.07448e-05,-2.5608e-05,-3.9277e-05
114,1.26185e-06,-5.694e-06,5.61812e-05,3.54059e-05,-1.5194e-06,-3.75141e-05
115,4.926e-06,-1.00168e-05,5.46305e-05,3.74906e-05,1.6513e-05,-3.1376e-05
116,4.93956e-06,-6.93149e-06,5.2278e-05,4.43577e-05,1.79904e-05,-1.59512e-05
117,3.00605e-06,8.52289e-07,5.34738e-05,5.00466e-05,7.73958e-06,1.05844e-05
118,-2.93552e-07,4.81938e-06,5.53226e-05,5.19127e-05,-2.69192e-06,4.19384e-05
119,-3.19944e-06,-4.70286e-07,5.41201e-05,4.94659e-05,-8.52385e-06,6.12762e-05
120,-2.33657e-06,-1.50933e-05,5.08795e-05,4.38154e-05,-8.71103e-06,5.87895e-05
121,-5.01414e-07,-2.7036e-05,5.20016e-05,3.89666e-05,-7.19048e-06,3.99354e-05
122,-1.53584e-06,-1.92844e-05,5.74075e-05,3.99947e-05,-4.95338e-06,1.61157e-05
123,-4.4326e-06,-1.3725e-06,5.9599e-05,4.33482e-05,3.29186e-06,-5.66094e-07
124,-4.8518e-06,3.13705e-06,5.44849e-05,4.28477e-05,1.97683e-05,-7.46775e-06
125,-2.56324e-06,-2.76533e-06,4.74647e-05,4.09215e-05,3.77465e-05,-1.19519e-05
126,2.53472e-08,-6.09803e-06,4.49251e-05,4.00763e-05,4.96831e-05,-1.56319e-05
127,1.78167e-06,-4.85068e-06,4.95249e-05,4.18458e-05,5.1564e-05,-1.57282e-05
128,3.04146e-06,-5.37084e-06,5.89933e-05,4.53244e-05,4.26012e-05,-1.49148e-05
129,4.63466e-06,-1.23936e-05,6.60707e-05,4.623e-05,2.81679e-05,-1.59451e-05
130,6.64769e-06,-1.44739e-05,6.36876e-05,4.77621e-05,1.94066e-05,-1.73547e-05
131,9.49486e-06,-2.85047e-06,5.49781e-05,5.12395e-05,2.15812e-05,-1.57113e-05
132,1.29036e-05,1.14816e-05,4.70847e-05,5.09933e-05,2.8509e-05,-1.27671e-05
133,1.4977e-05,1.54103e-05,4.34879e-05,4.55664e-05,3.50793e-05,-1.17052e-05
134,1.57245e-05,7.87789e-06,4.242e-05,3.70464e-05,4.19458e-05,-1.24597e-05
135,1.58254e-05,-5.44234e-06,4.18674e-05,2.86667e-05,5.52916e-05,-1.25673e-05
136,1.63271e-05,-1.44759e-05,4.26599e-05,2.69709e-05,7.41137e-05,-1.03887e-05
137,2.00031e-05,-1.19958e-05,4.42361e-05,3.42248e-05,8.15661e-05,-7.53964e-06
138,2.44255e-05,-3.88807e-06,4.57581e-05,4.17774e-05,7.74049e-05,-6.20709e-06
139,2.65852e-05,-6.45543e-07,4.69511e-05,4.20131e-05,6.47006e-05,-5.77611e-06
140,2.56551e-05,-3.69439e-06,4.80117e-05,3.65663e-05,4.5336e-05,-3.97602e-06
141,2.37946e-05,-9.22073e-06,4.74249e-05,3.07533e-05,1.81867e-05,-1.51922e-06
142,2.4966e-05,-1.18067e-05,4.43564e-05,2.98672e-05,-2.23829e-05,-7.89116e-07
143,2.71191e-05,-5.65886e-06,4.23442e-05,3.54663e-05,-6.7974e-05,-2.36783e-06
144,2.73571e-05,5.32044e-06,4.30279e-05,4.14215e-05,-0.000100349,-5.2794e-06
145,2.53315e-05,1.05742e-05,4.49941e-05,4.17917e-05,-0.000109059,-1.04018e-05
146,2.32012e-05,6.28364e-06,4.35078e-05,3.74189e-05,-9.88129e-05,-1.80259e-05
147,2.23595e-05,-7.39301e-06,4.04905e-05,3.10668e-05,-7.37277e-05,-2.4678e-05
148,2.13398e-05,-2.30966e-05,4.01486e-05,2.80643e-05,-4.22052e-05,-2.84589e-05
149,1.96717e-05,-2.14208e-05,4.45461e-05,3.4191e-05,-1.41106e-05,-2.92753e-05
150,1.94843e-05,-6.25405e-06,4.92424e-05,4.34229e-05,5.63202e-06,-2.52885e-05
151,2.13923e-05,-3.98569e-07,4.74006e-05,4.5487e-05,2.21744e-05,-1.86409e-05
152,2.35753e-05,-2.06943e-06,4.07871e-05,4.08587e-05,3.68789e-05,-1.45877e-05
153,2.58251e-05,-1.26886e-06,3.68751e-05,3.83768e-05,4.81761e-05,-1.65858e-05
154,2.66205e-05,8.74806e-08,4.13498e-05,4.30369e-05,5.39849e-05,-2.10991e-05
155,2.29599e-05,-3.10177e-06,5.15137e-05,4.84595e-05,5.32493e-05,-2.254e-05
156,1.71618e-05,-1.24474e-05,5.76061e-05,4.80893e-05,5.03248e-05,-2.21055e-05
157,1.54126e-05,-1.76477e-05,5.2417e-05,4.63479e-05,4.9399e-05,-2.27426e-05
158,1.73614e-05,-1.20257e-05,4.39782e-05,4.8997e-05,5.14161e-05,-2.30867e-05
159,1.77397e-05,-4.21969e-06,4.05358e-05,5.22749e-05,5.89932e-05,-2.07287e-05
160,1.69379e-05,-1.61465e-06,3.97754e-05,4.91541e-05,6.96393e-05,-1.82092e-05
161,1.60949e-05,-5.67201e-06,4.32737e-05,3.90944e-05,7.42922e-05,-1.78024e-05
162,1.30333e-05,-1.64906e-05,5.09951e-05,2.90144e-05,7.43838e-05,-1.72707e-05
163,1.10103e-05,-2.53349e-05,5.51911e-05,2.61993e-05,7.03541e-05,-1.48798e-05
164,1.05152e-05,-2.19905e-05,5.82505e-05,3.01119e-05,5.91526e-05,-1.17196e-05
165,8.67337e-06,-1.16392e-05,5.79907e-05,3.4278e-05,4.69843e-05,-1.07246e-05
166,6.47961e-06,-6.41575e-06,5.54903e-05,3.54384e-05,3.88303e-05,-1.36074e-05
167,4.73562e-06,-9.42423e-06,5.56591e-05,3.41014e-05,2.52632e-05,-1.82408e-05
168,3.08043e-06,-1.64562e-05,5.46993e-05,2.99552e-05,1.04444e-06,-1.97796e-05
169,2.94307e-06,-2.0389e-05,5.36793e-05,2.52904e-05,-2.25196e-05,-1.56794e-05
170,6.28827e-06,-1.36234e-05,5.4668e-05,2.68324e-05,-3.30104e-05,-9.05021e-06
171,9.17378e-06,8.27713e-08,5.70373e-05,3.43255e-05,-2.78371e-05,-6.56043e-06
172,7.61619e-06,6.83217e-06,6.07023e-05,3.84602e-05,-1.49879e-05,-1.19396e-05
173,5.92741e-06,2.1317e-06,6.29351e-05,3.50463e-05,-5.71417e-06,-1.902e-05
174,8.19619e-06,-1.02946e-05,6.15532e-05,2.89093e-05,-3.6698e-06,-1.91237e-05
175,1.07972e-05,-2.26905e-05,5.81865e-05,2.82914e-05,-7.73197e-06,-1.24622e-05
176,1.09944e-05,-2.06868e-05,5.68244e-05,3.46186e-05,-8.09211e-06,-5.86068e-06
177,1.03341e-05,-8.22968e-06,5.73942e-05,3.77256e-05,8.88805e-07,-4.92244e-06
178,9.64814e-06,-1.68223e-06,5.49426e-05,3.35433e-05,1.41515e-05,-8.24417e-06
179,9.74686e-06,-2.20398e-06,4.88912e-05,2.87377e-05,2.45264e-05,-8.34118e-06
180,1.16638e-05,-5.05618e-06,4.32984e-05,2.51021e-05,3.08937e-05,-9.63897e-07
181,1.38565e-05,-7.42777e-06,4.33734e-05,2.30104e-05,3.26694e-05,8.73019e-06
182,1.34903e-05,-1.11862e-05,4.96639e-05,2.34878e-05,2.9898e-05,1.40025e-05
183,1.02393e-05,-2.0597e-05,5.67963e-05,2.37222e-05,2.94052e-05,1.3349e-05
184,5.4184e-06,-2.72642e-05,5.96361e-05,2.47816e-05,3.3499e-05,6.53527e-06
185,2.25301e-06,-2.0091e-05,5.93758e-05,3.08079e-05,3.40998e-05,-3.55536e-06
186,2.01524e-06,-5.64774e-06,5.91468e-05,3.89642e-05,2.84783e-05,-1.11161e-05
187,3.98026e-06,2.69016e-06,5.50059e-05,4.26079e-05,2.13726e-05,-1.62965e-05
188,3.80922e-06,2.86806e-07,5.02843e-05,3.84044e-05,1.66975e-05,-2.2607e-05
189,1.28192e-07,-9.33057e-06,5.59583e-05,2.91747e-05,1.97025e-05,-2.769e-05
190,-1.52678e-06,-1.49955e-05,6.60043e-05,2.35162e-05,2.12186e-05,-2.77589e-05
191,-1.0861e-06,-7.60732e-06,6.74915e-05,2.51719e-05,4.87358e-06,-2.2003e-05
192,9.72663e-07,6.22533e-06,6.29999e-05,3.02324e-05,-1.8418e-05,-1.18072e-05
193,9.28364e-07,1.26342e-05,6.17098e-05,3.44754e-05,-2.47698e-05,-1.03945e-07
194,-3.85949e-07,8.14911e-06,6.10207e-05,3.59359e-05,-1.41434e-05,1.08376e-05
195,1.52594e-06,-2.48599e-06,5.62736e-05,3.34331e-05,-1.49518e-06,2.0021e-05
196,5.144e-06,-1.04642e-05,5.29953e-05,3.0769e-05,1.9813e-06,2.42082e-05
197,7.90792e-06,-7.10061e-06,5.37773e-05,3.47146e-05,2.76994e-06,1.9341e-05
198,7.07348e-06,2.50271e-06,5.31332e-05,4.31111e-05,1.28144e-05,7.99604e-06
199,3.34289e-06,6.4921e-06,5.26983e-05,4.76342e-05,3.41453e-05,-1.33e-06
200,-1.5236e-07,2.47868e-06,5.39015e-05,4.5572e-05,5.6318e-05,-3.80065e-06
201,-3.17123e-07,-9.75117e-06,5.66998e-05,4.03772e-05,6.78039e-05,-2.42317e-06
202,1.55147e-06,-2.45819e-05,5.96559e-05,3.8281e-05,6.23757e-05,-7.86435e-07
203,1.35798e-06,-2.43968e-05,6.22581e-05,4.22888e-05,4.73793e-05,-1.38403e-07
204,3.75865e-07,-1.20666e-05,6.35763e-05,4.69159e-05,3.56696e-05,1.43141e-06
205,-9.34135e-08,-6.41022e-06,6.31073e-05,4.7248e-05,2.78675e-05,6.66045e-06
206,-1.85714e-06,-7.89142e-06,5.89128e-05,4.59985e-05,2.06679e-05,1.02326e-05
207,-6.24734e-06,-8.8461e-06,4.9712e-05,4.38985e-05,1.55905e-05,6.98464e-06
208,-1.01034e-05,-7.65863e-06,4.17562e-05,4.06713e-05,1.23536e-05,-1.26283e-07
209,-1.01785e-05,-9.21544e-06,4.22902e-05,3.82159e-05,1.06151e-05,-9.52202e-06
210,-7.60405e-06,-1.69269e-05,4.94327e-05,3.45342e-05,1.69397e-05,-1.96495e-05
211,-3.63894e-06,-2.18498e-05,5.36546e-05,3.20566e-05,2.51201e-05,-2.565e-05
212,7.37776e-07,-1.41039e-05,5.12263e-05,3.44365e-05,2.44104e-05,-2.55465e-05
213,6.0774e-06,-1.62591e-06,4.61027e-05,3.93015e-05,1.67181e-05,-2.36689e-05
214,1.21273e-05,2.52445e-06,4.49155e-05,4.25202e-05,5.03948e-06,-2.45447e-05
215,1.34288e-05,-2.66156e-06,4.76001e-05,4.06974e-05,-1.14542e-05,-2.52009e-05
216,1.43336e-05,-1.17149e-05,5.09171e-05,3.28679e-05,-2.42964e-05,-2.09844e-05
217,2.33034e-05,-1.57904e-05,5.31471e-05,2.61733e-05,-2.70946e-05,-1.28918e-05
218,2.89416e-05,-9.74924e-06,5.26108e-05,2.85867e-05,-2.39321e-05,-5.10752e-06
219,2.81396e-05,-5.49893e-07,5.06819e-05,3.72335e-05,-1.72957e-05,-2.75192e-06
220,2.75852e-05,2.63025e-06,5.16296e-05,4.43443e-05,-8.57628e-06,-7.83181e-06
221,2.86683e-05,4.46039e-07,5.22693e-05,4.42496e-05,-1.52108e-06,-1.40984e-05
222,2.97805e-05,-4.48635e-06,5.12624e-05,3.68073e-05,1.01977e-06,-1.5484e-05
223,2.68518e-05,-8.36574e-06,5.09639e-05,2.87166e-05,-1.25722e-06,-1.42686e-05
224,2.31033e-05,-3.41117e-06,5.23747e-05,2.71021e-05,-3.55889e-06,-1.39574e-05
225,2.1249e-05,9.97725e-06,5.25909e-05,3.17096e-05,5.73605e-07,-1.40433e-05
226,1.84042e-05,2.0277e-05,5.23627e-05,3.78724e-05,5.81313e-06,-1.25068e-05
227,1.61356e-05,1.82715e-05,5.06275e-05,4.19878e-05,5.46491e-06,-8.7866e-06
228,1.90052e-05,3.89702e-06,4.70037e-05,4.20143e-05,-6.50387e-07,-3.69851e-06
229,2.40093e-05,-1.09917e-05,4.2104e-05,4.02981e-05,-1.02889e-05,-1.0011e-07
230,2.71212e-05,-9.1197e-06,4.16199e-05,4.36877e-05,-1.68573e-05,-6.69294e-07
231,2.91526e-05,3.2635e-06,4.69151e-05,4.72702e-05,-1.57908e-05,-1.56483e-06
232,2.95573e-05,7.32677e-06,5.34008e-05,4.40377e-05,-8.80777e-06,1.34409e-06
233,2.669e-05,5.35718e-06,5.74058e-05,4.15459e-05,4.5361e-07,3.15533e-06
234,2.19106e-05,5.05119e-06,5.59731e-05,4.22362e-05,1.17908e-05,1.03836e-06
235,1.68351e-05,5.71591e-06,5.18319e-05,4.0903e-05,2.41049e-05,-5.04177e-07
236,1.20124e-05,2.97925e-06,4.90118e-05,3.80197e-05,3.35039e-05,-3.00807e-06
237,9.73299e-06,-6.70766e-06,5.03215e-05,3.57873e-05,4.04949e-05,-8.30997e-06
238,9.72773e-06,-1.53684e-05,5.3284e-05,3.5348e-05,4.65027e-05,-1.46741e-05
239,9.61384e-06,-1.22781e-05,5.39042e-05,3.71759e-05,4.76867e-05,-1.89425e-05
240,9.12448e-06,-2.11265e-06,4.87243e-05,3.83701e-05,4.17653e-05,-1.80763e-05
241,8.00615e-06,4.02537e-06,4.05196e-05,3.75852e-05,3.06237e-05,-1.59636e-05
242,7.11394e-06,2.24471e-06,3.54532e-05,3.4968e-05,2.06029e-05,-1.59689e-05
243,1.00121e-05,-6.5806e-06,3.73488e-05,2.9655e-05,2.15459e-05,-1.66381e-05
244,1.58418e-05,-1.43603e-05,4.14856e-05,2.60016e-05,2.91798e-05,-1.5483e-05
245,1.82194e-05,-1.28471e-05,4.26449e-05,2.8197e-05,2.93435e-05,-1.20491e-05
246,1.72474e-05,-5.32242e-06,4.40106e-05,3.20274e-05,2.65875e-05,-8.58298e-06
247,1.71267e-05,-9.47994e-07,4.82935e-05,3.21241e-05,3.02628e-05,-7.61914e-06
248,1.94364e-05,-3.10088e-06,4.64338e-05,2.93137e-05,4.08958e-05,-8.19379e-06
249,2.25517e-05,-1.15473e-05,3.93888e-05,2.69688e-05,4.859e-05,-8.13822e-06
250,2.22146e-05,-1.98933e-05,3.71174e-05,2.79593e-05,4.19092e-05,-7.53228e-06
251,1.80127e-05,-1.63223e-05,4.47589e-05,3.36438e-05,2.72722e-05,-6.82431e-06
252,1.49628e-05,-2.19492e-06,5.13589e-05,3.98633e-05,1.74935e-05,-7.46367e-06
253,1.63035e-05,6.05333e-06,4.91009e-05,4.1297e-05,1.32872e-05,-1.14834e-05
254,1.97083e-05,-8.58283e-07,4.23954e-05,3.67117e-05,9.10033e-06,-1.49387e-05
255,2.17079e-05,-1.54471e-05,4.02732e-05,2.95226e-05,8.81175e-07,-1.4131e-05
256,1.93307e-05,-2.37862e-05,4.3702e-05,2.81133e-05,-1.4931e-05,-1.53188e-05
257,1.4309e-05,-1.73554e-05,4.79912e-05,3.71489e-05,-2.65878e-05,-2.11865e-05
258,1.25844e-05,-7.84068e-06,5.27018e-05,4.5809e-05,-1.58717e-05,-2.12209e-05
259,1.24573e-05,-9.82192e-06,5.74151e-05,4.27946e-05,1.8165e-05,-8.85063e-06
260,9.27606e-06,-1.38753e-05,5.91054e-05,3.50209e-05,5.46137e-05,6.0607e-06
261,5.84199e-06,-1.16731e-05,5.40913e-05,3.11545e-05,6.93399e-05,1.3134e-05
262,7.09582e-06,-8.38582e-06,4.84219e-05,3.18457e-05,5.51908e-05,1.37644e-05
263,8.61906e-06,-9.59265e-06,4.98744e-05,3.37441e-05,2.93532e-05,1.2611e-05
264,5.78385e-06,-1.89057e-05,5.51703e-05,3.3765e-05,1.33953e-05,8.89685e-06
265,2.63147e-06,-2.7739e-05,5.48799e-05,3.53522e-05,1.01652e-05,5.33398e-06
266,3.73678e-06,-2.41858e-05,5.06613e-05,4.08721e-05,8.79061e-06,1.27978e-05
267,7.72889e-06,-1.19257e-05,4.68306e-05,4.54171e-05,2.34579e-06,2.85987e-05
268,8.9431e-06,-2.3704e-06,4.40918e-05,4.4115e-05,-1.03782e-05,3.28412e-05
269,6.21332e-06,-1.78255e-06,4.35311e-05,3.67949e-05,-2.78837e-05,1.68922e-05
270,4.36921e-06,-1.00976e-05,4.85326e-05,2.60803e-05,-3.08559e-05,-6.7721e-06
271,4.56038e-06,-1.69481e-05,5.29497e-05,2.05237e-05,-7.20663e-06,-2.22751e-05
272,3.72102e-06,-1.31174e-05,5.28684e-05,2.62831e-05,2.29647e-05,-2.45043e-05
273,3.31992e-06,-4.27993e-06,5.38503e-05,3.6308e-05,4.03476e-05,-1.78538e-05
274,5.02795e-06,-4.16371e-07,5.96705e-05,4.07569e-05,4.24882e-05,-9.61859e-06
275,7.27343e-06,-3.53023e-06,6.31032e-05,3.78984e-05,3.66172e-05,-3.69893e-06
276,8.05024e-06,-1.21007e-05,6.1038e-05,3.21432e-05,3.11967e-05,-9.14479e-07
277,9.69913e-06,-1.96138e-05,5.54432e-05,3.14492e-05,2.57252e-05,-1.94446e-06
278,1.20045e-05,-1.66554e-05,5.26146e-05,3.95559e-05,1.90147e-05,-5.44193e-06
279,1.16832e-05,-6.78844e-06,5.59642e-05,5.00388e-05,1.52217e-05,-9.26722e-06
280,9.10883e-06,-6.95595e-07,6.01366e-05,5.55251e-05,1.46303e-05,-1.42057e-05
281,6.99691e-06,-2.05648e-06,5.97887e-05,5.52478e-05,1.21864e-05,-2.02573e-05
282,9.17774e-06,-1.13592e-05,5.53572e-05,5.18162e-05,4.1702e-06,-2.39111e-05
283,1.27501e-05,-2.22203e-05,5.05687e-05,4.89231e-05,-7.26504e-06,-2.63476e-05
284,1.36315e-05,-2.06943e-05,4.76917e-05,5.23925e-05,-1.48491e-05,-3.10282e-05
285,1.36903e-05,-9.21774e-06,4.79957e-05,5.85889e-05,-1.43071e-05,-3.33502e-05
286,1.32815e-05,-1.26643e-06,5.02179e-05,5.90645e-05,-8.59384e-06,-3.11712e-05
287,1.07415e-05,2.74877e-06,5.09192e-05,5.73436e-05,-3.37525e-06,-2.89503e-05
288,9.869e-06,3.8485e-06,4.79218e-05,5.44497e-05,6.77013e-07,-2.50615e-05
289,1.43572e-05,1.2656e-06,4.61733e-05,5.01426e-05,2.31194e-06,-1.91635e-05
290,1.83523e-05,-4.8487e-06,4.82363e-05,4.61044e-05,1.21989e-06,-1.61885e-05
291,1.73493e-05,-1.523e-05,5.10019e-05,3.84603e-05,3.25042e-06,-1.4359e-05
292,1.49155e-05,-1.92707e-05,5.02038e-05,3.17162e-05,1.05084e-05,-9.69373e-06
293,1.29638e-05,-1.09351e-05,4.85504e-05,3.25824e-05,1.75973e-05,-4.37055e-06
294,1.22941e-05,-1.6705e-06,4.74729e-05,3.76745e-05,2.30137e-05,-2.71574e-06
295,1.30498e-05,-1.67075e-06,4.80637e-05,4.05233e-05,2.13635e-05,-6.26784e-06
296,1.28422e-05,-9.48798e-06,5.07582e-05,3.84478e-05,7.74141e-06,-1.19495e-05
297,1.14378e-05,-1.93746e-05,5.18995e-05,3.37366e-05,2.49174e-06,-1.5399e-05
298,9.15604e-06,-2.35306e-05,5.0474e-05,3.40626e-05,2.21878e-05,-1.48719e-05
299,8.36081e-06,-1.75093e-05,4.84505e-05,4.15391e-05,4.6605e-05,-1.20614e-05
300,8.54114e-06,-6.27156e-06,4.62847e-05,4.85399e-05,5.5659e-05,-9.99176e-06
301,7.34678e-06,6.99984e-07,4.79039e-05,5.02397e-05,5.08521e-05,-1.00495e-05
302,7.57795e-06,-1.10965e-06,5.19232e-05,4.9193e-05,4.15533e-05,-1.03599e-05
303,9.46713e-06,-1.02589e-05,4.98849e-05,4.59662e-05,3.02554e-05,-7.9765e-06
304,9.59989e-06,-1.92202e-05,4.64787e-05,4.02725e-05,1.52836e-05,-4.1449e-06
305,7.62071e-06,-1.74722e-05,5.11364e-05,3.7212e-05,8.2358e-06,-3.18351e-06
306,6.20369e-06,-6.53291e-06,5.77409e-05,3.74743e-05,1.37436e-05,-5.39977e-06
307,6.16326e-06,6.39838e-07,5.96239e-05,3.60483e-05,2.29497e-05,-8.04969e-06
308,5.75663e-06,-1.476e-06,5.84191e-05,3.20722e-05,3.06815e-05,-1.07083e-05
309,6.71929e-06,-1.03617e-05,5.50414e-05,2.67627e-05,3.99094e-05,-1.33001e-05
310,9.77712e-06,-1.92587e-05,5.36035e-05,2.09162e-05,5.25478e-05,-1.65593e-05
311,1.16931e-05,-1.49887e-05,5.73436e-05,1.75892e-05,6.66542e-05,-2.14978e-05
312,1.31105e-05,-1.88301e-06,6.12153e-05,1.65882e-05,7.00295e-05,-2.64961e-05
313,1.46961e-05,4.58012e-06,6.07853e-05,1.46692e-05,5.06294e-05,-3.29941e-05
314,1.58292e-05,5.35746e-06,5.7788e-05,1.24828e-05,1.67429e-05,-4.19607e-05
315,1.6301e-05,6.18003e-06,5.50656e-05,1.61815e-05,-5.02104e-06,-4.83565e-05
316,1.73531e-05,5.27657e-06,5.43417e-05,2.84061e-05,1.16887e-06,-4.69925e-05
317,1.77097e-05,-1.49812e-06,5.51808e-05,4.04287e-05,1.89749e-05,-3.7193e-05
318,1.49585e-05,-1.45966e-05,5.3832e-05,4.36108e-05,2.3839e-05,-2.13563e-05
319,9.92587e-06,-2.29621e-05,5.115e-05,4.11678e-05,7.92964e-06,8.01952e-07
320,7.45829e-06,-1.63527e-05,5.06558e-05,3.97992e-05,-1.83115e-05,2.4076e-05
321,1.09643e-05,-1.70331e-06,4.90983e-05,4.13032e-05,-3.62353e-05,3.222e-05
322,1.56299e-05,8.06691e-06,4.84187e-05,4.23468e-05,-4.03816e-05,1.81439e-05
323,1.3961e-05,5.89181e-06,5.19571e-05,3.98859e-05,-4.80141e-05,-3.25411e-06
324,1.0083e-05,-6.00626e-06,5.32142e-05,3.21408e-05,-6.62948e-05,-1.43134e-05
325,1.02992e-05,-1.51012e-05,5.07125e-05,2.4228e-05,-7.77207e-05,-1.30527e-05
326,1.1319e-05,-1.13643e-05,4.87564e-05,2.51105e-05,-6.71479e-05,-7.80581e-06
327,1.02679e-05,-1.23687e-07,4.88625e-05,3.2034e-05,-4.47297e-05,-4.21255e-06
328,8.88782e-06,5.14316e-06,4.7936e-05,3.51565e-05,-2.42967e-05,-2.83349e-06
329,9.93841e-06,-1.42693e-06,4.37614e-05,3.12633e-05,-8.22316e-06,-1.6469e-06
330,1.15378e-05,-1.61479e-05,3.84835e-05,2.53538e-05,3.82963e-06,9.67048e-07
331,1.0376e-05,-2.78654e-05,3.55149e-05,2.34423e-05,1.28337e-05,2.8828e-06
332,5.11024e-06,-2.6214e-05,4.00059e-05,2.80329e-05,1.65673e-05,1.61505e-06
333,7.69922e-08,-1.56786e-05,4.622e-05,3.44199e-05,1.80385e-05,-1.44521e-06
334,-1.30027e-06,-8.71458e-06,5.00746e-05,3.49922e-05,1.67461e-05,-3.43606e-06
335,2.14517e-06,-9.71003e-06,4.82377e-05,2.95973e-05,1.23629e-05,-3.55954e-06
336,7.86394e-06,-1.77496e-05,4.17657e-05,2.68425e-05,1.0119e-05,-3.18538e-06
337,1.22837e-05,-2.6026e-05,3.8636e-05,3.32088e-05,8.60599e-06,-5.3175e-06
338,1.34977e-05,-2.03454e-05,4.17705e-05,4.47361e-05,5.12451e-06,-9.97064e-06
339,1.41691e-05,-6.2608e-06,4.80082e-05,5.05688e-05,2.30885e-06,-7.62841e-06
340,1.77638e-05,-1.26016e-06,5.22823e-05,4.64903e-05,4.16428e-06,6.35683e-06
341,2.36755e-05,-2.46305e-06,5.34324e-05,4.08607e-05,7.81682e-06,1.55492e-05
342,2.90484e-05,-3.4115e-06,5.14175e-05,3.90313e-05,9.29734e-06,8.55549e-06
343,3.0742e-05,-3.80337e-06,5.17382e-05,3.90388e-05,6.0944e-06,-6.8371e-06
344,2.78772e-05,-5.51915e-06,5.84484e-05,3.89781e-05,3.67302e-07,-1.9961e-05
345,2.29611e-05,-1.2792e-05,6.72324e-05,3.69193e-05,1.24356e-06,-2.56171e-05
346,1.99591e-05,-1.80365e-05,7.0622e-05,3.61989e-05,1.08313e-05,-2.59671e-05
347,2.02565e-05,-1.04722e-05,6.71562e-05,3.98957e-05,1.764e-05,-2.33591e-05
348,2.30086e-05,3.581e-06,5.9205e-05,4.55964e-05,1.5232e-05,-1.97775e-05
349,2.44568e-05,1.1268e-05,5.38271e-05,4.91147e-05,8.16911e-06,-1.93661e-05
350,2.3112e-05,1.01951e-05,5.33048e-05,4.61846e-05,-2.74657e-07,-2.17285e-05
351,1.87034e-05,3.68543e-06,5.51178e-05,3.62674e-05,-3.31863e-06,-2.25751e-05
352,1.31271e-05,-3.59903e-07,5.49051e-05,2.86169e-05,4.11442e-06,-2.00713e-05
353,1.23259e-05,3.58934e-06,5.08431e-05,3.31357e-05,1.11606e-05,-1.6716e-05
354,1.62559e-05,9.12734e-06,5.10297e-05,4.37147e-05,1.19169e-05,-1.56548e-05
355,1.90176e-05,8.53507e-06,5.47505e-05,4.75795e-05,9.5045e-06,-1.62548e-05
356,1.8846e-05,2.31695e-06,5.47776e-05,4.26386e-05,8.63579e-06,-1.45147e-05
357,1.78092e-05,-7.61116e-06,5.05356e-05,3.57892e-05,1.48601e-05,-9.40747e-06
358,1.82782e-05,-1.50919e-05,4.87288e-05,3.31498e-05,2.74955e-05,-6.29739e-06
359,1.7579e-05,-1.06113e-05,5.21339e-05,3.66922e-05,4.31679e-05,-7.44203e-06
360,1.78997e-05,6.04631e-07,5.47001e-05,4.24286e-05,5.60001e-05,-6.94859e-06
361,1.69888e-05,5.16223e-06,5.41874e-05,4.36974e-05,5.82727e-05,-3.33427e-06
362,1.23213e-05,1.2129e-06,5.10047e-05,3.98232e-05,4.92576e-05,-5.35394e-06
363,7.74045e-06,-8.63205e-06,4.36566e-05,3.40918e-05,3.84381e-05,-1.58672e-05
364,5.5903e-06,-1.83578e-05,3.6267e-05,2.94271e-05,3.13269e-05,-2.66493e-05
365,4.99618e-06,-1.35968e-05,3.71881e-05,3.16651e-05,2.87205e-05,-3.36809e-05
366,4.37144e-06,4.3146e-08,4.43958e-05,3.84376e-05,3.18209e-05,-3.94321e-05
367,3.31515e-06,3.32252e-06,4.8769e-05,4.05954e-05,3.9015e-05,-4.20123e-05
368,3.0107e-06,7.36208e-08,4.77327e-05,3.84467e-05,4.26774e-05,-3.44545e-05
369,6.44366e-06,-4.24651e-07,4.44511e-05,3.42573e-05,4.05153e-05,-1.84725e-05
370,1.30406e-05,-9.0683e-07,4.38149e-05,3.00738e-05,3.6524e-05,-5.06853e-06
371,1.78464e-05,-6.14504e-06,5.04058e-05,2.76747e-05,3.43688e-05,3.58289e-06
372,1.64057e-05,-1.57077e-05,5.96393e-05,2.54187e-05,3.68742e-05,1.34806e-05
373,1.27899e-05,-1.87052e-05,6.25612e-05,2.55843e-05,4.58127e-05,2.23841e-05
374,1.25116e-05,-1.09002e-05,5.83739e-05,2.91623e-05,5.50553e-05,2.19979e-05
375,1.73121e-05,-3.10537e-06,5.05261e-05,3.1737e-05,5.19723e-05,1.20528e-05
376,2.28085e-05,-2.38381e-06,4.48124e-05,2.93501e-05,3.16743e-05,-3.69952e-07
377,2.4587e-05,-6.41848e-06,4.79652e-05,2.24642e-05,2.3738e-06,-9.11436e-06
378,2.1603e-05,-1.29899e-05,5.43545e-05,1.48257e-05,-1.41744e-05,-1.31575e-05
379,1.67853e-05,-1.66335e-05,5.54464e-05,1.27248e-05,-9.53232e-06,-1.45148e-05
380,1.49052e-05,-1.17788e-05,5.57922e-05,1.84818e-05,3.50228e-07,-1.4251e-05
381,1.79801e-05,-3.09685e-06,5.8535e-05,2.5458e-05,3.1891e-06,-1.28769e-05
382,2.27239e-05,-2.25547e-07,6.00862e-05,2.68523e-05,-2.91357e-06,-1.03469e-05
383,2.73165e-05,-4.86584e-06,5.63155e-05,2.44354e-05,-1.15096e-05,-7.72812e-06
384,3.02813e-05,-1.22335e-05,4.81857e-05,2.22016e-05,-1.51154e-05,-6.92848e-06
385,2.99301e-05,-1.51119e-05,4.39293e-05,2.1259e-05,-1.483e-05,-7.05116e-06
386,2.49615e-05,-7.7516e-06,4.76366e-05,2.37488e-05,-1.26085e-05,-6.0545e-06
387,1.77617e-05,4.73447e-06,5.27631e-05,3.04186e-05,-7.66174e-06,-3.92874e-06
388,1.32366e-05,1.18344e-05,5.3484e-05,3.96924e-05,-2.12957e-06,-2.21672e-06
389,1.29365e-05,1.08388e-05,4.99991e-05,4.7943e-05,1.37549e-06,-2.91811e-06
390,1.57025e-05,2.45749e-06,4.62337e-05,5.04858e-05,5.11278e-06,-4.37144e-06
391,1.5591e-05,-9.09689e-06,4.60139e-05,4.73935e-05,9.27445e-06,-4.81459e-06
392,1.12765e-05,-9.16891e-06,5.04408e-05,4.3918e-05,1.73891e-05,-6.49761e-06
393,7.87899e-06,-6.77629e-07,5.3498e-05,4.12722e-05,3.2706e-05,-1.07175e-05
394,7.09713e-06,5.41382e-07,5.19543e-05,3.76676e-05,4.72996e-05,-1.7506e-05
395,6.1483e-06,-1.34297e-06,4.92111e-05,3.44313e-05,5.14575e-05,-2.47536e-05
396,5.02648e-06,-1.46113e-06,4.58216e-05,3.43868e-05,4.68775e-05,-2.95029e-05
397,4.55684e-06,-2.86134e-06,4.37152e-05,3.81429e-05,3.61001e-05,-3.04867e-05
398,3.83945e-06,-6.20153e-06,4.74719e-05,4.20564e-05,1.69205e-05,-2.69185e-05
399,4.02748e-06,-1.33151e-05,5.50749e-05,4.31498e-05,-7.42177e-06,-1.96317e-05
400,5.66666e-06,-1.87539e-05,5.98924e-05,4.37314e-05,-3.28752e-05,-1.35461e-05
401,4.48678e-06,-1.45734e-05,6.17818e-05,4.63398e-05,-5.7281e-05,-1.15549e-05
402,9.17651e-07,-3.63789e-06,5.90818e-05,4.85149e-05,-7.0022e-05,-8.41789e-06
403,-3.62037e-07,5.65862e-06,5.41166e-05,4.73666e-05,-6.03226e-05,-2.97191e-06
404,-1.66402e-06,7.71482e-06,5.3657e-05,4.52084e-05,-3.7166e-05,5.01234e-07
405,-5.11396e-06,1.47475e-06,5.49863e-05,4.3902e-05,-1.41417e-05,2.07538e-06
406,-7.36217e-06,-5.34047e-06,5.27133e-05,4.36051e-05,2.19166e-06,3.91009e-06
407,-8.93365e-06,-3.73629e-06,4.90395e-05,4.49489e-05,5.29843e-06,7.54572e-06
408,-8.04567e-06,2.19589e-06,4.87747e-05,4.578e-05,-4.69553e-07,1.19475e-05
409,-5.39292e-06,1.52152e-06,4.84284e-05,4.25551e-05,-6.56735e-06,1.31383e-05
410,-5.18558e-06,-6.70024e-06,4.47024e-05,3.64593e-05,-8.74089e-06,1.03926e-05
411,-4.92759e-06,-1.62248e-05,3.8986e-05,3.16518e-05,-7.41963e-06,9.11256e-06
412,-6.83884e-06,-2.05715e-05,3.81443e-05,3.04894e-05,-4.58419e-06,1.01302e-05
413,-1.11517e-05,-1.49816e-05,4.78739e-05,3.27992e-05,3.30057e-06,8.17654e-06
414,-1.28548e-05,-4.82634e-06,5.9147e-05,3.61143e-05,1.27795e-05,2.87196e-06
415,-9.73082e-06,-2.50766e-07,6.45802e-05,3.88515e-05,1.61485e-05,-2.35237e-06
416,-4.05077e-06,-3.63437e-06,6.41052e-05,4.07664e-05,1.72178e-05,-9.12027e-06
417,1.09588e-06,-1.34847e-05,5.95041e-05,4.06093e-05,2.09987e-05,-2.09959e-05
418,5.37982e-06,-2.29287e-05,5.59752e-05,3.7474e-05,2.34089e-05,-3.1718e-05
419,9.45814e-06,-2.00152e-05,6.04498e-05,3.58529e-05,2.34237e-05,-3.11316e-05
420,1.3509e-05,-9.67632e-06,6.87169e-05,3.8179e-05,2.49136e-05,-2.00475e-05
421,1.55092e-05,-5.04204e-06,6.95656e-05,4.03825e-05,2.99092e-05,-7.33591e-06
422,1.687e-05,-5.33547e-06,6.25615e-05,4.08393e-05,3.68359e-05,9.95901e-07
423,1.90796e-05,-5.74909e-06,5.67531e-05,4.14064e-05,4.43251e-05,5.3667e-06
424,2.12276e-05,-4.07712e-06,5.50462e-05,4.54652e-05,4.93538e-05,7.28495e-06
425,2.14543e-05,-4.09045e-06,5.46541e-05,5.13856e-05,5.37388e-05,6.44898e-06
426,1.98903e-05,-1.16372e-05,5.50583e-05,5.3074e-05,6.54646e-05,2.69493e-06
427,1.88235e-05,-1.79995e-05,5.45464e-05,5.06789e-05,8.09546e-05,-1.79622e-06
428,2.01594e-05,-1.30924e-05,5.18458e-05,4.78003e-05,8.21167e-05,-3.04418e-06
429,2.23676e-05,-3.88091e-06,4.783e-05,4.41262e-05,6.13493e-05,-3.30693e-07
430,2.01538e-05,-6.47942e-07,4.5143e-05,3.88454e-05,2.8552e-05,1.98678e-06
431,1.4599e-05,-4.43146e-06,4.64257e-05,3.52786e-05,-4.97922e-06,4.11677e-07
432,9.05076e-06,-1.17549e-05,4.9265e-05,3.50199e-05,-2.71896e-05,-1.76012e-06
433,6.03454e-06,-1.55121e-05,4.86114e-05,3.73116e-05,-3.69624e-05,-1.06401e-06
434,7.14927e-06,-1.20186e-05,4.38042e-05,4.13977e-05,-4.41514e-05,5.59151e-07
435,1.16853e-05,-6.40207e-06,4.04786e-05,4.60757e-05,-3.93149e-05,-7.44863e-07
436,1.52848e-05,-4.23364e-06,4.32177e-05,4.91995e-05,-1.49059e-05,-5.17901e-06
437,1.4128e-05,-6.47538e-06,4.95515e-05,4.82644e-05,1.77946e-05,-8.66217e-06
438,1.23374e-05,-1.36607e-05,5.35895e-05,4.21657e-05,5.47697e-05,-7.91016e-06
439,1.03594e-05,-2.10832e-05,5.24782e-05,3.6729e-05,9.73674e-05,-5.58481e-06
440,7.45857e-06,-1.85234e-05,5.19568e-05,4.10338e-05,0.000134891,-4.2887e-06
441,5.75375e-06,-7.46308e-06,5.41886e-05,4.97308e-05,0.000142363,-2.02256e-06
442,5.29458e-06,-2.98615e-07,5.55993e-05,5.11738e-05,0.000107367,3.86211e-07
443,5.09893e-06,-2.65552e-06,5.22592e-05,4.60501e-05,4.85332e-05,-9.48627e-07
444,7.02313e-06,-1.26645e-05,4.8379e-05,3.9323e-05,2.77277e-06,-7.11089e-06
445,8.90121e-06,-2.22594e-05,4.89903e-05,3.42904e-05,-1.17822e-05,-1.52734e-05
446,7.22008e-06,-1.71632e-05,5.28653e-05,3.52274e-05,-5.45303e-06,-2.01542e-05
447,2.15275e-06,-3.10243e-06,5.52885e-05,4.01517e-05,2.52138e-06,-1.68597e-05
448,-3.4347e-06,1.10333e-06,5.54126e-05,4.25926e-05,-5.79961e-07,-1.02089e-05
449,-4.84459e-06,-3.52454e-06,5.46694e-05,4.24795e-05,-1.09774e-05,-1.38423e-05
450,-7.38615e-07,-9.95914e-06,5.02793e-05,4.0499e-05,-1.55051e-05,-2.53076e-05
451,6.66179e-06,-1.37269e-05,4.51047e-05,3.67824e-05,-1.39983e-05,-3.16433e-05
452,1.37932e-05,-1.40712e-05,4.64201e-05,3.42705e-05,-1.79733e-05,-3.14063e-05
453,1.82861e-05,-1.785e-05,5.36279e-05,3.11204e-05,-2.64552e-05,-2.8748e-05
454,1.92057e-05,-2.04346e-05,5.90472e-05,2.98968e-05,-2.48013e-05,-2.85907e-05
455,1.97966e-05,-1.25953e-05,5.95669e-05,3.3901e-05,-9.1943e-06,-3.1028e-05
456,2.39065e-05,-4.34806e-07,5.37331e-05,3.94439e-05,7.91861e-06,-3.18999e-05
457,2.98624e-05,3.26513e-06,4.6188e-05,4.27151e-05,1.4537e-05,-3.06012e-05
458,2.95209e-05,-3.08101e-06,4.30267e-05,4.15562e-05,1.06245e-05,-2.98733e-05
459,2.58414e-05,-1.28534e-05,4.21343e-05,3.59899e-05,1.06923e-05,-2.96162e-05
460,2.68291e-05,-1.70385e-05,4.2581e-05,2.96734e-05,2.01564e-05,-2.85721e-05
461,3.05667e-05,-1.09604e-05,4.61377e-05,2.85749e-05,2.67995e-05,-2.61126e-05
462,3.2494e-05,-1.18058e-06,5.31262e-05,3.31787e-05,3.0746e-05,-2.13992e-05
463,3.13946e-05,2.30345e-06,5.95646e-05,3.85922e-05,3.40848e-05,-1.53374e-05
464,2.83201e-05,-1.25719e-06,6.11306e-05,3.99738e-05,3.16634e-05,-9.10373e-06
465,2.6589e-05,-8.567e-06,5.74712e-05,3.571e-05,2.62192e-05,-2.25002e-06
466,2.64305e-05,-1.55573e-05,5.12486e-05,3.14073e-05,1.48318e-05,4.55388e-06
467,2.31528e-05,-1.49812e-05,5.086e-05,3.3959e-05,3.31254e-06,7.6771e-06
468,1.7237e-05,-8.24015e-06,5.54618e-05,3.97526e-05,5.78412e-07,3.86966e-06
469,1.4727e-05,-4.66828e-06,5.9076e-05,4.11523e-05,6.84067e-06,-6.02638e-06
470,1.52283e-05,-7.6507e-06,5.86947e-05,3.84488e-05,1.64045e-05,-1.60261e-05
471,1.49148e-05,-1.77958e-05,5.71267e-05,3.41416e-05,2.18048e-05,-1.86708e-05
472,1.30284e-05,-2.99843e-05,5.73196e-05,2.8959e-05,2.07032e-05,-1.1865e-05
473,1.11988e-05,-2.69357e-05,5.83411e-05,2.85491e-05,1.69929e-05,-5.35975e-06
474,9.62957e-06,-1.0646e-05,5.88184e-05,3.37522e-05,1.83716e-05,-7.90458e-06
475,6.56808e-06,-1.3116e-06,5.81383e-05,3.82968e-05,2.7137e-05,-1.27936e-05
476,4.07954e-06,-1.32836e-06,5.65177e-05,4.08639e-05,3.91e-05,-9.99273e-06
477,4.0221e-06,-2.09303e-06,5.1674e-05,4.18842e-05,4.6168e-05,-2.83193e-06
478,4.96824e-06,-7.81225e-07,4.87089e-05,4.14239e-05,4.10928e-05,1.38449e-06
479,4.49668e-06,-3.05724e-06,5.28199e-05,3.82307e-05,2.80117e-05,3.39107e-06
480,3.32297e-06,-1.34611e-05,5.87474e-05,3.07977e-05,2.13884e-05,4.5528e-06
481,2.8032e-06,-1.98323e-05,6.04494e-05,2.44106e-05,2.12582e-05,3.13397e-06
482,4.60979e-06,-1.17598e-05,5.97725e-05,2.58406e-05,1.89727e-05,-7.79652e-07
483,8.50288e-06,1.16387e-06,5.66735e-05,3.28084e-05,1.2806e-05,-4.65928e-06
484,1.11787e-05,5.6584e-06,5.30228e-05,3.81631e-05,5.8254e-06,-7.18993e-06
485,9.84809e-06,1.40911e-07,5.29006e-05,3.7268e-05,-7.5037e-07,-8.91044e-06
486,8.91041e-06,-9.49867e-06,5.17401e-05,3.01305e-05,-2.94493e-06,-1.12785e-05
487,8.91494e-06,-1.28772e-05,4.74214e-05,2.36612e-05,6.75082e-06,-1.55461e-05
488,7.15542e-06,-4.93201e-06,4.33145e-05,2.44246e-05,2.3817e-05,-1.92378e-05
489,7.08215e-06,5.43427e-06,4.37017e-05,3.0002e-05,4.27312e-05,-1.97858e-05
490,9.62712e-06,7.25914e-06,4.71201e-05,3.31341e-05,6.15976e-05,-1.88532e-05
491,1.30114e-05,8.84233e-07,4.53482e-05,3.09006e-05,7.30305e-05,-1.7819e-05
492,1.63641e-05,-8.76544e-06,3.60807e-05,2.66294e-05,7.77167e-05,-1.48665e-05
493,1.754e-05,-1.49737e-05,3.0539e-05,2.78181e-05,7.27551e-05,-1.03372e-05
494,1.29969e-05,-9.76149e-06,3.81192e-05,3.80774e-05,5.58934e-05,-7.62006e-06
495,7.20526e-06,1.04151e-06,4.82193e-05,4.99142e-05,3.81977e-05,-1.44957e-06
496,6.24775e-06,5.16036e-06,5.50292e-05,5.47546e-05,2.42463e-05,1.58872e-05
497,6.70421e-06,2.12684e-06,5.44894e-05,5.17619e-05,1.03576e-05,3.30116e-05
498,6.12481e-06,-6.76986e-06,4.6197e-05,4.46162e-05,-4.11437e-06,3.46894e-05
499,4.90522e-06,-1.76436e-05,4.00866e-05,4.11306e-05,-1.92959e-05,2.29902e-05
500,2.61533e-06,-1.60785e-05,4.40371e-05,4.45877e-05,-3.36468e-05,7.1801e-06
501,2.28e-06,-6.42626e-06,5.1606e-05,4.67177e-05,-3.634e-05,-3.47568e-06
502,5.46205e-06,-4.01706e-06,5.17341e-05,4.24881e-05,-2.08928e-05,-5.22657e-06
503,1.03727e-05,-5.01593e-06,4.70726e-05,3.89725e-05,1.0995e-06,-2.07326e-06
504,1.34349e-05,-2.86843e-06,4.26617e-05,3.9951e-05,1.46919e-05,1.08581e-06
505,1.44611e-05,-5.39646e-07,4.17304e-05,3.83122e-05,1.51033e-05,2.13016e-06
506,1.48609e-05,-3.03232e-06,4.43287e-05,3.20042e-05,9.50247e-06,1.15314e-06
507,1.46236e-05,-1.07585e-05,4.75624e-05,2.56247e-05,8.71802e-06,-9.0479e-07
508,1.18446e-05,-1.49903e-05,4.65915e-05,2.24097e-05,1.08895e-05,-2.05806e-06
509,8.45064e-06,-9.52077e-06,4.26638e-05,2.22158e-05,8.17841e-06,-2.06182e-06
510,8.81909e-06,-1.13197e-06,3.91483e-05,2.0142e-05,1.61378e-06,-2.43048e-06
511,1.04643e-05,2.15675e-06,3.81171e-05,1.44993e-05,-4.70547e-06,-4.33023e-06
512,7.74068e-06,-1.24895e-07,4.01359e-05,1.06703e-05,-1.19619e-05,-7.71951e-06
513,2.84243e-06,-7.22276e-06,4.0301e-05,1.24431e-05,-1.7308e-05,-1.03008e-05
514,1.15842e-06,-1.38922e-05,3.92851e-05,1.8804e-05,-1.60586e-05,-1.12027e-05
515,1.61261e-06,-1.22701e-05,3.767e-05,2.73607e-05,-1.49176e-05,-1.16389e-05
516,3.68927e-06,-5.81001e-06,3.64935e-05,3.31978e-05,-1.53945e-05,-1.28045e-05
517,2.54648e-06,-5.01466e-06,4.16486e-05,3.30013e-05,-1.3467e-05,-1.57811e-05
518,2.13875e-06,-1.19903e-05,4.52539e-05,3.03624e-05,-1.08363e-05,-2.06483e-05
519,6.41352e-06,-2.21779e-05,4.25808e-05,2.80945e-05,-1.03361e-05,-2.53382e-05
520,8.43876e-06,-2.86332e-05,4.13336e-05,2.64948e-05,-1.55913e-05,-2.78804e-05
521,7.08935e-06,-2.43484e-05,4.68079e-05,2.78429e-05,-2.14729e-05,-2.80785e-05
522,6.06298e-06,-1.35509e-05,5.06628e-05,3.25076e-05,-2.08004e-05,-2.61677e-05
523,7.5504e-06,-5.84161e-06,5.04388e-05,3.68288e-05,-1.37131e-05,-2.25463e-05
524,1.01101e-05,-3.98328e-06,5.05169e-05,3.71142e-05,-7.74369e-06,-1.86461e-05
525,1.23082e-05,-1.01202e-05,5.19337e-05,3.34616e-05,-6.55824e-06,-1.55291e-05
526,1.28814e-05,-2.04049e-05,5.22973e-05,3.3097e-05,-1.00936e-05,-1.44978e-05
527,1.15729e-05,-1.89432e-05,5.27174e-05,4.14738e-05,-1.43392e-05,-1.35977e-05
528,9.79322e-06,-6.50402e-06,5.58451e-05,4.99192e-05,-1.42615e-05,-4.51954e-06
529,9.63361e-06,4.17264e-07,5.67344e-05,4.9756e-05,-1.09062e-05,1.30008e-05
530,1.07404e-05,1.96306e-06,5.27856e-05,4.58843e-05,-9.66973e-06,2.48027e-05
531,1.22692e-05,3.62666e-06,4.83523e-05,4.35764e-05,-1.16711e-05,2.01653e-05
532,1.43354e-05,5.18029e-06,5.11668e-05,4.18786e-05,-1.28399e-05,7.23645e-06
533,1.56985e-05,3.28277e-06,5.97891e-05,3.86417e-05,-1.06639e-05,-2.32004e-06
534,1.28195e-05,-7.05584e-06,6.61035e-05,3.3296e-05,4.15055e-06,-6.82836e-06
535,6.78932e-06,-1.66608e-05,6.59581e-05,2.94342e-05,3.50085e-05,-1.00509e-05
536,4.94484e-06,-1.29581e-05,6.14641e-05,3.07787e-05,5.84585e-05,-1.5523e-05
537,9.92908e-06,-2.60549e-06,5.66492e-05,3.63873e-05,5.7108e-05,-2.36076e-05
538,1.55052e-05,1.8441e-07,5.65993e-05,4.21219e-05,4.23228e-05,-3.28147e-05
539,1.54538e-05,-7.4376e-06,5.82935e-05,4.34131e-05,2.44368e-05,-3.84429e-05
540,1.30534e-05,-1.86087e-05,5.92514e-05,3.90352e-05,1.35874e-05,-3.70946e-05
541,1.24374e-05,-2.1965e-05,6.20718e-05,3.48114e-05,9.79823e-06,-2.98342e-05
542,1.31126e-05,-1.25651e-05,6.91386e-05,3.58116e-05,-8.96267e-07,-2.00243e-05
543,1.80553e-05,1.27911e-06,7.52965e-05,3.91782e-05,-2.27735e-05,-1.18139e-05
544,2.57731e-05,7.29447e-06,7.5164e-05,4.02768e-05,-4.26758e-05,-8.47764e-06
545,2.98575e-05,2.16567e-06,6.94617e-05,3.7902e-05,-4.09542e-05,-7.38464e-06
546,2.98449e-05,-9.59151e-06,6.13746e-05,3.16587e-05,-1.7368e-05,-4.32953e-06
547,2.78548e-05,-1.77763e-05,5.43329e-05,2.54993e-05,8.07191e-06,-1.55992e-06
548,2.42859e-05,-1.32119e-05,5.25005e-05,2.59931e-05,2.41792e-05,-1.17105e-06
549,2.17525e-05,-2.19458e-06,5.28247e-05,3.1594e-05,3.54982e-05,-9.44362e-07
550,2.3419e-05,2.03068e-06,5.0819e-05,3.42339e-05,4.27707e-05,-1.92042e-06
551,2.72485e-05,-3.1085e-06,4.61301e-05,3.21176e-05,3.81346e-05,-5.61035e-06
552,3.0897e-05,-1.32771e-05,4.22255e-05,2.97432e-05,2.22445e-05,-5.9964e-06
553,3.21218e-05,-2.15148e-05,4.24817e-05,2.96982e-05,6.38339e-06,4.63926e-07
554,3.13189e-05,-1.65109e-05,4.66341e-05,3.54781e-05,2.49019e-06,4.97547e-06
555,3.09393e-05,-3.84292e-06,5.18864e-05,4.24077e-05,1.34075e-05,-4.16227e-06
556,3.20673e-05,1.11337e-06,5.32739e-05,4.17672e-05,2.87572e-05,-2.08205e-05
557,3.30387e-05,8.51218e-07,5.0405e-05,3.81759e-05,3.38487e-05,-2.86897e-05
558,3.08149e-05,3.1834e-07,4.5702e-05,3.5087e-05,2.72574e-05,-2.54212e-05
559,2.73966e-05,-1.29714e-06,4.52029e-05,3.37285e-05,1.89912e-05,-1.76354e-05
560,2.45249e-05,-5.26204e-06,4.95552e-05,3.3101e-05,1.46966e-05,-1.10696e-05
561,2.10299e-05,-1.26924e-05,5.54712e-05,2.87599e-05,1.50417e-05,-1.00332e-05
562,1.645e-05,-1.60813e-05,6.05825e-05,2.52688e-05,2.16001e-05,-1.44541e-05
563,1.15501e-05,-1.00578e-05,6.33019e-05,2.61719e-05,3.06687e-05,-1.76326e-05
564,1.04442e-05,-1.82337e-06,6.01545e-05,2.90781e-05,3.1517e-05,-1.40626e-05
565,1.25891e-05,2.41371e-08,5.38918e-05,3.18599e-05,2.16994e-05,-6.57891e-06
566,1.09235e-05,-6.62111e-06,5.28269e-05,3.51714e-05,6.65174e-06,-9.67919e-07
567,6.45608e-06,-1.8727e-05,5.66759e-05,3.83842e-05,-2.06503e-06,-3.13812e-07
568,5.67117e-06,-2.71798e-05,6.07686e-05,4.15342e-05,-1.13926e-06,-1.09018e-06
569,9.96591e-06,-2.52672e-05,6.13321e-05,4.45948e-05,-5.77216e-07,1.5776e-06
570,1.13109e-05,-1.76268e-05,5.6251e-05,4.60401e-05,-2.71553e-06,5.60227e-06
571,7.63134e-06,-1.26895e-05,5.08309e-05,4.36912e-05,-2.75192e-06,5.63978e-06
572,7.00486e-06,-1.22843e-05,4.68914e-05,3.83058e-05,-2.98784e-07,4.36696e-06
573,1.06385e-05,-1.54246e-05,4.46522e-05,3.34384e-05,2.33715e-06,7.21258e-06
574,1.21704e-05,-1.70455e-05,4.64466e-05,3.23607e-05,6.32921e-06,9.95235e-06
575,8.55856e-06,-8.55839e-06,5.18823e-05,3.71861e-05,1.45403e-05,6.09913e-06
576,3.63796e-06,6.13294e-06,5.55699e-05,4.37072e-05,2.46424e-05,-2.53722e-06
577,-7.58681e-07,1.39218e-05,5.65029e-05,4.60016e-05,3.02176e-05,-1.03959e-05
578,-4.77601e-06,1.08301e-05,5.42587e-05,4.38276e-05,2.77667e-05,-1.38565e-05
579,-7.67221e-06,9.08312e-08,4.9286e-05,3.81705e-05,1.73899e-05,-1.49776e-05
580,-8.65265e-06,-9.96886e-06,4.67265e-05,3.24419e-05,2.14975e-06,-1.84813e-05
581,-8.17806e-06,-7.03989e-06,4.7988e-05,3.76382e-05,-8.31528e-06,-2.02059e-05
582,-6.27972e-06,3.01326e-06,5.0083e-05,5.03642e-05,-8.04176e-06,-1.39077e-05
583,-4.22486e-06,6.70842e-06,5.09307e-05,5.56283e-05,-1.16042e-06,-5.19754e-06
584,-2.10619e-06,5.25274e-06,5.20798e-05,5.20749e-05,7.60096e-06,-4.68715e-06
585,9.771e-08,2.80552e-06,5.27643e-05,4.56594e-05,1.84365e-05,-1.19523e-05
586,-5.81188e-07,2.7072e-06,5.19249e-05,4.1349e-05,3.16396e-05,-1.51426e-05
587,-4.57785e-06,2.57905e-06,5.14332e-05,3.80789e-05,5.09001e-05,-1.05592e-05
588,-6.762e-06,-4.13971e-06,5.3239e-05,3.25446e-05,7.94277e-05,-7.3977e-06
589,-3.23436e-06,-8.57268e-06,5.4353e-05,3.11507e-05,0.000104229,-9.16162e-06
590,1.75669e-06,-1.32003e-06,5.37677e-05,3.77282e-05,0.000113179,-1.27364e-05
591,3.94914e-06,9.34271e-06,5.02384e-05,4.53263e-05,0.000110988,-1.77985e-05
592,5.87528e-06,1.31597e-05,4.5408e-05,4.77903e-05,0.000102457,-2.44715e-05
593,8.43883e-06,8.65536e-06,4.51289e-05,4.64368e-05,8.20312e-05,-2.88938e-05
594,9.45438e-06,-9.65809e-07,5.13774e-05,4.31672e-05,5.29306e-05,-3.09649e-05
595,1.16522e-05,-7.92178e-06,5.88198e-05,4.07635e-05,2.98665e-05,-3.35976e-05
596,1.27166e-05,-6.58133e-06,6.21104e-05,4.12976e-05,1.75718e-05,-3.43707e-05
597,9.78943e-06,-1.30014e-06,6.00802e-05,4.15561e-05,9.2435e-06,-2.88373e-05
598,7.22742e-06,1.03829e-06,5.36188e-05,3.95741e-05,-6.13936e-06,-1.81724e-05
599,7.87944e-06,-1.37828e-06,4.59264e-05,3.79979e-05,-2.58187e-05,-7.80811e-06
600,1.07719e-05,-8.192e-06,4.17911e-05,3.67831e-05,-3.07923e-05,-2.34751e-06
601,1.21503e-05,-1.4124e-05,4.18499e-05,3.51042e-05,-1.45662e-05,-2.84789e-06
602,1.01974e-05,-1.06732e-05,4.69641e-05,3.60567e-05,5.1289e-06,-5.59165e-06
603,8.55068e-06,-1.77396e-06,5.47132e-05,3.7769e-05,1.43382e-05,-7.19705e-06
604,1.08911e-05,1.66849e-06,5.92261e-05,3.6285e-05,1.43168e-05,-8.16373e-06
605,1.57857e-05,-2.25331e-06,5.67107e-05,3.5002e-05,8.00025e-06,-1.00645e-05
606,1.90199e-05,-1.48184e-05,5.02481e-05,3.56433e-05,-5.43404e-06,-1.0674e-05
607,1.71756e-05,-2.98206e-05,4.75978e-05,3.61452e-05,-2.52886e-05,-1.02042e-05
608,1.20214e-05,-2.75111e-05,4.78367e-05,3.98596e-05,-3.69641e-05,-1.01505e-05
609,9.16321e-06,-1.21561e-05,4.72278e-05,4.49347e-05,-2.62058e-05,-1.11052e-05
610,9.4553e-06,-4.63332e-06,4.78562e-05,4.59756e-05,-5.89941e-07,-1.52376e-05
611,9.43494e-06,-5.05616e-06,5.13795e-05,4.68173e-05,1.9221e-05,-1.88289e-05
612,7.37977e-06,-7.15842e-06,5.37495e-05,5.11465e-05,2.52259e-05,-1.87272e-05
613,4.39656e-06,-9.20313e-06,5.41085e-05,5.43817e-05,2.34406e-05,-1.79227e-05
614,3.45881e-06,-1.20761e-05,5.55195e-05,5.16914e-05,2.1589e-05,-1.73939e-05
615,5.81585e-06,-2.06674e-05,5.67965e-05,4.5517e-05,2.4462e-05,-1.66636e-05
616,7.95875e-06,-2.91914e-05,5.45251e-05,4.33014e-05,3.22627e-05,-1.81348e-05
617,8.87219e-06,-2.69895e-05,4.9756e-05,4.64242e-05,3.69175e-05,-2.2912e-05
618,1.04193e-05,-1.83623e-05,4.41379e-05,4.99027e-05,3.40383e-05,-2.72737e-05
619,1.18771e-05,-1.26744e-05,4.06222e-05,5.10479e-05,2.64955e-05,-2.85059e-05
620,1.2872e-05,-1.20293e-05,4.40482e-05,5.04464e-05,1.78421e-05,-2.63202e-05
621,1.50018e-05,-1.56249e-05,5.15398e-05,4.8467e-05,1.60587e-05,-2.12956e-05
622,1.79694e-05,-1.84563e-05,5.12122e-05,4.63954e-05,2.13879e-05,-1.55113e-05
623,2.05232e-05,-1.51461e-05,4.54489e-05,4.70067e-05,2.46258e-05,-8.65531e-06
624,2.40292e-05,-8.15798e-06,4.51837e-05,4.94295e-05,3.1157e-05,1.44304e-06
625,2.53695e-05,-4.36141e-06,5.0064e-05,5.00073e-05,5.14e-05,1.15616e-05
626,2.37482e-05,-7.84289e-06,5.42413e-05,4.74545e-05,8.05172e-05,1.71053e-05
627,2.13763e-05,-1.73235e-05,5.35218e-05,4.24986e-05,9.52326e-05,2.02663e-05
628,1.73638e-05,-2.37158e-05,5.36742e-05,3.85171e-05,7.97375e-05,2.1266e-05
629,1.19189e-05,-1.73915e-05,5.86949e-05,4.05825e-05,5.0562e-05,1.42881e-05
630,7.33056e-06,-3.68434e-06,6.28862e-05,4.65322e-05,2.95491e-05,9.00534e-07
631,6.88709e-06,3.28201e-06,6.38131e-05,4.77968e-05,1.77547e-05,-1.12411e-05
632,9.74328e-06,-9.76359e-07,6.07048e-05,4.2698e-05,1.79151e-06,-1.949e-05
633,1.34413e-05,-1.36347e-05,5.33477e-05,3.66169e-05,-3.02341e-05,-2.2941e-05
634,1.43621e-05,-2.50648e-05,4.70844e-05,3.52676e-05,-8.07241e-05,-2.05014e-05
635,1.25727e-05,-2.04977e-05,4.83977e-05,4.07144e-05,-0.000121875,-1.26986e-05
636,9.5446e-06,-8.2433e-06,5.46497e-05,4.48431e-05,-0.000119622,-2.96535e-06
637,6.45487e-06,-5.3598e-06,5.99355e-05,4.18064e-05,-7.82318e-05,1.65908e-06
638,6.31036e-06,-6.48191e-06,6.0674e-05,3.77822e-05,-3.23819e-05,-1.13451e-06
639,1.0495e-05,-4.95275e-06,5.63097e-05,3.64772e-05,-4.83733e-07,-6.86349e-06
640,1.64167e-05,-3.93808e-06,5.16953e-05,3.65099e-05,2.28784e-05,-1.03326e-05
641,1.96549e-05,-7.49545e-06,5.26683e-05,3.83502e-05,4.47353e-05,-9.52796e-06
642,1.93946e-05,-1.65753e-05,5.80281e-05,4.04518e-05,6.50524e-05,-9.72193e-06
643,1.79259e-05,-2.2626e-05,5.94285e-05,3.93607e-05,8.14425e-05,-1.59497e-05
644,1.68445e-05,-1.59032e-05,5.3253e-05,3.42622e-05,9.0751e-05,-2.27101e-05
645,1.68819e-05,-3.67623e-06,4.26613e-05,2.89081e-05,8.43064e-05,-2.2048e-05
646,1.83314e-05,2.83109e-06,3.74109e-05,2.69056e-05,6.34372e-05,-1.36113e-05
647,1.76147e-05,4.06193e-06,4.27932e-05,2.58888e-05,4.16652e-05,-4.6451e-06
648,1.34118e-05,2.22058e-06,4.91971e-05,2.28528e-05,3.36044e-05,-2.72718e-06
649,8.58014e-06,1.36691e-06,5.13783e-05,2.19301e-05,3.40444e-05,-7.64855e-06
650,6.59698e-06,6.7136e-06,5.22984e-05,2.84265e-05,2.79967e-05,-1.35248e-05
651,9.31954e-06,1.57763e-05,5.17869e-05,3.91836e-05,1.83747e-05,-1.50959e-05
652,1.47605e-05,1.99908e-05,4.97458e-05,4.7284e-05,1.44759e-05,-1.33071e-05
653,1.71458e-05,1.53794e-05,4.64457e-05,4.95526e-05,2.02332e-05,-1.26594e-05
654,1.71136e-05,4.3661e-06,4.16597e-05,4.65316e-05,3.23275e-05,-1.4544e-05
655,1.85084e-05,-4.27689e-06,3.98251e-05,4.27724e-05,3.96411e-05,-1.73024e-05
656,2.05254e-05,-3.25004e-07,4.35262e-05,4.26109e-05,3.6616e-05,-1.86295e-05
657,2.13926e-05,1.23908e-05,4.67651e-05,4.39249e-05,3.01441e-05,-1.70594e-05
658,2.30814e-05,1.91945e-05,4.75771e-05,4.31354e-05,2.65067e-05,-1.47746e-05
659,2.72387e-05,1.46598e-05,4.50537e-05,4.1238e-05,2.58559e-05,-1.27074e-05
660,3.22466e-05,3.1617e-06,4.11717e-05,3.96564e-05,2.441e-05,-9.32705e-06
661,3.2767e-05,-6.06343e-06,4.22948e-05,3.91586e-05,1.01416e-05,-6.8013e-06
662,2.66703e-05,-1.6147e-06,4.92395e-05,4.25115e-05,-1.64128e-05,-5.6006e-06
663,2.04512e-05,9.41566e-06,5.51204e-05,4.4745e-05,-3.57555e-05,-4.55404e-06
664,1.86831e-05,1.2003e-05,5.61854e-05,4.0467e-05,-3.38202e-05,-4.74202e-06
665,2.14871e-05,8.73064e-06,5.36367e-05,3.51732e-05,-1.81948e-05,-5.63428e-06
666,2.57851e-05,5.2624e-06,4.89642e-05,3.45555e-05,-5.6739e-06,-6.40696e-06
667,2.81178e-05,2.41125e-06,4.46981e-05,3.72998e-05,-9.19721e-06,-6.2758e-06
668,2.62778e-05,-1.82919e-06,4.42459e-05,3.53688e-05,-2.59146e-05,-4.65159e-06
669,2.37268e-05,-9.42368e-06,4.73411e-05,2.96574e-05,-2.89398e-05,3.67308e-07
670,2.3729e-05,-1.27252e-05,5.02356e-05,3.06715e-05,-2.55139e-06,8.5602e-06
671,2.5541e-05,-5.68174e-06,5.16711e-05,4.00071e-05,2.78158e-05,1.23337e-05
672,2.77412e-05,3.4723e-06,4.84923e-05,4.77367e-05,3.70136e-05,6.75872e-06
673,2.75859e-05,4.18773e-06,4.3564e-05,4.59427e-05,2.79123e-05,-4.56583e-06
674,2.14295e-05,-3.62299e-06,4.53619e-05,3.54365e-05,1.35922e-05,-1.30745e-05
675,1.47635e-05,-1.44587e-05,4.73449e-05,2.14962e-05,6.87e-06,-1.65773e-05
676,1.73168e-05,-1.989e-05,4.21133e-05,1.36248e-05,6.56348e-06,-2.03206e-05
677,2.15063e-05,-1.55601e-05,4.05091e-05,1.76796e-05,5.25159e-06,-2.77822e-05
678,1.61322e-05,-7.59881e-06,4.6758e-05,2.92048e-05,7.87584e-06,-3.51591e-05
679,4.79793e-06,-4.55013e-06,5.12048e-05,3.97272e-05,1.50919e-05,-3.69714e-05
680,-2.19941e-06,-8.63247e-06,5.20501e-05,4.40794e-05,1.75117e-05,-3.22449e-05
681,-8.99661e-07,-1.80188e-05,5.09055e-05,4.11092e-05,1.45231e-05,-2.18226e-05
682,1.79661e-06,-2.46043e-05,4.86724e-05,3.61921e-05,8.74151e-06,-7.84482e-06
683,1.86284e-06,-1.91595e-05,4.73936e-05,3.72319e-05,5.10547e-06,7.24376e-06
684,4.4523e-07,-8.70899e-06,4.68575e-05,4.31434e-05,7.90426e-06,1.93332e-05
685,-2.43402e-06,-5.93007e-06,4.98629e-05,4.518e-05,1.65075e-05,2.13171e-05
686,-7.40855e-06,-8.94393e-06,5.38328e-05,3.88632e-05,2.23246e-05,1.16135e-05
687,-1.25221e-05,-1.49404e-05,5.48544e-05,2.61084e-05,2.03423e-05,3.71566e-07
688,-1.35092e-05,-2.34866e-05,5.37747e-05,1.47379e-05,1.24262e-05,-4.41951e-06
689,-1.22357e-05,-2.26379e-05,5.68994e-05,1.46471e-05,4.51521e-06,-3.91386e-06
690,-1.13733e-05,-1.21479e-05,6.0282e-05,2.3845e-05,5.07286e-07,1.65833e-06
691,-1.10957e-05,-5.36159e-06,5.74997e-05,3.04336e-05,-7.50186e-07,9.30547e-06
692,-9.45282e-06,-1.7926e-06,5.1912e-05,3.0226e-05,-1.07599e-06,1.28111e-05
693,-5.8566e-06,1.69102e-06,4.82781e-05,2.82024e-05,1.15303e-06,1.25639e-05
694,-2.71348e-06,1.13558e-06,4.84065e-05,2.8848e-05,9.48707e-06,1.08524e-05
695,-2.59802e-06,-6.63982e-06,5.2777e-05,3.02219e-05,2.37305e-05,7.86513e-06
696,-2.98529e-06,-1.88294e-05,5.74635e-05,2.78982e-05,4.44913e-05,4.13022e-06
697,-7.02334e-07,-2.36786e-05,5.82078e-05,2.52177e-05,6.46092e-05,1.87324e-06
698,4.42857e-06,-1.50583e-05,5.74631e-05,2.74161e-05,6.89138e-05,1.4151e-06
699,8.80081e-06,-1.58282e-06,5.56326e-05,3.25262e-05,5.22565e-05,2.25626e-06
700,1.00777e-05,5.61675e-06,5.56386e-05,3.53949e-05,2.47036e-05,3.1804e-06
701,1.00603e-05,3.04929e-06,5.894e-05,3.38664e-05,-5.38173e-06,3.14037e-06
702,6.88322e-06,-5.56973e-06,6.11113e-05,3.04165e-05,-2.6473e-05,3.61976e-06
703,4.3152e-06,-1.09662e-05,5.87107e-05,3.28763e-05,-3.94123e-05,3.26266e-06
704,7.59304e-06,-7.11195e-06,5.6714e-05,4.40485e-05,-5.07062e-05,-9.35424e-07
705,1.12134e-05,4.63063e-07,5.60072e-05,5.55407e-05,-5.13158e-05,-8.55689e-06
706,1.14786e-05,1.99312e-06,5.50367e-05,5.87338e-05,-3.59042e-05,-1.58063e-05
707,1.19815e-05,-4.37962e-06,5.45976e-05,5.24314e-05,-1.11812e-05,-2.02539e-05
708,1.03842e-05,-1.58704e-05,4.95457e-05,4.06697e-05,1.51535e-05,-2.10761e-05
709,8.47353e-06,-2.53128e-05,4.51345e-05,3.07472e-05,3.81223e-05,-1.63728e-05
710,1.1773e-05,-2.21026e-05,4.82216e-05,2.84894e-05,5.09484e-05,-6.91813e-06
711,1.8776e-05,-7.85263e-06,5.12108e-05,3.15399e-05,5.58151e-05,-8.48501e-07
712,2.30322e-05,3.5151e-06,5.24761e-05,3.45139e-05,5.31191e-05,-7.09344e-06
713,2.1168e-05,3.6284e-06,5.3612e-05,3.633e-05,4.71648e-05,-2.2666e-05
714,1.64104e-05,-5.08836e-06,5.48308e-05,3.60008e-05,4.53246e-05,-3.31099e-05
715,1.1578e-05,-1.2862e-05,5.62958e-05,3.48361e-05,4.07027e-05,-3.15124e-05
716,6.96908e-06,-9.07401e-06,5.80001e-05,3.99254e-05,2.62102e-05,-2.62463e-05
717,4.38637e-06,-1.48294e-06,5.7605e-05,4.67292e-05,9.27955e-06,-2.63538e-05
718,6.45271e-06,-2.82059e-06,5.5676e-05,4.36581e-05,7.75123e-07,-2.93083e-05
719,1.20572e-05,-5.81201e-06,5.38034e-05,3.49319e-05,-3.78056e-06,-2.79286e-05
720,1.63703e-05,-2.98659e-06,5.25201e-05,3.23623e-05,-1.14609e-05,-2.45539e-05
721,1.60298e-05,-1.09367e-06,5.37718e-05,3.70869e-05,-1.73571e-05,-2.34946e-05
722,1.22657e-05,-7.27621e-06,5.69951e-05,3.98655e-05,-1.22096e-05,-2.17106e-05
723,8.62596e-06,-1.95871e-05,5.74356e-05,3.6272e-05,2.16042e-06,-1.77739e-05
724,6.75277e-06,-2.54248e-05,5.43201e-05,3.34349e-05,1.68685e-05,-1.51291e-05
725,6.19998e-06,-1.70081e-05,5.135e-05,3.71636e-05,2.97878e-05,-1.47489e-05
726,8.3149e-06,-3.84183e-06,4.88873e-05,4.40898e-05,4.45702e-05,-1.28551e-05
727,1.23631e-05,2.41554e-06,4.92873e-05,4.65297e-05,5.28871e-05,-9.30774e-06
728,1.31439e-05,-1.99144e-06,5.38782e-05,4.21332e-05,4.4408e-05,-8.1539e-06
729,9.81662e-06,-1.51074e-05,5.85116e-05,3.61492e-05,2.52212e-05,-1.13843e-05
730,8.77452e-06,-2.57957e-05,5.88173e-05,3.47276e-05,-6.75265e-07,-1.59872e-05
731,1.01061e-05,-2.39516e-05,5.54584e-05,3.72627e-05,-2.81901e-05,-1.70361e-05
732,1.23722e-05,-1.46036e-05,5.10603e-05,3.77835e-05,-4.72227e-05,-1.49217e-05
733,1.18003e-05,-9.03526e-06,4.76274e-05,3.41538e-05,-5.78474e-05,-1.48946e-05
734,1.05806e-05,-1.1226e-05,4.68798e-05,3.06171e-05,-5.74968e-05,-1.77409e-05
735,1.4485e-05,-2.00438e-05,4.75523e-05,2.94858e-05,-4.37573e-05,-1.87052e-05
736,1.98628e-05,-2.88969e-05,4.71583e-05,2.99438e-05,-2.59356e-05,-1.72958e-05
737,2.30157e-05,-2.80956e-05,5.09644e-05,3.37256e-05,-1.51117e-05,-1.77123e-05
738,1.90883e-05,-1.90981e-05,5.4807e-05,3.97072e-05,-9.54793e-06,-2.05108e-05
739,1.28611e-05,-1.26409e-05,5.57848e-05,4.10311e-05,-1.36372e-06,-2.11794e-05
740,1.18803e-05,-1.28433e-05,5.45202e-05,3.47454e-05,7.32499e-06,-1.78917e-05
741,1.52646e-05,-1.88913e-05,4.99602e-05,2.70915e-05,7.93427e-06,-1.40922e-05
742,1.72818e-05,-2.4182e-05,4.36741e-05,2.6108e-05,8.48088e-07,-1.44275e-05
743,1.56359e-05,-1.62582e-05,4.32297e-05,3.21743e-05,-5.53249e-06,-1.77806e-05
744,1.31494e-05,-4.06333e-06,4.97044e-05,3.78906e-05,-7.22519e-06,-1.97953e-05
745,1.20282e-05,-2.67508e-06,5.37978e-05,3.97537e-05,-9.01788e-06,-2.0815e-05
746,1.3158e-05,-3.82577e-06,5.11793e-05,4.08242e-05,-1.44078e-05,-1.50415e-05
747,1.43734e-05,-1.19571e-06,4.35965e-05,4.00689e-05,-1.49934e-05,2.24747e-06
748,1.33902e-05,7.92994e-07,3.62454e-05,3.50227e-05,-3.17107e-06,1.62043e-05
749,9.47182e-06,-3.6969e-06,3.68785e-05,2.68212e-05,1.82738e-05,1.55101e-05
750,4.35612e-06,-1.50382e-05,4.64731e-05,1.72439e-05,4.21034e-05,6.83279e-06
751,1.33322e-06,-2.04089e-05,5.47247e-05,1.36262e-05,5.96847e-05,-1.41082e-06
752,3.03536e-06,-1.32005e-05,5.48526e-05,1.96234e-05,6.2439e-05,-6.96596e-06
753,8.20916e-06,-3.09496e-06,4.8734e-05,2.65206e-05,5.92743e-05,-9.67711e-06
754,1.17433e-05,6.14242e-07,4.6107e-05,2.79158e-05,6.02443e-05,-8.63184e-06
755,1.01801e-05,-3.57585e-06,4.80764e-05,2.51509e-05,5.77677e-05,-3.94279e-06
756,5.96577e-06,-1.3716e-05,5.24952e-05,2.10636e-05,3.85424e-05,9.2007e-07
757,5.42547e-06,-1.96923e-05,5.72659e-05,2.08012e-05,2.96298e-06,2.84651e-06
758,9.48076e-06,-1.23094e-05,5.84581e-05,2.60342e-05,-2.77163e-05,2.9799e-06
759,1.07203e-05,1.36973e-07,5.58029e-05,3.1578e-05,-3.70282e-05,3.58284e-06
760,8.13606e-06,3.59136e-06,5.30267e-05,3.40062e-05,-3.05622e-05,4.74863e-06
761,5.49329e-06,-3.75463e-06,4.87392e-05,3.44953e-05,-2.26479e-05,5.52034e-06
762,6.57743e-06,-1.63557e-05,4.68901e-05,3.36575e-05,-2.42312e-05,6.09362e-06
763,1.15851e-05,-2.44543e-05,4.86204e-05,3.34273e-05,-3.81138e-05,6.67264e-06
764,1.37935e-05,-1.84923e-05,4.78193e-05,3.8407e-05,-5.60723e-05,8.16919e-06
765,1.09248e-05,-3.51465e-06,4.72171e-05,4.59895e-05,-6.06367e-05,1.00349e-05
766,4.9478e-06,6.41104e-06,4.9031e-05,4.7364e-05,-4.88896e-05,8.70065e-06
767,1.17878e-06,5.57977e-06,4.83698e-05,4.12188e-05,-3.52383e-05,4.42411e-06
768,3.20177e-06,-4.04102e-06,4.21571e-05,3.41364e-05,-2.50696e-05,2.06178e-06
769,6.53927e-06,-1.62001e-05,3.787e-05,3.27201e-05,-1.55079e-05,6.2054e-07
770,8.90294e-06,-1.79558e-05,4.2161e-05,3.89089e-05,-1.37934e-06,-4.52491e-06
771,1.06149e-05,-8.55695e-06,5.10317e-05,4.40425e-05,2.30733e-05,-1.11485e-05
772,1.03543e-05,-1.00913e-06,5.62614e-05,4.20381e-05,5.86417e-05,-1.39346e-05
773,8.8853e-06,3.18055e-06,5.63653e-05,3.93293e-05,9.61323e-05,-1.34032e-05
774,9.65834e-06,5.09071e-06,5.21909e-05,3.84463e-05,0.00011949,-1.38532e-05
775,1.48261e-05,2.2252e-06,4.83725e-05,3.6382e-05,0.000115331,-1.46781e-05
776,2.09404e-05,-3.04619e-06,4.99632e-05,3.20549e-05,9.07673e-05,-1.22064e-05
777,2.26885e-05,-9.59179e-06,5.45162e-05,2.62158e-05,7.13738e-05,-8.25278e-06
778,2.07345e-05,-1.08399e-05,5.65147e-05,2.53495e-05,6.51228e-05,-7.4838e-06
779,1.79293e-05,-1.76522e-06,5.34703e-05,3.25058e-05,5.59999e-05,-9.85144e-06
780,1.59378e-05,9.02245e-06,4.76356e-05,4.12013e-05,3.82405e-05,-1.21754e-05
781,1.60767e-05,1.2336e-05,4.6615e-05,4.554e-05,1.59114e-05,-1.2943e-05
782,1.50123e-05,6.58278e-06,5.42529e-05,4.44611e-05,-1.07008e-05,-1.30544e-05
783,1.40147e-05,-5.22099e-06,6.10191e-05,3.81245e-05,-2.71321e-05,-1.28105e-05
784,1.60707e-05,-1.32765e-05,5.88348e-05,3.06434e-05,-1.77901e-05,-1.08913e-05
785,1.88106e-05,-9.78871e-06,5.25417e-05,2.8111e-05,2.9695e-06,-8.73487e-06
786,1.71732e-05,-5.36708e-07,4.95099e-05,3.00516e-05,2.37379e-05,-9.05733e-06
787,1.54341e-05,4.38755e-06,5.26444e-05,3.32453e-05,4.10167e-05,-1.16122e-05
788,1.76088e-05,1.67039e-06,5.36793e-05,3.66389e-05,4.69614e-05,-1.52796e-05
789,1.75259e-05,-6.69435e-06,4.6353e-05,3.74681e-05,4.21958e-05,-1.85186e-05
790,1.4747e-05,-1.27719e-05,3.93564e-05,3.58454e-05,2.83942e-05,-1.97588e-05
791,1.18694e-05,-7.93976e-06,4.03787e-05,3.61034e-05,1.65173e-05,-1.96397e-05
792,1.12076e-05,3.05231e-06,4.71138e-05,3.63028e-05,1.59004e-05,-1.98428e-05
793,1.22084e-05,7.75336e-06,5.2162e-05,3.50732e-05,2.24394e-05,-2.22345e-05
794,1.32485e-05,4.21808e-06,4.99479e-05,3.76312e-05,2.59815e-05,-2.55792e-05
795,1.53336e-05,-3.57071e-06,4.429e-05,4.11895e-05,2.31263e-05,-2.55558e-05
796,1.87552e-05,-1.10495e-05,4.47992e-05,4.03308e-05,1.7272e-05,-2.20489e-05
797,2.15797e-05,-6.41831e-06,5.25968e-05,4.05149e-05,1.4003e-05,-1.93739e-05
798,2.17354e-05,7.09192e-06,5.97062e-05,4.40596e-05,1.55825e-05,-1.91149e-05
799,1.89984e-05,1.3774e-05,6.12335e-05,4.86432e-05,1.98104e-05,-1.69055e-05
800,1.7269e-05,1.30113e-05,6.04018e-05,5.24399e-05,2.42583e-05,-9.32541e-06
801,1.72882e-05,9.82287e-06,5.69147e-05,5.25427e-05,2.97834e-05,-1.08641e-07
802,1.35675e-05,7.53394e-06,5.13107e-05,5.01384e-05,3.54762e-05,1.48513e-06
803,4.96335e-06,4.14746e-06,4.98498e-05,4.59293e-05,3.30264e-05,-7.88159e-06
804,-5.45929e-07,-6.09908e-06,5.20173e-05,4.24874e-05,2.21898e-05,-1.74378e-05
805,1.16192e-06,-1.5796e-05,5.13975e-05,4.52714e-05,1.29113e-05,-1.7989e-05
806,5.31953e-06,-1.4248e-05,4.81652e-05,5.31778e-05,1.15339e-05,-1.28818e-05
807,7.72154e-06,-6.04705e-06,4.76749e-05,5.82398e-05,1.7155e-05,-7.49222e-06
808,8.07177e-06,-7.13024e-07,5.15938e-05,5.51654e-05,2.36672e-05,-3.49022e-06
809,9.71065e-06,-2.32231e-06,5.65628e-05,4.81746e-05,2.34187e-05,-4.72691e-07
810,1.30647e-05,-1.07697e-05,6.10044e-05,4.26475e-05,2.28579e-05,2.03604e-06
811,1.46845e-05,-1.76971e-05,6.26613e-05,4.01498e-05,2.41848e-05,4.51665e-06
812,1.41929e-05,-1.54792e-05,6.06032e-05,4.10746e-05,1.99765e-05,5.75427e-06
813,1.62499e-05,-8.56794e-06,5.70452e-05,4.41376e-05,1.63225e-05,3.50718e-06
814,1.83311e-05,-5.65107e-06,5.71486e-05,4.59299e-05,1.86322e-05,4.42338e-07
815,1.7092e-05,-8.57253e-06,5.56508e-05,4.39029e-05,2.28402e-05,1.6722e-06
816,1.82131e-05,-1.60775e-05,4.66327e-05,3.75034e-05,2.3352e-05,6.66629e-06
817,2.25853e-05,-2.27691e-05,4.27819e-05,3.1343e-05,1.59194e-05,9.76416e-06
818,2.43486e-05,-1.93697e-05,4.77315e-05,3.20449e-05,3.28087e-06,8.59913e-06
819,2.07933e-05,-7.84124e-06,5.53115e-05,3.59471e-05,-7.52878e-06,5.99782e-06
820,1.58902e-05,-1.06433e-06,5.94647e-05,3.35875e-05,-1.16791e-05,4.22535e-06
821,1.61383e-05,-4.86403e-06,5.90961e-05,2.61074e-05,-1.05738e-05,1.34467e-06
822,2.24235e-05,-1.56658e-05,5.37699e-05,2.10735e-05,-8.20361e-06,-3.40139e-06
823,2.88603e-05,-2.42711e-05,4.83365e-05,2.09196e-05,-5.43705e-06,-6.59156e-06
824,3.06605e-05,-1.80864e-05,4.86113e-05,2.52565e-05,5.54747e-06,-9.17905e-06
825,2.76752e-05,-4.51878e-06,5.12955e-05,2.93478e-05,2.98986e-05,-1.39067e-05
826,2.24115e-05,-7.46681e-07,5.20508e-05,2.61175e-05,5.90763e-05,-1.98952e-05
827,1.95927e-05,-3.72112e-06,5.13793e-05,1.97966e-05,7.8111e-05,-2.59298e-05
828,2.04289e-05,-5.58786e-06,4.89783e-05,1.95568e-05,7.84798e-05,-2.80269e-05
829,2.02807e-05,-5.9302e-06,4.63123e-05,2.51142e-05,6.03289e-05,-2.42975e-05
830,1.64714e-05,-8.00499e-06,4.99403e-05,2.97537e-05,3.24805e-05,-2.05798e-05
831,1.21476e-05,-1.51354e-05,5.7963e-05,3.00674e-05,8.72765e-06,-1.90623e-05
832,1.07277e-05,-2.0603e-05,6.40762e-05,2.95373e-05,-8.12749e-06,-1.52376e-05
833,1.14634e-05,-1.68791e-05,6.35917e-05,3.00905e-05,-2.20421e-05,-1.12978e-05
834,1.21341e-05,-9.81854e-06,5.59321e-05,3.05183e-05,-2.65551e-05,-1.13387e-05
835,1.31315e-05,-7.10981e-06,4.95657e-05,3.02624e-05,-1.54529e-05,-1.23311e-05
836,1.3238e-05,-8.75614e-06,5.14612e-05,3.06544e-05,9.74049e-07,-1.40384e-05
837,9.69992e-06,-1.45353e-05,5.58865e-05,3.16999e-05,1.66405e-05,-2.05107e-05
838,8.6814e-06,-2.02408e-05,5.6114e-05,3.33141e-05,2.85641e-05,-2.72134e-05
839,1.04067e-05,-1.80528e-05,5.13493e-05,3.65419e-05,2.5764e-05,-2.64935e-05
840,1.01999e-05,-1.00092e-05,5.12339e-05,4.11989e-05,1.40795e-05,-2.02586e-05
841,9.42744e-06,-5.68505e-06,5.76197e-05,4.53157e-05,9.40631e-06,-1.71592e-05
842,9.62308e-06,-8.64854e-06,6.02988e-05,4.69365e-05,9.58601e-06,-2.05074e-05
843,1.10184e-05,-1.59995e-05,5.61514e-05,4.58423e-05,1.25951e-05,-2.47886e-05
844,1.22224e-05,-2.02038e-05,5.41405e-05,4.56399e-05,1.74663e-05,-2.39663e-05
845,1.39081e-05,-1.37528e-05,6.06353e-05,4.99094e-05,2.03005e-05,-1.61873e-05
846,1.46922e-05,-2.14551e-06,6.7299e-05,5.25515e-05,2.36413e-05,-8.5288e-06
847,1.62498e-05,3.69713e-06,6.89318e-05,4.81344e-05,2.63672e-05,-9.77655e-06
848,1.79838e-05,2.90435e-06,6.52089e-05,4.21379e-05,2.78037e-05,-1.62645e-05
849,1.76863e-05,-3.44409e-06,5.625e-05,3.8253e-05,2.73505e-05,-1.90649e-05
850,1.47582e-05,-1.24294e-05,4.83523e-05,3.65214e-05,2.0772e-05,-1.71178e-05
851,8.00637e-06,-1.01573e-05,4.87599e-05,3.97395e-05,1.13309e-05,-1.55018e-05
852,1.23163e-06,1.07761e-06,5.43932e-05,4.47053e-05,7.18729e-06,-1.70498e-05
853,-6.8034e-07,4.33915e-06,5.74295e-05,4.52646e-05,9.46286e-06,-1.84696e-05
854,2.19525e-06,6.69644e-07,5.55439e-05,4.39257e-05,1.356e-05,-1.74113e-05
855,3.95677e-06,-4.70701e-06,4.94467e-05,4.54736e-05,1.62042e-05,-1.3694e-05
856,1.58373e-06,-7.14558e-06,4.32859e-05,4.68488e-05,1.5438e-05,-4.8761e-06
857,-2.81038e-06,-7.76748e-06,4.25785e-05,4.40604e-05,1.2426e-05,9.04163e-06
858,-5.27969e-06,-1.59324e-05,4.60871e-05,3.80594e-05,1.38191e-05,2.02429e-05
859,-4.72487e-06,-2.38997e-05,4.86763e-05,3.41284e-05,2.07068e-05,2.00419e-05
860,-5.81388e-07,-1.80983e-05,4.6278e-05,3.44999e-05,2.49986e-05,9.02881e-06
861,2.50574e-06,-5.78814e-06,3.91296e-05,3.5319e-05,2.27975e-05,-4.70221e-06
862,1.71088e-06,-2.7408e-06,3.42011e-05,3.46755e-05,1.59734e-05,-1.51116e-05
863,8.17774e-07,-1.10178e-05,3.80707e-05,3.30663e-05,8.39042e-06,-2.01412e-05
864,2.44422e-06,-2.36523e-05,4.50717e-05,3.1215e-05,4.27882e-06,-1.93097e-05
865,4.80801e-06,-2.87987e-05,4.88782e-05,3.28702e-05,6.15889e-06,-1.46191e-05
866,4.04315e-06,-1.96542e-05,5.04314e-05,3.98755e-05,6.27916e-06,-8.90713e-06
867,4.54631e-06,-3.95861e-06,4.99788e-05,4.71613e-05,3.52272e-06,-2.63003e-06
868,5.80333e-06,4.84178e-06,4.79816e-05,5.11691e-05,1.27907e-06,3.99947e-06
869,4.16834e-06,2.44682e-06,4.38237e-05,5.25406e-05,1.79667e-06,6.60697e-06
870,5.81086e-07,-7.07915e-06,4.09823e-05,5.0581e-05,1.20257e-05,4.2324e-07
871,-3.77247e-06,-1.46695e-05,3.95374e-05,4.74591e-05,2.60819e-05,-9.59956e-06
872,-7.08674e-06,-1.12431e-05,4.0555e-05,4.88671e-05,4.39024e-05,-1.16478e-05
873,-7.0154e-06,-8.07258e-07,4.49506e-05,5.2889e-05,6.44792e-05,-3.66245e-06
874,-2.48344e-06,5.14174e-06,5.03524e-05,5.20432e-05,7.48929e-05,4.36542e-06
875,5.39571e-07,2.46161e-06,5.22242e-05,4.68597e-05,6.71065e-05,4.33316e-06
876,1.08171e-06,-8.26531e-06,4.7714e-05,4.21838e-05,5.06001e-05,-1.06187e-06
877,1.82886e-06,-1.8914e-05,4.27166e-05,3.82642e-05,3.51264e-05,-4.20375e-06
878,2.72505e-06,-1.28288e-05,4.32022e-05,3.85773e-05,1.87525e-05,-2.91247e-06
879,3.49939e-06,1.09918e-06,4.90055e-05,4.3561e-05,-2.95029e-06,-2.04303e-06
880,4.70561e-06,3.61676e-06,5.44273e-05,4.65291e-05,-2.84054e-05,-6.44297e-06
881,6.57919e-06,6.17142e-07,5.51976e-05,4.53265e-05,-4.99255e-05,-1.41823e-05
882,8.40344e-06,4.42491e-08,5.01052e-05,4.19159e-05,-5.68496e-05,-2.06763e-05
883,9.2215e-06,1.5922e-06,4.66339e-05,3.83634e-05,-4.8899e-05,-2.30019e-05
884,6.05363e-06,-5.65356e-08,5.13389e-05,3.34357e-05,-4.66611e-05,-1.98516e-05
885,-1.8564e-07,-1.13681e-05,5.86235e-05,2.61656e-05,-6.44101e-05,-1.61942e-05
886,-3.63261e-06,-2.16046e-05,5.85683e-05,2.14378e-05,-8.65006e-05,-1.77767e-05
887,-2.67088e-08,-1.75514e-05,5.28834e-05,2.36264e-05,-8.71001e-05,-2.24718e-05
888,5.38787e-06,-7.55863e-06,4.82626e-05,2.85943e-05,-6.40245e-05,-2.37074e-05
889,8.19134e-06,-5.63334e-06,4.84551e-05,3.08075e-05,-3.70027e-05,-2.14732e-05
890,6.43906e-06,-1.27884e-05,5.16527e-05,3.007e-05,-2.30023e-05,-1.99865e-05
891,4.35104e-06,-2.28129e-05,5.61697e-05,2.7653e-05,-1.48655e-05,-1.96677e-05
892,5.98166e-06,-2.62755e-05,6.02128e-05,2.85008e-05,1.41427e-07,-1.88689e-05
893,7.4532e-06,-1.87667e-05,6.17574e-05,3.63424e-05,1.97836e-05,-1.64933e-05
894,7.99529e-06,-8.17826e-06,6.44851e-05,4.50691e-05,3.4673e-05,-1.31355e-05
895,8.15202e-06,-4.36801e-06,6.37215e-05,4.7553e-05,3.92548e-05,-1.20295e-05
896,7.04217e-06,-8.34577e-06,5.76504e-05,4.51321e-05,3.20574e-05,-1.59241e-05
897,6.32972e-06,-1.76193e-05,5.19359e-05,4.05336e-05,1.9121e-05,-2.20267e-05
898,8.4428e-06,-2.51501e-05,5.01013e-05,3.70561e-05,7.88237e-06,-2.61597e-05
899,1.13353e-05,-2.01151e-05,5.25084e-05,3.8452e-05,2.65569e-06,-2.54021e-05
900,1.41681e-05,-7.2146e-06,5.75539e-05,4.08526e-05,7.60652e-06,-1.91656e-05
901,1.64323e-05,-7.19094e-07,6.11768e-05,3.93813e-05,1.76175e-05,-1.19455e-05
902,2.16709e-05,-3.14102e-06,5.81218e-05,3.39485e-05,2.25974e-05,-1.01087e-05
903,2.8366e-05,-1.10743e-05,5.27218e-05,2.69522e-05,2.20143e-05,-1.30188e-05
904,3.09559e-05,-1.70978e-05,5.27554e-05,2.4298e-05,1.88205e-05,-1.50657e-05
905,2.89271e-05,-8.7144e-06,5.88651e-05,2.83466e-05,1.62277e-05,-1.69417e-05
906,2.74711e-05,8.36502e-06,6.27745e-05,3.26664e-05,1.92342e-05,-1.69287e-05
907,2.83178e-05,1.54104e-05,5.7853e-05,3.4143e-05,3.01421e-05,-2.75833e-06
908,3.03531e-05,1.29492e-05,4.83548e-05,3.51167e-05,4.11493e-05,2.25197e-05
909,3.1978e-05,1.0215e-05,4.26893e-05,3.44243e-05,4.12216e-05,3.55265e-05
910,3.04658e-05,8.74376e-06,4.49598e-05,3.09581e-05,2.62578e-05,2.85882e-05
911,2.58797e-05,5.79335e-06,5.09598e-05,2.53516e-05,5.84521e-06,1.62571e-05
912,2.03779e-05,-2.76591e-06,5.37512e-05,2.02232e-05,-2.39517e-06,8.34125e-06
913,1.56333e-05,-9.32355e-06,5.4475e-05,2.20911e-05,3.59304e-06,2.78869e-06
914,1.07985e-05,-4.23926e-06,5.51155e-05,3.37356e-05,1.2295e-05,-1.92166e-06
915,8.4569e-06,6.66739e-06,5.11814e-05,4.48928e-05,1.90294e-05,-4.04166e-06
916,1.0363e-05,1.06716e-05,4.33186e-05,4.444e-05,2.58818e-05,-3.0224e-06
917,1.48448e-05,3.89735e-06,3.93691e-05,3.53665e-05,3.38958e-05,-8.1548e-07
918,2.02157e-05,-8.17821e-06,4.41182e-05,2.64965e-05,5.36989e-05,-2.91807e-07
919,2.65357e-05,-1.47055e-05,4.89872e-05,2.37341e-05,7.65383e-05,-2.73918e-06
920,2.82724e-05,-9.81745e-06,4.91138e-05,2.65165e-05,7.28849e-05,-7.38441e-06
921,2.45481e-05,-4.92158e-07,4.76347e-05,3.07407e-05,5.22436e-05,-1.12113e-05
922,1.93195e-05,3.68353e-06,4.70508e-05,3.46114e-05,4.20469e-05,-1.22288e-05
923,1.5484e-05,2.25498e-07,4.54508e-05,3.74803e-05,4.49515e-05,-1.0429e-05
924,1.57917e-05,-8.70426e-06,3.85367e-05,3.71853e-05,4.55192e-05,-4.59641e-06
925,1.99431e-05,-1.61624e-05,3.22003e-05,3.58004e-05,2.76907e-05,3.95446e-06
926,2.2799e-05,-1.43309e-05,3.20106e-05,3.79612e-05,-1.12984e-08,1.05741e-05
927,2.22097e-05,-6.58048e-06,3.6202e-05,4.12937e-05,-1.44683e-05,1.40853e-05
928,1.88821e-05,2.68207e-07,3.92056e-05,4.03746e-05,-3.31829e-06,1.62933e-05
929,1.43653e-05,3.27107e-06,3.8657e-05,3.58181e-05,2.17357e-05,1.74485e-05
930,1.03431e-05,-2.58846e-06,3.69086e-05,3.12908e-05,3.60441e-05,1.47692e-05
931,7.46893e-06,-1.28036e-05,3.7342e-05,2.86465e-05,2.30799e-05,5.7041e-06
932,5.61556e-06,-9.40817e-06,4.09543e-05,2.73758e-05,-2.43422e-07,-5.32928e-06
933,6.08183e-06,3.57351e-06,4.55317e-05,2.58005e-05,-6.41481e-06,-1.10677e-05
934,8.46113e-06,5.87723e-06,5.0003e-05,2.5886e-05,3.93304e-06,-1.30345e-05
935,1.01567e-05,5.96074e-07,5.182e-05,3.0283e-05,1.05026e-05,-1.4265e-05
936,9.07026e-06,-1.09323e-06,5.01881e-05,3.69707e-05,6.92134e-06,-1.14615e-05
937,6.78601e-06,1.09392e-06,4.90303e-05,4.14264e-05,3.95461e-06,-7.76406e-06
938,6.14425e-06,2.33471e-06,5.32432e-05,4.03026e-05,8.28134e-06,-6.38728e-06
939,5.61147e-06,-1.74e-06,5.92311e-05,3.56778e-05,1.90505e-05,-6.15205e-06
940,5.59365e-06,-3.29635e-06,5.90098e-05,3.40366e-05,2.96415e-05,-7.90541e-06
941,6.85267e-06,4.41643e-06,5.52992e-05,3.84374e-05,3.65742e-05,-1.00017e-05
942,1.06677e-05,1.24939e-05,5.32011e-05,4.51573e-05,4.05054e-05,-9.61365e-06
943,1.42906e-05,1.16143e-05,5.41947e-05,4.86336e-05,3.97484e-05,-7.68232e-06
944,1.39439e-05,1.5214e-06,6.0194e-05,4.72607e-05,3.12842e-05,-7.73887e-06
945,9.5424e-06,-1.30112e-05,6.46023e-05,4.21616e-05,2.06256e-05,-1.11152e-05
946,6.09693e-06,-2.20603e-05,6.29895e-05,3.92564e-05,1.10467e-05,-1.68081e-05
947,7.42145e-06,-1.87851e-05,5.94916e-05,4.31478e-05,-6.60536e-06,-2.14009e-05
948,8.43195e-06,-1.05614e-05,6.08374e-05,4.98881e-05,-2.98246e-05,-2.13341e-05
949,7.62618e-06,-8.91255e-06,6.5664e-05,5.27754e-05,-4.51332e-05,-1.69278e-05
950,9.73692e-06,-1.51997e-05,6.46821e-05,4.95567e-05,-4.87133e-05,-1.25998e-05
951,1.43754e-05,-2.33026e-05,5.73336e-05,4.28363e-05,-4.52049e-05,-1.14484e-05
952,1.65303e-05,-2.41081e-05,5.10759e-05,3.94773e-05,-3.93088e-05,-1.29464e-05
953,1.44682e-05,-1.3039e-05,5.24645e-05,4.46156e-05,-2.92524e-05,-1.41372e-05
954,1.22574e-05,-9.00586e-07,5.52957e-05,5.111e-05,-1.01649e-05,-1.27168e-05
955,1.07651e-05,3.20294e-08,5.58134e-05,4.97854e-05,2.36588e-05,-1.00466e-05
956,1.17677e-05,-6.97777e-06,5.40161e-05,4.46269e-05,6.37894e-05,-9.14227e-06
957,1.52224e-05,-1.66562e-05,5.01071e-05,4.21327e-05,9.4715e-05,-9.25255e-06
958,1.69925e-05,-2.49802e-05,4.81539e-05,4.06428e-05,0.000103596,-8.32861e-06
959,1.31176e-05,-2.01246e-05,5.14778e-05,3.93224e-05,9.38101e-05,-7.46775e-06
960,8.64414e-06,-7.82702e-06,5.66083e-05,3.94813e-05,7.81374e-05,-5.96532e-06
961,9.7896e-06,-4.43448e-06,5.75737e-05,4.04206e-05,6.50018e-05,-1.57422e-06
962,1.5724e-05,-6.6765e-06,5.49374e-05,4.09548e-05,5.47332e-05,4.35571e-06
963,1.94204e-05,-8.72874e-06,5.01095e-05,4.01797e-05,4.36029e-05,7.41387e-06
964,1.75348e-05,-9.2964e-06,4.55067e-05,3.91925e-05,2.93449e-05,5.64453e-06
965,1.36172e-05,-1.13789e-05,4.6514e-05,3.90443e-05,1.42288e-05,5.42468e-08
966,1.11697e-05,-2.02826e-05,5.3101e-05,3.89907e-05,6.10961e-06,-5.48997e-06
967,1.18409e-05,-2.64409e-05,5.85711e-05,4.00492e-05,9.84535e-06,-1.07131e-05
968,1.29127e-05,-2.0057e-05,5.90105e-05,4.11642e-05,2.21827e-05,-1.87711e-05
969,1.04102e-05,-7.61188e-06,5.52136e-05,3.98058e-05,3.43269e-05,-2.79147e-05
970,4.65936e-06,2.33821e-06,5.25524e-05,3.66943e-05,4.3127e-05,-3.53348e-05
971,1.49896e-06,5.47324e-06,5.48351e-05,3.41141e-05,4.12241e-05,-3.97098e-05
972,2.69411e-06,-4.6266e-08,5.78515e-05,3.16883e-05,3.25999e-05,-3.97057e-05
973,5.05331e-06,-6.34948e-06,6.02535e-05,2.99108e-05,2.87917e-05,-3.63869e-05
974,4.85595e-06,-5.26229e-06,6.38768e-05,3.24722e-05,2.53803e-05,-3.3581e-05
975,4.2353e-06,-1.71886e-07,6.40506e-05,4.03239e-05,1.29281e-05,-3.16959e-05
976,5.76426e-06,1.26558e-06,6.24903e-05,4.86681e-05,-6.77291e-06,-2.84854e-05
977,6.86218e-06,-2.5637e-06,5.87446e-05,5.04226e-05,-2.35691e-05,-2.33508e-05
978,7.88571e-06,-1.0094e-05,5.23901e-05,4.35501e-05,-3.68198e-05,-1.66428e-05
979,1.02371e-05,-1.60044e-05,5.06602e-05,3.34961e-05,-5.20204e-05,-1.04092e-05
980,1.10058e-05,-1.32885e-05,5.34342e-05,2.78157e-05,-5.69998e-05,-4.94353e-06
981,1.18365e-05,-5.53083e-06,5.36565e-05,2.8668e-05,-3.94815e-05,4.52863e-06
982,1.22568e-05,-2.79628e-06,5.14182e-05,3.35847e-05,-1.26837e-05,1.59231e-05
983,1.38369e-05,-8.93583e-06,4.80592e-05,4.02068e-05,5.93473e-06,1.78477e-05
984,1.52583e-05,-2.22386e-05,4.42035e-05,4.41021e-05,1.34545e-05,6.01853e-06
985,1.6019e-05,-3.22357e-05,4.31436e-05,4.3299e-05,9.85843e-06,-1.09314e-05
986,1.52518e-05,-2.2737e-05,4.63459e-05,4.29644e-05,8.28665e-07,-2.28472e-05
987,1.30605e-05,-2.26936e-06,5.07275e-05,4.23146e-05,-3.42691e-06,-2.69129e-05
988,1.07942e-05,6.15037e-06,4.96324e-05,3.80027e-05,1.70391e-06,-2.61145e-05
989,9.9573e-06,3.60528e-06,4.30175e-05,3.47171e-05,8.1931e-06,-2.7033e-05
990,1.31035e-05,1.87701e-06,3.46145e-05,3.63592e-05,9.82785e-06,-3.1247e-05
991,1.70252e-05,2.54231e-06,2.98155e-05,3.80624e-05,8.32949e-06,-3.17338e-05
992,1.76569e-05,9.77533e-07,3.30473e-05,3.43967e-05,8.11342e-06,-2.5877e-05
993,1.62361e-05,-6.24665e-06,4.20414e-05,2.86514e-05,1.44606e-05,-1.9768e-05
994,1.55811e-05,-1.24392e-05,4.77072e-05,2.84594e-05,2.35455e-05,-1.76922e-05
995,1.33152e-05,-8.4869e-06,4.65072e-05,3.3772e-05,2.4951e-05,-1.91637e-05
996,9.91237e-06,1.3298e-06,4.17343e-05,3.69982e-05,1.8824e-05,-2.0673e-05
997,6.31881e-06,6.4467e-06,3.96905e-05,3.62178e-05,1.16787e-05,-2.00823e-05
998,7.40308e-07,4.27912e-06,4.45385e-05,3.29914e-05,4.31257e-06,-1.96981e-05
999,-6.23335e-06,-4.31609e-06,5.33044e-05,2.84034e-05,5.21229e-06,-2.25779e-05
1000,-9.35108e-06,-1.26324e-05,5.68284e-05,2.73063e-05,1.43333e-05,-2.80783e-05
1001,-1.01338e-05,-1.11767e-05,5.20521e-05,3.29964e-05,1.87838e-05,-3.14136e-05
1002,-9.65471e-06,-1.62066e-06,4.71311e-05,4.05365e-05,1.97608e-05,-3.00346e-05
1003,-5.04762e-06,5.02665e-06,4.45294e-05,4.25738e-05,2.78374e-05,-2.56897e-05
1004,1.70084e-06,2.43243e-06,4.25088e-05,3.72519e-05,3.76771e-05,-1.84108e-05
1005,5.58066e-06,-8.38052e-06,4.12436e-05,2.87683e-05,3.73099e-05,-5.1781e-06
1006,5.73373e-06,-1.98663e-05,3.95706e-05,2.40872e-05,2.9181e-05,9.74014e-06
1007,4.32648e-06,-2.12896e-05,4.08086e-05,2.62481e-05,2.66561e-05,1.52363e-05
1008,6.36389e-06,-1.24043e-05,4.48597e-05,3.00843e-05,3.04445e-05,9.25817e-06
1009,9.85218e-06,-4.13492e-06,4.75868e-05,2.9712e-05,3.02871e-05,9.5143e-07
1010,1.25549e-05,-5.56443e-06,4.77766e-05,2.61389e-05,2.1082e-05,-4.32162e-06
1011,1.43639e-05,-1.75709e-05,4.61421e-05,2.32898e-05,5.38534e-06,-8.03323e-06
1012,1.31454e-05,-3.07627e-05,4.60442e-05,2.23374e-05,-5.02e-06,-1.28088e-05
1013,9.99529e-06,-2.87538e-05,4.70882e-05,2.44851e-05,2.10382e-06,-1.58407e-05
1014,9.87833e-06,-1.40251e-05,4.71837e-05,2.92368e-05,1.72713e-05,-1.08438e-05
1015,1.24228e-05,-5.79561e-06,4.51863e-05,3.38031e-05,1.66012e-05,-2.49584e-06
1016,1.453e-05,-6.25878e-06,4.31349e-05,3.93633e-05,-2.41492e-06,2.47825e-06
1017,1.60389e-05,-7.12323e-06,4.16167e-05,4.26251e-05,-1.79464e-05,2.87151e-06
1018,1.58472e-05,-6.80275e-06,4.03573e-05,3.95309e-05,-1.98049e-05,-1.07434e-06
1019,1.31755e-05,-8.43812e-06,4.21856e-05,3.38397e-05,-1.74418e-05,-6.53974e-06
1020,1.04203e-05,-1.55863e-05,4.92068e-05,2.90643e-05,-1.75096e-05,-1.05493e-05
1021,1.12718e-05,-2.09506e-05,5.74742e-05,2.58847e-05,-1.89676e-05,-1.21129e-05
1022,1.44584e-05,-1.60385e-05,6.08838e-05,2.43162e-05,-1.82015e-05,-1.09063e-05
1023,1.73348e-05,-5.61053e-06,5.73805e-05,2.52944e-05,-5.73333e-06,-6.4279e-06
1024,1.68629e-05,1.95279e-06,5.30188e-05,2.96445e-05,1.59437e-05,-2.37256e-06
1025,1.11331e-05,2.7091e-06,5.39622e-05,3.47723e-05,2.7858e-05,-2.17937e-06
1026,5.70562e-06,-3.8416e-06,5.75299e-05,3.62141e-05,2.25656e-05,-4.77001e-06
1027,1.01483e-05,-1.09452e-05,5.96691e-05,3.53602e-05,7.74939e-06,-6.68845e-06
1028,1.72988e-05,-1.02083e-05,5.7353e-05,3.83533e-05,-1.77005e-06,-6.64501e-06
1029,2.03127e-05,-4.3529e-06,5.42085e-05,4.38064e-05,-1.81847e-06,-6.74972e-06
1030,1.95814e-05,-2.20604e-06,5.65731e-05,4.43754e-05,4.7725e-07,-8.65912e-06
1031,2.00273e-05,-6.79439e-06,5.72773e-05,3.94466e-05,-2.2671e-06,-9.73085e-06
1032,2.44183e-05,-1.61093e-05,5.37344e-05,3.35271e-05,-1.12934e-05,-4.9088e-06
1033,2.98712e-05,-2.22169e-05,5.2698e-05,3.03885e-05,-2.14198e-05,2.37882e-06
1034,3.38246e-05,-1.58759e-05,5.5129e-05,3.21839e-05,-2.58306e-05,4.27899e-06
1035,3.66392e-05,-2.03104e-06,5.89219e-05,3.53719e-05,-1.68271e-05,2.20796e-06
1036,3.90291e-05,6.70807e-06,6.08387e-05,3.60075e-05,-3.18793e-07,1.32691e-06
1037,3.81919e-05,5.41661e-06,5.87239e-05,3.4987e-05,9.86403e-06,1.28561e-06
1038,3.66833e-05,-4.59708e-06,5.25433e-05,3.28819e-05,9.92165e-06,5.53308e-07
1039,3.4958e-05,-1.3944e-05,4.81967e-05,3.24895e-05,2.96459e-06,-7.28553e-07
1040,3.27397e-05,-1.01245e-05,4.80379e-05,3.74032e-05,-5.22186e-06,-1.5006e-06
1041,3.08932e-05,-1.04518e-06,5.05055e-05,4.38025e-05,-4.73018e-06,-3.70845e-08
1042,2.89095e-05,1.68575e-07,5.28838e-05,4.58296e-05,7.89338e-06,3.87643e-06
1043,2.83523e-05,-6.76504e-07,5.35134e-05,4.40054e-05,1.82298e-05,7.3327e-06
1044,3.09935e-05,6.40926e-07,5.0066e-05,4.20271e-05,1.48553e-05,7.20772e-06
1045,3.30471e-05,1.73568e-06,4.53425e-05,3.97542e-05,6.83044e-06,3.80238e-06
1046,2.99257e-05,-1.39841e-06,4.73108e-05,3.46709e-05,6.0761e-06,2.00271e-06
1047,2.31451e-05,-1.2308e-05,5.46834e-05,2.80573e-05,1.21729e-05,1.7617e-06
1048,1.64398e-05,-2.08731e-05,5.81358e-05,2.67063e-05,2.305e-05,-1.87847e-06
1049,1.22774e-05,-1.65863e-05,5.34297e-05,3.35137e-05,3.69572e-05,-7.9255e-06
1050,1.38527e-05,-5.11551e-06,4.47406e-05,3.93055e-05,5.39377e-05,-1.19705e-05
1051,1.93695e-05,2.51203e-06,3.93644e-05,3.72486e-05,7.60161e-05,-1.33413e-05
1052,2.13697e-05,1.95362e-06,4.20824e-05,3.07738e-05,9.60704e-05,-1.36768e-05
1053,1.89053e-05,-4.75604e-06,4.76666e-05,2.51889e-05,0.000105133,-1.29641e-05
1054,1.59585e-05,-9.34233e-06,5.17772e-05,2.52627e-05,0.000100619,-1.00075e-05
1055,1.55429e-05,-5.79029e-06,5.19286e-05,3.1793e-05,8.29261e-05,-5.92436e-06
1056,1.5118e-05,2.18191e-06,4.94147e-05,3.91779e-05,5.92884e-05,-2.9934e-06
1057,1.33868e-05,6.27484e-06,4.83329e-05,4.44907e-05,4.11253e-05,-5.41634e-07
1058,1.35455e-05,3.06783e-06,5.0427e-05,4.94983e-05,2.69044e-05,2.00461e-06
1059,1.29346e-05,-6.05598e-06,5.05872e-05,5.25148e-05,4.66292e-06,3.64326e-06
1060,1.02775e-05,-1.40863e-05,4.64824e-05,5.19152e-05,-2.28653e-05,4.60313e-06
1061,9.15971e-06,-1.23919e-05,4.50495e-05,4.97456e-05,-3.37251e-05,3.99208e-06
1062,1.15119e-05,-5.1009e-06,4.66054e-05,4.65668e-05,-1.75415e-05,-4.8475e-07
1063,1.43406e-05,-1.18233e-06,4.81407e-05,4.19607e-05,8.56195e-06,-6.25791e-06
1064,1.48149e-05,-2.08992e-06,4.59415e-05,3.81681e-05,2.44661e-05,-6.64313e-06
1065,1.41419e-05,-9.63685e-06,4.02346e-05,3.5169e-05,3.01043e-05,-1.49734e-07
1066,1.36233e-05,-1.92911e-05,3.79285e-05,3.26523e-05,2.90239e-05,4.39731e-06
1067,1.3444e-05,-1.62778e-05,4.43484e-05,3.65853e-05,2.21411e-05,1.93829e-07
1068,1.26135e-05,-4.37526e-06,5.42992e-05,4.52018e-05,1.27012e-05,-7.5243e-06
1069,1.01533e-05,1.12155e-06,5.97972e-05,4.66635e-05,8.85879e-07,-9.89494e-06
1070,8.43281e-06,1.79979e-06,5.99789e-05,4.02952e-05,-1.57434e-05,-7.68224e-06
1071,7.92609e-06,1.25961e-06,5.61968e-05,3.50089e-05,-3.41684e-05,-8.45428e-06
1072,7.74685e-06,-1.92654e-06,5.18569e-05,3.62201e-05,-4.6299e-05,-1.59335e-05
1073,7.92972e-06,-7.90036e-06,5.02505e-05,4.0338e-05,-4.8414e-05,-2.69124e-05
1074,7.9868e-06,-1.73602e-05,5.09138e-05,3.98299e-05,-4.06284e-05,-3.36919e-05
1075,7.05256e-06,-2.11049e-05,5.1342e-05,3.89053e-05,-2.41453e-05,-3.16399e-05
1076,5.7602e-06,-1.31264e-05,5.06328e-05,4.50784e-05,1.68495e-06,-2.15004e-05
1077,4.88145e-06,-3.34207e-06,4.72812e-05,5.42952e-05,3.4889e-05,-9.46961e-06
1078,3.39314e-06,-5.50005e-07,4.40966e-05,5.89048e-05,6.1308e-05,-3.98693e-06
1079,-2.4565e-07,-4.9283e-06,4.43902e-05,5.52906e-05,6.6058e-05,-7.57494e-06
1080,-3.79975e-06,-1.41302e-05,4.70882e-05,4.60371e-05,6.25334e-05,-1.46314e-05
1081,-6.39437e-06,-2.0887e-05,5.09354e-05,3.87999e-05,6.02296e-05,-1.81337e-05
1082,-6.59169e-06,-1.68845e-05,5.11909e-05,3.80625e-05,4.49646e-05,-1.75647e-05
1083,-1.87366e-06,-5.56706e-06,5.2268e-05,4.05437e-05,2.61025e-05,-1.57867e-05
1084,-1.73771e-06,1.08461e-06,6.02411e-05,4.00896e-05,1.84364e-05,-1.44188e-05
1085,-3.2765e-06,-3.12842e-06,6.68454e-05,3.53571e-05,1.62496e-05,-1.59785e-05
1086,-1.00808e-06,-1.57637e-05,6.42217e-05,2.96052e-05,1.63431e-05,-2.08429e-05
1087,-4.50086e-07,-2.73101e-05,5.77256e-05,2.80503e-05,1.56923e-05,-2.29506e-05
1088,-1.26858e-06,-2.62926e-05,5.6664e-05,3.35925e-05,1.37486e-05,-1.73328e-05
1089,1.96661e-07,-1.45415e-05,5.79721e-05,4.01148e-05,1.38536e-05,-7.08554e-06
1090,2.79765e-06,-6.2794e-06,6.05796e-05,4.01017e-05,1.46176e-05,-1.78359e-06
1091,3.31722e-06,-8.97086e-06,6.26871e-05,3.46183e-05,1.51393e-05,-6.29231e-06
1092,3.51197e-06,-1.99035e-05,6.19384e-05,2.71158e-05,1.30715e-05,-1.24842e-05
1093,2.9332e-06,-2.96673e-05,6.20846e-05,2.23702e-05,6.22072e-06,-1.38486e-05
1094,9.10414e-07,-2.51927e-05,6.53719e-05,2.74436e-05,7.59899e-07,-1.24925e-05
1095,-1.98655e-06,-1.09667e-05,6.86546e-05,3.97301e-05,4.70738e-06,-1.12981e-05
1096,-6.12364e-06,-2.14408e-06,6.71205e-05,4.78182e-05,1.5521e-05,-1.09676e-05
1097,-9.76572e-06,-5.63689e-07,6.2839e-05,4.63405e-05,2.5243e-05,-1.15637e-05
1098,-9.02258e-06,-2.75624e-06,5.99313e-05,4.05585e-05,2.95222e-05,-1.35243e-05
1099,-4.38654e-06,-5.63831e-06,5.77938e-05,3.73156e-05,2.73882e-05,-1.48212e-05
1100,-1.65737e-07,-8.66702e-06,5.64066e-05,3.87385e-05,2.15338e-05,-1.50042e-05
1101,3.26273e-06,-1.54212e-05,5.81613e-05,4.25794e-05,1.62882e-05,-1.57217e-05
1102,5.46336e-06,-1.94807e-05,5.9336e-05,4.49644e-05,1.28738e-05,-1.62765e-05
1103,5.13489e-06,-1.28892e-05,5.65493e-05,4.63498e-05,7.00458e-06,-1.46254e-05
1104,5.19895e-06,-3.13659e-06,4.9944e-05,4.83335e-05,-4.98303e-06,-9.65221e-06
1105,5.87414e-06,2.88716e-09,4.47975e-05,4.78789e-05,-2.01466e-05,-2.33346e-06
1106,5.25431e-06,-2.8461e-06,4.66969e-05,4.21204e-05,-2.6054e-05,4.7789e-06
1107,4.95332e-06,-8.56975e-06,5.09204e-05,3.51261e-05,-1.17397e-05,8.57203e-06
1108,8.44317e-06,-1.15302e-05,5.26021e-05,3.28493e-05,1.30522e-05,8.97768e-06
1109,1.04408e-05,-5.9925e-06,5.3594e-05,3.43423e-05,2.55474e-05,8.39314e-06
1110,8.92017e-06,3.80334e-06,5.45105e-05,3.36947e-05,2.37454e-05,7.3318e-06
1111,7.97767e-06,8.39042e-06,5.51581e-05,2.82938e-05,2.24186e-05,5.02618e-06
1112,7.18869e-06,4.15047e-06,5.30368e-05,2.22632e-05,3.24324e-05,2.99147e-06
1113,8.20089e-06,-6.69465e-06,4.9598e-05,2.01925e-05,4.81337e-05,2.20027e-06
1114,8.80102e-06,-1.57686e-05,4.87358e-05,2.24334e-05,5.04779e-05,-9.57846e-07
1115,8.34238e-06,-1.23186e-05,5.36068e-05,2.82007e-05,3.84001e-05,-1.05537e-05
1116,8.02041e-06,-2.41009e-07,5.86177e-05,3.65898e-05,2.68837e-05,-2.57537e-05
1117,9.92756e-06,6.65053e-06,6.00641e-05,4.20084e-05,2.22528e-05,-4.05248e-05
1118,1.46572e-05,4.1354e-06,5.83276e-05,3.85214e-05,1.55215e-05,-4.75936e-05
1119,2.02554e-05,-6.53863e-06,5.35076e-05,2.79243e-05,4.30617e-06,-4.65769e-05
1120,2.16295e-05,-1.93067e-05,5.10214e-05,1.8475e-05,-9.31251e-06,-4.46527e-05
1121,1.69782e-05,-1.7525e-05,5.30056e-05,1.91623e-05,-1.79186e-05,-4.43872e-05
1122,1.08457e-05,-3.84678e-06,5.73304e-05,2.72471e-05,-1.46597e-05,-4.30152e-05
1123,8.87025e-06,3.01014e-06,6.12186e-05,3.21824e-05,-1.31557e-06,-3.65516e-05
1124,1.35215e-05,4.88201e-06,6.47815e-05,3.47393e-05,1.52359e-05,-2.37979e-05
1125,1.84937e-05,6.42576e-06,6.55135e-05,3.93687e-05,2.78162e-05,-1.36031e-05
1126,1.8109e-05,4.06759e-06,6.34468e-05,4.36798e-05,3.0044e-05,-1.18057e-05
1127,1.36942e-05,-3.49658e-06,6.34402e-05,4.47188e-05,2.18863e-05,-1.5408e-05
1128,1.16622e-05,-1.46886e-05,6.78005e-05,4.30123e-05,1.31034e-05,-1.87528e-05
1129,1.13918e-05,-1.7659e-05,6.98558e-05,4.32392e-05,8.74865e-06,-1.83482e-05
1130,1.05573e-05,-7.01289e-06,6.63365e-05,4.81111e-05,6.35128e-06,-1.57236e-05
1131,1.16815e-05,4.48355e-06,6.0189e-05,5.21124e-05,6.0875e-07,-1.16659e-05
1132,1.58553e-05,6.14607e-06,5.64861e-05,5.07978e-05,-8.71026e-06,-7.42655e-06
1133,1.73266e-05,-3.19046e-07,5.83902e-05,4.58697e-05,-2.0668e-05,-4.23612e-06
1134,1.26523e-05,-1.01494e-05,5.8164e-05,4.03336e-05,-2.32634e-05,-2.68979e-06
1135,6.83312e-06,-1.54081e-05,5.17031e-05,3.82085e-05,-1.18249e-05,-2.16161e-06
1136,4.97511e-06,-9.36439e-06,4.79411e-05,4.14129e-05,-3.71959e-06,1.90587e-07
1137,7.33782e-06,1.37809e-06,4.88615e-05,4.73326e-05,-1.99186e-06,4.21277e-06
1138,9.58051e-06,6.78748e-06,4.94278e-05,5.16417e-05,3.7211e-06,4.64627e-06
1139,9.35399e-06,6.39324e-06,4.9802e-05,5.09917e-05,1.19768e-05,-2.41049e-07
1140,8.91532e-06,1.38131e-06,4.97356e-05,4.37719e-05,1.81911e-05,-5.15164e-06
1141,8.69638e-06,-5.40744e-06,4.91958e-05,3.52996e-05,1.76017e-05,-6.73657e-06
1142,6.79917e-06,-5.36758e-06,5.15493e-05,3.60112e-05,1.74131e-05,-5.72252e-06
1143,4.8174e-06,1.93891e-06,5.61899e-05,4.436e-05,2.8955e-05,-2.91493e-06
1144,4.56297e-06,8.78972e-06,5.74674e-05,4.91267e-05,4.42138e-05,-1.36723e-06
1145,7.8698e-06,9.86866e-06,5.15746e-05,4.79986e-05,4.7931e-05,-4.30944e-06
1146,1.39587e-05,1.22303e-06,4.01634e-05,4.34576e-05,3.94592e-05,-7.61769e-06
1147,1.85614e-05,-1.06947e-05,3.25086e-05,3.82943e-05,2.51915e-05,-7.80092e-06
1148,2.04976e-05,-8.9428e-06,3.66167e-05,3.71054e-05,1.47559e-05,-4.58228e-06
1149,2.24588e-05,3.41432e-06,4.7432e-05,3.83345e-05,2.14176e-05,1.12458e-06
1150,2.35189e-05,9.08468e-06,5.49357e-05,3.73014e-05,4.36013e-05,1.00749e-06
1151,2.23098e-05,8.78656e-06,5.50647e-05,3.62336e-05,6.04156e-05,-3.88937e-06
1152,2.05551e-05,1.00629e-05,5.04573e-05,3.71881e-05,5.82051e-05,-3.02889e-07
1153,1.97364e-05,1.10806e-05,4.78399e-05,4.04192e-05,4.88688e-05,1.15789e-05
1154,1.94693e-05,7.0854e-06,4.94455e-05,4.31639e-05,4.60038e-05,1.75047e-05
1155,2.0914e-05,-4.08063e-06,4.89203e-05,3.89027e-05,4.55712e-05,1.07447e-05
1156,2.48148e-05,-1.31827e-05,4.39578e-05,3.17374e-05,3.526e-05,2.86752e-07
1157,2.71747e-05,-1.07511e-05,3.96025e-05,2.89406e-05,1.00809e-05,-4.68294e-06
1158,2.56253e-05,-3.06669e-06,3.71858e-05,3.1055e-05,-2.5149e-05,-3.52853e-06
1159,2.40571e-05,7.46576e-07,3.75671e-05,3.47986e-05,-6.06603e-05,-4.32285e-07
1160,2.49243e-05,-2.38907e-06,4.35525e-05,3.51035e-05,-9.20024e-05,6.18909e-07
1161,2.39043e-05,-1.14909e-05,5.34163e-05,3.04217e-05,-9.86625e-05,-1.73964e-06
1162,2.03609e-05,-1.75058e-05,5.79585e-05,2.76907e-05,-6.21158e-05,-5.48645e-06
1163,1.52227e-05,-1.3126e-05,5.22962e-05,3.12534e-05,-1.35652e-05,-6.5868e-06
1164,1.1277e-05,-4.76349e-06,4.43527e-05,3.60517e-05,1.53434e-05,-2.7479e-06
1165,1.01275e-05,-1.85466e-06,4.1114e-05,3.77222e-05,2.43048e-05,4.23949e-06
1166,1.0887e-05,-4.7705e-06,4.39757e-05,3.65118e-05,2.31625e-05,8.63968e-06
1167,1.04837e-05,-1.1521e-05,4.51426e-05,3.25416e-05,2.4629e-05,6.38128e-06
1168,7.86505e-06,-1.84624e-05,4.26181e-05,2.95307e-05,2.61222e-05,-8.04848e-07
1169,7.50525e-06,-1.74093e-05,4.68954e-05,3.28865e-05,2.49581e-05,-7.20115e-06
1170,7.73227e-06,-8.51396e-06,5.14419e-05,3.79561e-05,2.42126e-05,-8.23045e-06
1171,7.54957e-06,-1.81362e-06,5.16452e-05,3.78947e-05,2.72708e-05,-6.17356e-06
1172,8.41486e-06,-4.60992e-06,4.98613e-05,3.39246e-05,3.47e-05,-7.08176e-06
1173,1.14557e-05,-1.83176e-05,4.72704e-05,3.09661e-05,3.7868e-05,-1.28157e-05
1174,1.31115e-05,-3.24999e-05,4.87481e-05,3.21532e-05,3.03444e-05,-2.15435e-05
1175,9.7737e-06,-2.89315e-05,5.67099e-05,3.75776e-05,1.95571e-05,-2.96781e-05
1176,3.88e-06,-1.37669e-05,6.28217e-05,4.06076e-05,1.48658e-05,-3.27654e-05
1177,-4.61439e-07,-7.62897e-06,6.1201e-05,3.66767e-05,1.32606e-05,-3.03506e-05
1178,1.10579e-06,-9.38597e-06,5.81252e-05,3.42552e-05,8.8961e-06,-2.50892e-05
1179,6.46087e-06,-1.0537e-05,5.62603e-05,3.78469e-05,1.40748e-06,-1.87563e-05
1180,9.93782e-06,-8.32642e-06,5.49407e-05,4.26331e-05,-6.10945e-06,-1.45869e-05
1181,8.69711e-06,-7.79532e-06,5.52408e-05,4.35234e-05,-1.02457e-05,-1.13347e-05
1182,6.8414e-06,-1.71549e-05,5.50009e-05,3.86546e-05,-3.45705e-06,-3.25153e-06
1183,8.14382e-06,-2.42502e-05,4.92626e-05,3.35491e-05,1.9558e-05,9.59309e-06
1184,1.09272e-05,-1.53553e-05,4.30055e-05,3.13207e-05,4.95907e-05,1.83659e-05
1185,1.38028e-05,8.67417e-07,4.13373e-05,2.89592e-05,7.11056e-05,1.45617e-05
1186,1.54469e-05,7.74691e-06,4.30733e-05,2.49188e-05,8.0354e-05,8.41147e-07
1187,1.44697e-05,5.82137e-07,4.95259e-05,2.00525e-05,7.62979e-05,-1.07375e-05
1188,1.38132e-05,-1.29076e-05,5.40859e-05,1.4468e-05,6.38565e-05,-1.3226e-05
1189,1.5006e-05,-1.93572e-05,5.07989e-05,1.39017e-05,5.37024e-05,-9.66887e-06
1190,1.67233e-05,-1.17461e-05,4.97512e-05,2.22372e-05,3.44843e-05,-4.58621e-06
1191,1.5898e-05,1.63547e-06,5.30666e-05,3.28894e-05,-2.60401e-06,-4.0175e-07
1192,1.15471e-05,7.59649e-06,5.48994e-05,3.87824e-05,-4.17569e-05,1.50891e-06
1193,8.85649e-06,3.62321e-06,5.0223e-05,4.03155e-05,-6.59563e-05,6.62612e-07
1194,8.52251e-06,-5.06432e-06,4.14487e-05,3.94273e-05,-7.19787e-05,-1.52804e-06
1195,7.94842e-06,-1.14945e-05,3.67728e-05,3.64707e-05,-6.94404e-05,-3.64361e-06
1196,7.2337e-06,-8.21444e-06,4.03506e-05,3.51488e-05,-6.08509e-05,-5.14673e-06
1197,9.18886e-06,1.6737e-06,4.69536e-05,3.81437e-05,-4.55063e-05,-4.83017e-06
1198,1.15865e-05,6.72864e-06,4.8489e-05,4.17018e-05,-2.75478e-05,-4.11647e-06
1199,1.02082e-05,2.39428e-06,4.47695e-05,4.22707e-05,-8.57666e-06,-1.12828e-05
1200,6.54102e-06,-1.04844e-05,4.12269e-05,4.1488e-05,1.61508e-05,-3.04487e-05
1201,4.05333e-06,-2.5264e-05,4.22659e-05,3.99828e-05,5.03167e-05,-5.10571e-05
1202,4.20839e-06,-2.482e-05,4.6898e-05,3.79235e-05,8.40044e-05,-5.77991e-05
1203,6.13075e-06,-1.09641e-05,5.09422e-05,3.54003e-05,0.000101178,-5.14052e-05
1204,6.80192e-06,-1.56812e-06,5.11816e-05,3.43219e-05,9.51857e-05,-4.43664e-05
1205,5.40641e-06,2.51203e-06,4.87549e-05,3.75255e-05,7.23309e-05,-4.03359e-05
1206,3.10887e-06,4.56139e-06,4.47653e-05,4.03522e-05,4.70823e-05,-3.87003e-05
1207,4.10822e-08,3.73872e-06,4.28539e-05,3.7749e-05,3.07193e-05,-3.78402e-05
1208,-1.91531e-06,-1.5259e-06,4.59614e-05,3.33979e-05,2.08675e-05,-3.34596e-05
1209,5.67618e-07,-1.31297e-05,5.04911e-05,3.05062e-05,7.91417e-06,-2.15932e-05
1210,4.49077e-06,-2.1034e-05,5.14056e-05,3.22915e-05,-8.93626e-06,4.76505e-07
1211,6.80977e-06,-1.48829e-05,4.97396e-05,3.98422e-05,-1.65168e-05,2.79352e-05
1212,8.8274e-06,-1.49851e-06,4.7996e-05,4.70166e-05,-7.6062e-06,4.92078e-05
1213,9.9769e-06,6.46728e-06,4.67647e-05,4.6766e-05,6.50407e-06,5.2662e-05
1214,8.9914e-06,3.51417e-06,5.07533e-05,3.90509e-05,1.02235e-05,3.63698e-05
1215,7.34789e-06,-8.79313e-06,6.04384e-05,3.02922e-05,6.68262e-06,1.0799e-05
1216,7.21661e-06,-1.85951e-05,6.64972e-05,2.67662e-05,6.96106e-06,-9.83417e-06
1217,5.68778e-06,-1.64193e-05,6.23827e-05,2.99334e-05,6.34083e-06,-1.8686e-05
1218,4.25776e-06,-8.40647e-06,5.87206e-05,3.55448e-05,5.32822e-06,-1.89215e-05
1219,6.60586e-06,-6.0316e-06,6.40626e-05,3.95072e-05,9.40941e-06,-1.62627e-05
1220,9.37412e-06,-1.21704e-05,6.58531e-05,4.01509e-05,1.65501e-05,-1.26661e-05
1221,1.11559e-05,-2.28796e-05,5.70925e-05,3.52744e-05,2.05226e-05,-8.32279e-06
1222,1.23527e-05,-3.04427e-05,4.87544e-05,2.79521e-05,1.78561e-05,-6.62799e-06
1223,1.22753e-05,-2.6911e-05,5.12689e-05,2.79918e-05,1.26501e-05,-1.10575e-05
1224,1.55606e-05,-1.53447e-05,5.77884e-05,3.50747e-05,9.92508e-06,-1.83084e-05
1225,2.042e-05,-7.24771e-06,5.92303e-05,3.79345e-05,1.07571e-05,-2.02613e-05
1226,2.42061e-05,-9.13072e-06,5.51772e-05,3.32166e-05,1.26028e-05,-1.53474e-05
1227,2.45889e-05,-2.1427e-05,5.26364e-05,2.58938e-05,1.61677e-05,-9.62041e-06
1228,1.78874e-05,-3.67637e-05,5.52229e-05,2.14738e-05,1.49705e-05,-7.93611e-06
1229,6.97091e-06,-3.62915e-05,6.19228e-05,2.77301e-05,7.99837e-06,-1.00772e-05
1230,-1.80569e-06,-2.0801e-05,6.55307e-05,3.88722e-05,1.44007e-06,-1.14883e-05
1231,-6.31031e-06,-1.09402e-05,6.28824e-05,4.00957e-05,-1.23032e-07,-1.14108e-05
1232,-8.92681e-06,-1.03482e-05,5.68895e-05,3.26697e-05,-2.9832e-07,-1.51319e-05
1233,-8.70523e-06,-1.27579e-05,4.8528e-05,2.60467e-05,-5.72209e-07,-2.04955e-05
1234,-4.54563e-06,-1.37129e-05,4.25821e-05,2.58665e-05,1.24827e-06,-2.4353e-05
1235,9.25515e-07,-1.36438e-05,4.50481e-05,2.82167e-05,4.65244e-06,-2.87304e-05
1236,4.401e-06,-1.82368e-05,5.37499e-05,2.49937e-05,1.27211e-05,-3.07341e-05
1237,7.95138e-06,-2.11266e-05,5.71587e-05,2.12159e-05,2.47194e-05,-2.7203e-05
1238,1.27958e-05,-1.54597e-05,5.2185e-05,2.50635e-05,2.92038e-05,-2.11032e-05
1239,1.70807e-05,-6.76892e-06,4.33032e-05,3.63068e-05,2.05589e-05,-1.6023e-05
1240,1.9916e-05,-2.0771e-06,3.66526e-05,4.8568e-05,9.45546e-06,-1.31413e-05
1241,2.25212e-05,-3.56441e-06,4.04498e-05,5.34367e-05,3.27226e-06,-1.08314e-05
1242,2.48955e-05,-1.0428e-05,5.15387e-05,4.83446e-05,5.39292e-06,-8.10891e-06
1243,2.66221e-05,-1.44509e-05,5.4381e-05,4.10751e-05,1.9487e-05,-7.37345e-06
1244,2.76163e-05,-8.34361e-06,5.09754e-05,4.08496e-05,3.50992e-05,-9.12236e-06
1245,2.67679e-05,2.16969e-06,4.91502e-05,4.63079e-05,4.11198e-05,-9.96279e-06
1246,2.43537e-05,8.57243e-06,4.75026e-05,5.01356e-05,4.19707e-05,-8.36959e-06
1247,2.4619e-05,8.82312e-06,4.2381e-05,4.84171e-05,3.92476e-05,-6.5454e-06
1248,2.78751e-05,2.01085e-06,3.61613e-05,4.23616e-05,3.54556e-05,-6.2253e-06
1249,3.20978e-05,-7.46383e-06,3.10046e-05,3.65928e-05,2.74514e-05,-8.73202e-06
1250,3.44814e-05,-7.90978e-06,3.16769e-05,3.61511e-05,1.49463e-05,-1.29773e-05
1251,3.21712e-05,1.67247e-06,3.53186e-05,4.05415e-05,-3.81856e-07,-1.5298e-05
1252,2.65279e-05,9.20833e-06,3.83933e-05,4.51961e-05,-1.83302e-05,-1.45233e-05
1253,2.04913e-05,7.08799e-06,4.32015e-05,4.51405e-05,-3.60044e-05,-1.24712e-05
1254,1.79235e-05,-4.57047e-06,4.58462e-05,3.86721e-05,-4.48183e-05,-1.01861e-05
1255,1.76076e-05,-1.81715e-05,4.69103e-05,3.25036e-05,-4.12842e-05,-7.96793e-06
1256,1.59257e-05,-1.74792e-05,5.1224e-05,3.3517e-05,-3.00613e-05,-4.36302e-06
1257,1.23601e-05,-5.5314e-06,5.99017e-05,3.91973e-05,-1.61611e-05,9.79367e-07
1258,1.04303e-05,8.10958e-07,6.63496e-05,4.34187e-05,-3.85054e-06,2.83824e-06
1259,1.23757e-05,1.36278e-06,6.6872e-05,4.62033e-05,1.5281e-06,-1.28325e-06
1260,1.51161e-05,8.0191e-07,6.16796e-05,4.96583e-05,-8.02102e-07,-3.98417e-06
1261,1.53394e-05,-2.81709e-08,5.60598e-05,5.24377e-05,-2.9098e-06,-3.87157e-07
1262,1.2308e-05,-1.88221e-06,5.51719e-05,5.17171e-05,-8.96456e-07,3.40116e-06
1263,8.54983e-06,-7.57306e-06,5.75124e-05,4.78517e-05,4.08721e-06,2.09987e-06
1264,8.53289e-06,-1.14841e-05,5.70799e-05,4.75028e-05,9.39018e-06,-3.23719e-06
1265,1.25123e-05,-6.04298e-06,5.32232e-05,5.29135e-05,1.12325e-05,-8.7775e-06
1266,1.81334e-05,2.73191e-06,4.99689e-05,5.78456e-05,9.1833e-06,-1.20459e-05
1267,2.34149e-05,6.3837e-06,4.98415e-05,5.76813e-05,8.44151e-06,-1.21228e-05
1268,2.4105e-05,4.33616e-06,5.205e-05,5.23768e-05,2.68664e-06,-7.35812e-06
1269,1.96192e-05,-3.74118e-06,5.43496e-05,4.41242e-05,-8.95699e-06,-6.46295e-07
1270,1.54683e-05,-1.23005e-05,5.24939e-05,3.99844e-05,-2.16547e-05,1.10657e-06
1271,1.41658e-05,-1.14115e-05,4.85831e-05,4.49393e-05,-2.79146e-05,-3.84326e-06
1272,1.39324e-05,-1.35371e-06,5.02485e-05,5.1112e-05,-1.35777e-05,-1.12457e-05
1273,1.05526e-05,6.69557e-06,5.53736e-05,4.84039e-05,1.244e-05,-1.55861e-05
1274,6.88334e-06,5.42054e-06,5.27851e-05,3.87447e-05,3.04106e-05,-1.56466e-05
1275,6.50848e-06,-2.97103e-06,4.06447e-05,3.11912e-05,4.11369e-05,-1.67903e-05
1276,6.95635e-06,-1.09555e-05,3.56248e-05,3.22248e-05,4.76871e-05,-2.11849e-05
1277,6.30003e-06,-9.72394e-06,4.17404e-05,4.08507e-05,4.95891e-05,-2.20077e-05
1278,4.28534e-06,-3.30552e-07,4.676e-05,4.89752e-05,5.0245e-05,-1.19008e-05
1279,4.47389e-06,6.40146e-06,4.82879e-05,5.1007e-05,5.11066e-05,9.56014e-06
1280,5.25007e-06,3.25445e-06,5.03291e-05,4.95816e-05,4.61722e-05,3.27719e-05
1281,3.29418e-06,-1.03027e-05,5.41286e-05,4.56115e-05,3.16936e-05,4.34133e-05
1282,-1.63296e-06,-2.3704e-05,5.75069e-05,3.93631e-05,7.75076e-06,3.30422e-05
1283,-6.94203e-06,-1.78082e-05,6.12865e-05,3.79781e-05,-1.57168e-05,6.13959e-06
1284,-9.87534e-06,-4.08048e-07,6.54846e-05,4.18354e-05,-2.08507e-05,-1.84825e-05
1285,-9.50201e-06,2.9856e-06,6.65692e-05,4.35075e-05,-2.92367e-06,-2.79659e-05
1286,-5.10664e-06,-4.74368e-06,6.19719e-05,4.14028e-05,2.21549e-05,-2.88358e-05
1287,9.70224e-07,-8.61425e-06,5.35082e-05,3.69531e-05,3.63126e-05,-3.23164e-05
1288,4.75248e-06,-6.32383e-06,4.81254e-05,3.06549e-05,3.54475e-05,-3.92087e-05
1289,5.085e-06,-6.15089e-06,5.11613e-05,2.40266e-05,2.58363e-05,-4.19688e-05
1290,5.0556e-06,-1.59923e-05,5.80259e-05,1.69954e-05,1.7173e-05,-3.68541e-05
1291,5.86567e-06,-2.4555e-05,5.95508e-05,1.24326e-05,1.0168e-05,-2.63454e-05
1292,8.6226e-06,-1.93371e-05,5.59172e-05,1.48187e-05,1.36956e-08,-1.49307e-05
1293,1.34529e-05,-7.07794e-06,4.98984e-05,2.18929e-05,-1.3357e-05,-4.98375e-06
1294,1.72593e-05,-3.95995e-07,4.66095e-05,2.72383e-05,-2.22117e-05,1.75526e-06
1295,1.64738e-05,-3.14981e-06,5.21634e-05,2.8082e-05,-2.12468e-05,4.24139e-06
1296,1.49363e-05,-1.23354e-05,6.17071e-05,2.61797e-05,-1.00161e-05,2.67816e-06
1297,1.71136e-05,-1.73079e-05,6.28406e-05,2.76133e-05,6.07823e-06,-1.95007e-06
1298,1.82379e-05,-9.06044e-06,5.34227e-05,3.49337e-05,1.7162e-05,-6.29215e-06
1299,1.66237e-05,4.97173e-06,4.88921e-05,4.08254e-05,1.88007e-05,-6.79725e-06
1300,1.3456e-05,1.07298e-05,5.45016e-05,3.94872e-05,1.53806e-05,-5.69856e-06
1301,1.33835e-05,5.76682e-06,5.5512e-05,3.3053e-05,9.03205e-06,-7.64411e-06
1302,1.78288e-05,-4.44566e-06,4.91985e-05,2.53206e-05,-2.8769e-06,-1.07748e-05
1303,2.10727e-05,-1.31629e-05,4.58138e-05,2.13132e-05,-1.81593e-05,-1.12462e-05
1304,2.13691e-05,-1.11598e-05,5.11276e-05,2.57866e-05,-2.76483e-05,-8.08527e-06
1305,2.12685e-05,-1.13121e-06,5.73921e-05,3.39995e-05,-2.85144e-05,-2.79891e-06
1306,2.26632e-05,3.08545e-06,5.61821e-05,3.72391e-05,-2.60086e-05,5.2201e-07
1307,2.47626e-05,-1.27627e-06,4.98569e-05,3.25065e-05,-2.23667e-05,-1.35036e-06
1308,2.52279e-05,-9.52965e-06,4.21871e-05,2.30936e-05,-1.27643e-05,-5.3612e-06
1309,2.2582e-05,-1.77178e-05,3.90571e-05,1.6494e-05,6.85611e-06,-9.07977e-06
1310,1.81414e-05,-1.51199e-05,4.27747e-05,2.11836e-05,3.48541e-05,-1.25431e-05
1311,1.50996e-05,-3.90713e-06,4.87386e-05,3.41596e-05,6.64983e-05,-1.52623e-05
1312,1.58566e-05,6.01202e-07,5.14138e-05,3.97208e-05,8.97424e-05,-2.06015e-05
1313,1.85983e-05,-1.90775e-08,5.05931e-05,3.64263e-05,9.29583e-05,-2.74024e-05
1314,1.97587e-05,3.72285e-07,5.02819e-05,3.41793e-05,7.91255e-05,-2.51626e-05
1315,1.61493e-05,1.13942e-06,5.31976e-05,3.38868e-05,6.28733e-05,-1.16808e-05
1316,1.09504e-05,-4.63801e-07,5.75079e-05,3.23885e-05,5.70249e-05,2.16963e-06
1317,1.16249e-05,-8.21772e-06,5.84427e-05,2.7586e-05,6.40056e-05,8.21727e-06
1318,1.72945e-05,-1.44682e-05,5.48837e-05,2.37846e-05,7.02213e-05,5.36812e-06
1319,2.09525e-05,-1.11887e-05,5.10807e-05,2.64072e-05,6.28274e-05,-6.75295e-07
1320,2.28782e-05,-5.01831e-06,4.94756e-05,3.33971e-05,4.51086e-05,-2.74104e-06
1321,2.25202e-05,-4.20279e-06,4.79385e-05,3.81488e-05,2.5076e-05,-2.41765e-07
1322,1.89577e-05,-9.35908e-06,4.81753e-05,3.48759e-05,7.28126e-06,3.2137e-06
1323,1.77107e-05,-1.83582e-05,4.97477e-05,2.49144e-05,6.16438e-07,4.5856e-06
1324,2.14344e-05,-2.36485e-05,4.75754e-05,1.91048e-05,1.08668e-05,3.40966e-06
1325,2.30705e-05,-1.82859e-05,4.22847e-05,2.50715e-05,1.99927e-05,7.22809e-07
1326,1.94004e-05,-7.62836e-06,4.00214e-05,3.57523e-05,2.2761e-05,-2.10489e-06
1327,1.36876e-05,-1.78782e-06,4.46115e-05,4.10321e-05,2.63876e-05,-4.58529e-06
1328,7.45301e-06,-2.48809e-06,4.8371e-05,3.90198e-05,3.26194e-05,-6.31113e-06
1329,6.58022e-06,-7.41511e-06,4.57082e-05,3.22465e-05,4.56912e-05,-6.515e-06
1330,8.5378e-06,-1.29829e-05,4.454e-05,2.5865e-05,5.75954e-05,-7.00331e-06
1331,8.44401e-06,-1.24607e-05,4.88636e-05,2.69245e-05,5.83529e-05,-8.30302e-06
1332,5.42861e-06,-7.11567e-06,5.11857e-05,3.42606e-05,3.95787e-05,-6.6361e-06
1333,2.54455e-06,-5.09711e-06,4.72101e-05,3.96972e-05,9.57875e-06,-1.79309e-06
1334,1.39057e-06,-8.53426e-06,4.25086e-05,4.0922e-05,-1.15879e-05,-5.59756e-07
1335,1.79653e-06,-1.68331e-05,4.00194e-05,4.09358e-05,-1.59306e-05,-6.32994e-06
1336,1.36775e-06,-2.75627e-05,3.85657e-05,4.22681e-05,-1.2967e-05,-1.39185e-05
1337,-4.17732e-07,-2.86212e-05,4.15405e-05,4.75106e-05,-4.04744e-06,-1.59989e-05
1338,-9.80531e-07,-1.9262e-05,4.94911e-05,5.30316e-05,1.682e-05,-1.01782e-05
1339,-1.32719e-06,-1.20703e-05,5.43235e-05,5.25005e-05,3.46988e-05,-3.95735e-06
1340,-9.43742e-07,-7.17972e-06,5.1224e-05,4.90621e-05,3.15246e-05,-3.98226e-06
1341,1.51129e-06,-2.10232e-06,4.58057e-05,4.75871e-05,1.84363e-05,-7.87709e-06
1342,5.59059e-06,5.44243e-07,4.56355e-05,4.51531e-05,1.774e-05,-1.13898e-05
1343,7.18435e-06,-4.57267e-06,5.3302e-05,3.91899e-05,3.26762e-05,-1.33883e-05
1344,6.3626e-06,-1.94145e-05,6.20522e-05,3.34206e-05,5.72923e-05,-1.43962e-05
1345,4.16013e-06,-3.01863e-05,6.21122e-05,3.31808e-05,7.5512e-05,-1.48694e-05
1346,2.12782e-06,-2.52845e-05,5.28646e-05,3.76325e-05,6.98357e-05,-1.49033e-05
1347,3.97822e-06,-1.16759e-05,4.33631e-05,4.19665e-05,4.99774e-05,-1.28173e-05
1348,1.08082e-05,-3.00477e-06,4.18057e-05,4.54768e-05,3.40852e-05,-7.42628e-06
1349,1.70887e-05,-4.96066e-06,4.65995e-05,4.83475e-05,2.37465e-05,2.31082e-07
1350,1.82508e-05,-1.40032e-05,4.89565e-05,4.74409e-05,2.2847e-05,5.3522e-06
1351,1.51419e-05,-1.79048e-05,4.69531e-05,4.5017e-05,3.02327e-05,2.98545e-06
1352,9.00138e-06,-9.44638e-06,4.62833e-05,4.71747e-05,3.43442e-05,-5.0333e-06
1353,6.41874e-06,3.27328e-06,4.75429e-05,5.14401e-05,3.85776e-05,-1.22272e-05
1354,8.20503e-06,8.92131e-06,4.66169e-05,4.97608e-05,4.29005e-05,-1.52663e-05
1355,9.93824e-06,5.97695e-06,4.00788e-05,4.07036e-05,3.84548e-05,-1.48674e-05
1356,1.14573e-05,-1.67627e-06,3.18697e-05,3.00031e-05,2.91322e-05,-1.2491e-05
1357,9.751e-06,-6.87237e-06,3.06779e-05,2.47511e-05,1.83863e-05,-9.71166e-06
1358,4.05855e-06,-1.49396e-06,3.68824e-05,2.97073e-05,1.10832e-05,-6.24971e-06
1359,-1.26962e-06,8.57264e-06,4.28762e-05,4.06961e-05,1.19894e-05,-1.45571e-06
1360,2.86362e-07,1.07357e-05,4.74534e-05,4.71282e-05,2.01961e-05,1.0322e-06
1361,5.60506e-06,5.55554e-06,4.76903e-05,4.5475e-05,2.48981e-05,-1.47114e-06
1362,1.06913e-05,-3.43883e-06,4.30189e-05,4.32828e-05,2.32874e-05,-4.83254e-06
1363,1.44168e-05,-1.50482e-05,3.94426e-05,4.60782e-05,1.71399e-05,-5.18982e-06
1364,1.68308e-05,-1.67101e-05,4.18907e-05,4.89661e-05,8.53958e-06,-3.37463e-06
1365,1.82952e-05,-7.46296e-06,4.7823e-05,4.39743e-05,3.41173e-06,-2.11373e-06
1366,1.98499e-05,-4.26363e-06,5.07319e-05,3.48042e-05,2.89679e-06,-4.96973e-06
1367,2.30439e-05,-1.02637e-05,4.94676e-05,3.16731e-05,2.91751e-06,-9.8411e-06
1368,2.62323e-05,-1.53341e-05,4.56692e-05,3.4269e-05,1.27359e-06,-1.01783e-05
1369,2.6553e-05,-1.41825e-05,4.48008e-05,3.74137e-05,1.88314e-06,-8.11845e-06
1370,2.1965e-05,-1.31042e-05,4.99673e-05,3.84633e-05,5.36874e-06,-9.42361e-06
1371,1.83783e-05,-1.99086e-05,5.67605e-05,3.6484e-05,1.53726e-05,-1.38049e-05
1372,1.90896e-05,-2.51004e-05,6.09272e-05,3.53546e-05,3.42179e-05,-1.74416e-05
1373,1.95335e-05,-1.76032e-05,6.4238e-05,3.96007e-05,5.64256e-05,-2.00453e-05
1374,1.85216e-05,-4.25665e-06,6.36975e-05,4.67956e-05,7.03707e-05,-2.27875e-05
1375,1.97315e-05,2.85364e-06,5.63411e-05,5.21432e-05,6.41117e-05,-2.44604e-05
1376,1.99267e-05,3.24571e-07,5.10013e-05,5.38975e-05,3.95191e-05,-2.33565e-05
1377,1.87526e-05,-9.50427e-06,5.58012e-05,5.16402e-05,2.26289e-05,-2.08935e-05
1378,2.01521e-05,-1.66954e-05,6.26591e-05,4.72968e-05,1.40463e-05,-2.07578e-05
1379,2.23185e-05,-1.24337e-05,6.02577e-05,4.49816e-05,-1.32858e-05,-2.15785e-05
1380,2.13035e-05,-1.36004e-06,5.51503e-05,4.59029e-05,-5.81416e-05,-2.09445e-05
1381,1.67126e-05,5.46894e-06,5.81067e-05,4.77718e-05,-9.77528e-05,-2.04759e-05
1382,1.45342e-05,2.53429e-06,6.34429e-05,4.82234e-05,-0.000111623,-2.03398e-05
1383,1.75957e-05,-8.91146e-06,6.20523e-05,4.44812e-05,-9.98857e-05,-1.77742e-05
1384,1.8431e-05,-1.85648e-05,5.71216e-05,3.96864e-05,-8.60085e-05,-1.44676e-05
1385,1.58389e-05,-1.36935e-05,5.71534e-05,4.06359e-05,-7.88876e-05,-1.44446e-05
1386,1.38588e-05,2.47207e-07,5.77808e-05,4.61238e-05,-6.80618e-05,-1.64315e-05
1387,1.40996e-05,7.04208e-06,5.73299e-05,4.94182e-05,-4.48919e-05,-1.72594e-05
1388,1.45843e-05,2.58239e-06,5.61929e-05,4.65005e-05,-1.82671e-05,-1.71162e-05
1389,1.57595e-05,-8.83704e-06,5.35627e-05,3.79954e-05,-1.87707e-06,-1.66433e-05
1390,1.80485e-05,-1.87735e-05,5.27245e-05,2.89174e-05,1.20397e-06,-1.60141e-05
1391,1.96042e-05,-1.27028e-05,5.36252e-05,2.8995e-05,-1.26717e-06,-1.44981e-05
1392,1.87379e-05,3.1199e-06,5.39759e-05,3.76507e-05,5.72725e-07,-1.30372e-05
1393,1.6216e-05,8.55916e-06,5.37917e-05,4.05032e-05,8.55965e-06,-1.48391e-05
1394,1.67012e-05,4.27888e-06,5.5462e-05,3.60319e-05,2.03719e-05,-1.83918e-05
1395,2.07581e-05,8.90956e-07,5.75976e-05,3.23405e-05,3.15746e-05,-2.07955e-05
1396,2.30563e-05,1.98339e-06,5.84476e-05,3.14409e-05,3.50207e-05,-2.26662e-05
1397,1.8191e-05,2.27306e-06,5.80076e-05,3.19022e-05,2.70535e-05,-2.31418e-05
1398,1.12106e-05,-5.38018e-06,5.77997e-05,2.98691e-05,1.62749e-05,-2.06139e-05
1399,8.45091e-06,-1.14344e-05,5.57314e-05,2.94666e-05,1.0539e-05,-1.91577e-05
1400,1.06535e-05,-4.60938e-06,5.39276e-05,3.40899e-05,1.03732e-05,-1.94833e-05
1401,1.40657e-05,7.25389e-06,5.25414e-05,3.66146e-05,9.34307e-06,-1.69789e-05
1402,1.52675e-05,1.22129e-05,5.13191e-05,3.45787e-05,6.58687e-07,-1.04291e-05
1403,1.26623e-05,7.63507e-06,5.63572e-05,3.02787e-05,-1.88276e-05,3.2271e-06
1404,6.81907e-06,-4.38115e-06,6.427e-05,2.4243e-05,-3.68902e-05,2.31108e-05
1405,5.98198e-06,-1.31237e-05,6.75347e-05,2.13158e-05,-3.49236e-05,3.78586e-05
1406,1.12441e-05,-8.71364e-06,6.39911e-05,2.70398e-05,-1.84482e-05,3.89705e-05
1407,1.35552e-05,2.03715e-06,5.71546e-05,3.72803e-05,3.03996e-07,3.12292e-05
1408,1.12789e-05,4.62964e-06,5.36961e-05,4.24046e-05,1.67612e-05,2.442e-05
1409,7.62596e-06,-3.47032e-06,5.169e-05,4.07484e-05,2.26718e-05,1.89564e-05
1410,6.10636e-06,-1.52746e-05,4.68856e-05,3.74486e-05,1.88278e-05,9.99459e-06
1411,4.72962e-06,-2.25777e-05,4.13706e-05,3.738e-05,1.11518e-05,-1.24324e-06
1412,1.47894e-06,-1.77316e-05,4.25278e-05,4.15259e-05,9.53075e-06,-9.37602e-06
1413,-2.34104e-06,-5.34938e-06,5.04382e-05,4.50907e-05,2.42447e-05,-1.23135e-05
1414,-3.89902e-06,1.32009e-06,5.76563e-05,4.37006e-05,4.72457e-05,-1.41347e-05
1415,-3.22434e-06,-2.40792e-06,5.96816e-05,3.91736e-05,6.10813e-05,-2.16795e-05
1416,-1.75954e-06,-1.47291e-05,5.61325e-05,3.47338e-05,5.93759e-05,-3.09336e-05
1417,2.50582e-07,-2.88133e-05,5.16647e-05,3.14326e-05,4.70136e-05,-2.91182e-05
1418,1.74331e-06,-2.87289e-05,5.20703e-05,3.17344e-05,3.12174e-05,-1.45283e-05
1419,1.87403e-06,-1.62569e-05,5.70393e-05,3.3367e-05,1.43543e-05,-1.38163e-06
1420,8.29254e-07,-1.00776e-05,6.13586e-05,3.14396e-05,-6.40681e-06,-3.95259e-07
1421,6.26434e-07,-1.04572e-05,5.97488e-05,2.97181e-05,-2.92234e-05,-5.62248e-06
1422,1.35898e-06,-9.70805e-06,5.42567e-05,3.21471e-05,-4.3299e-05,-7.61877e-06
1423,4.45417e-06,-8.19055e-06,5.08986e-05,3.55677e-05,-3.96095e-05,-7.40035e-06
1424,9.11143e-06,-9.45162e-06,5.32715e-05,3.42014e-05,-2.07128e-05,-1.46971e-05
1425,1.24766e-05,-1.78789e-05,5.86352e-05,2.64666e-05,7.92254e-06,-2.83748e-05
1426,1.38105e-05,-2.53936e-05,5.93948e-05,2.12659e-05,3.53234e-05,-3.95532e-05
1427,1.47959e-05,-2.16345e-05,5.71485e-05,2.44998e-05,4.43501e-05,-4.34139e-05
1428,1.5333e-05,-1.00426e-05,5.52981e-05,3.13854e-05,3.59345e-05,-3.78034e-05
1429,1.61843e-05,-1.42367e-06,5.22091e-05,3.6496e-05,2.48999e-05,-2.72526e-05
1430,1.82933e-05,-1.50732e-06,5.28465e-05,3.66877e-05,1.60886e-05,-1.83594e-05
1431,1.99959e-05,-1.03222e-05,5.86274e-05,3.27605e-05,1.28977e-05,-1.3415e-05
1432,2.14537e-05,-1.99457e-05,5.95314e-05,3.1225e-05,2.21751e-05,-1.19755e-05
1433,1.99398e-05,-2.04229e-05,5.19794e-05,3.50439e-05,4.02016e-05,-1.34587e-05
1434,1.48688e-05,-1.33341e-05,4.44425e-05,3.86006e-05,5.91815e-05,-1.43053e-05
1435,1.03549e-05,-7.08269e-06,4.31315e-05,3.88242e-05,7.47362e-05,-1.19126e-05
1436,8.46942e-06,-6.55218e-06,4.44039e-05,3.82707e-05,8.16805e-05,-8.42062e-06
1437,1.00468e-05,-1.37126e-05,4.32145e-05,3.64387e-05,7.52162e-05,-6.63949e-06
1438,1.13092e-05,-2.40123e-05,3.99615e-05,3.44073e-05,5.78479e-05,-5.97483e-06
1439,6.80594e-06,-2.58939e-05,4.04966e-05,3.71792e-05,4.13326e-05,-6.91992e-06
1440,5.62799e-07,-1.79728e-05,4.60841e-05,4.31838e-05,3.34769e-05,-1.01819e-05
1441,-6.56658e-07,-9.48692e-06,5.5236e-05,4.79504e-05,3.1213e-05,-1.33779e-05
1442,1.42705e-06,-7.89183e-06,5.95094e-05,5.04642e-05,2.5569e-05,-1.76841e-05
1443,4.85389e-06,-1.53891e-05,5.59557e-05,4.84373e-05,2.07223e-05,-2.52479e-05
1444,7.56836e-06,-2.4414e-05,4.89307e-05,4.1792e-05,2.11996e-05,-3.52256e-05
1445,9.17667e-06,-1.96317e-05,4.55321e-05,3.58324e-05,2.43972e-05,-4.3464e-05
1446,1.06e-05,-7.13859e-06,4.73555e-05,3.214e-05,2.74969e-05,-4.52136e-05
1447,1.16102e-05,-4.04985e-06,4.9315e-05,3.05503e-05,2.87091e-05,-3.964e-05
1448,1.12657e-05,-4.02931e-06,4.74971e-05,3.27134e-05,2.622e-05,-2.78763e-05
1449,9.21089e-06,-8.36996e-07,4.22276e-05,3.53523e-05,2.05087e-05,-1.32627e-05
1450,6.53087e-06,1.03638e-06,3.93955e-05,3.50109e-05,1.43181e-05,5.65501e-06
1451,4.44511e-06,-7.11331e-07,4.11292e-05,3.16926e-05,8.19332e-06,2.75099e-05
1452,5.46652e-06,-6.95066e-06,4.35911e-05,2.76456e-05,6.25762e-06,3.71966e-05
1453,9.17092e-06,-1.09138e-05,4.55891e-05,2.76757e-05,1.09492e-05,2.80673e-05
1454,1.20767e-05,-6.84632e-06,4.77772e-05,3.27556e-05,1.72158e-05,1.12182e-05
1455,1.30002e-05,-7.8774e-08,4.62754e-05,3.74127e-05,2.31138e-05,-3.90376e-07
1456,1.29311e-05,2.07459e-06,4.31841e-05,3.92118e-05,3.29818e-05,-4.87398e-06
1457,1.15863e-05,-6.66812e-07,4.41725e-05,3.83948e-05,4.15279e-05,-5.16479e-06
1458,9.08855e-06,-7.19567e-06,5.10558e-05,3.28519e-05,4.40847e-05,-3.24978e-06
1459,7.08518e-06,-1.13954e-05,5.89723e-05,2.65562e-05,3.90343e-05,-1.51021e-07
1460,7.30263e-06,-6.54048e-06,6.14699e-05,2.61924e-05,2.71164e-05,3.57432e-06
1461,7.48506e-06,2.13669e-06,5.92061e-05,2.95895e-05,1.49366e-05,6.29409e-06
1462,1.01001e-05,4.5334e-06,5.95142e-05,3.18155e-05,4.54436e-06,6.76669e-06
1463,1.41379e-05,5.21288e-08,5.97086e-05,3.44336e-05,-1.73213e-05,7.35003e-06
1464,1.7142e-05,-6.41956e-06,5.60466e-05,3.82646e-05,-4.93417e-05,9.89523e-06
1465,1.91823e-05,-8.95711e-06,4.95343e-05,3.91832e-05,-6.91833e-05,1.20967e-05
1466,1.75162e-05,-1.96062e-06,4.63731e-05,3.75356e-05,-6.34104e-05,1.3141e-05
1467,1.3784e-05,8.79122e-06,4.86405e-05,3.76227e-05,-3.64297e-05,1.21297e-05
1468,1.10264e-05,1.19422e-05,5.46518e-05,4.05055e-05,-7.1187e-06,5.05236e-06
1469,1.03919e-05,5.42608e-06,5.61194e-05,4.33457e-05,1.14546e-05,-6.11566e-06
1470,1.15949e-05,-6.52878e-06,4.94524e-05,4.21716e-05,1.91386e-05,-1.27264e-05
1471,1.3934e-05,-1.69166e-05,4.34787e-05,3.9942e-05,2.31762e-05,-1.59467e-05
1472,1.35324e-05,-1.31338e-05,4.43907e-05,4.14404e-05,3.26224e-05,-2.09598e-05
1473,9.49928e-06,1.22767e-06,5.00275e-05,4.30063e-05,4.30465e-05,-2.28074e-05
1474,5.34928e-06,9.61554e-06,5.32407e-05,4.23181e-05,3.71167e-05,-1.43295e-05
1475,3.59313e-06,1.08728e-05,5.09902e-05,4.21813e-05,1.79824e-05,2.97091e-07
1476,3.56019e-06,8.40322e-06,4.50785e-05,4.24298e-05,5.43047e-06,7.61594e-06
1477,3.31785e-06,2.02576e-06,4.27089e-05,4.35089e-05,4.82174e-06,2.0949e-06
1478,1.95244e-06,-4.82817e-06,4.64473e-05,4.17609e-05,5.42719e-06,-6.91877e-06
1479,1.83996e-06,-1.15502e-05,5.18882e-05,3.3951e-05,-1.87595e-08,-8.27732e-06
1480,6.01514e-06,-1.31125e-05,5.23212e-05,2.8042e-05,-8.22429e-06,-2.56829e-06
1481,1.34149e-05,-5.11876e-06,5.03881e-05,3.05738e-05,-1.42521e-05,1.22308e-06
1482,1.96178e-05,3.56762e-06,4.99635e-05,3.69713e-05,-1.46807e-05,-1.06953e-06
1483,2.10849e-05,3.85878e-06,5.05325e-05,4.05359e-05,-1.21367e-05,-7.21848e-06
1484,2.0597e-05,-2.33879e-06,5.24996e-05,4.16782e-05,-1.01628e-05,-1.38865e-05
1485,2.07704e-05,-9.9238e-06,5.64281e-05,4.05914e-05,-4.01487e-06,-1.94066e-05
1486,1.83674e-05,-1.19483e-05,6.05925e-05,3.97497e-05,9.81017e-06,-2.21703e-05
1487,1.46557e-05,-5.05523e-06,6.15066e-05,4.35304e-05,1.69021e-05,-2.12415e-05
1488,1.42349e-05,2.77294e-06,5.35379e-05,4.91533e-05,1.5498e-05,-1.89183e-05
1489,1.5241e-05,1.91655e-06,4.48611e-05,5.10746e-05,1.57912e-05,-1.79742e-05
1490,1.3764e-05,-7.06013e-06,4.37607e-05,4.86212e-05,1.79975e-05,-1.85804e-05
1491,1.31668e-05,-1.85582e-05,4.39263e-05,4.38389e-05,2.25202e-05,-1.83991e-05
1492,1.5891e-05,-2.57403e-05,4.46852e-05,4.11146e-05,1.99581e-05,-1.44863e-05
1493,1.7971e-05,-2.09493e-05,4.82286e-05,4.39371e-05,9.32602e-06,-6.12542e-06
1494,1.77603e-05,-9.28464e-06,4.94549e-05,4.80416e-05,2.52679e-07,3.23047e-06
1495,1.53928e-05,-3.60666e-06,4.83035e-05,4.89496e-05,9.85018e-08,8.63194e-06
1496,1.4261e-05,-7.04608e-06,4.70648e-05,4.74786e-05,3.4058e-06,6.23948e-06
1497,1.56016e-05,-1.75815e-05,4.5409e-05,4.37633e-05,3.5584e-06,-2.05424e-06
1498,1.61792e-05,-2.85682e-05,4.76097e-05,3.91036e-05,-1.23678e-06,-8.17087e-06
1499,1.34506e-05,-2.56054e-05,5.39443e-05,3.80499e-05,-7.79036e-06,-7.15989e-06
1500,9.66921e-06,-1.40615e-05,5.87952e-05,3.66955e-05,-9.44395e-06,-2.75801e-06
1501,6.45937e-06,-1.1586e-05,6.01986e-05,3.26873e-05,-3.31251e-06,-1.51691e-06
1502,4.63913e-06,-1.49599e-05,5.82068e-05,3.3513e-05,1.05357e-05,-3.94685e-06
1503,5.59218e-06,-1.58313e-05,5.21732e-05,3.79028e-05,2.2818e-05,-5.46182e-06
1504,1.00404e-05,-1.18845e-05,5.00437e-05,4.03151e-05,1.80978e-05,-4.24491e-06
1505,1.52593e-05,-7.89835e-06,5.6828e-05,3.89706e-05,-3.11249e-06,-3.71621e-06
1506,1.86542e-05,-1.42122e-05,6.45177e-05,3.30404e-05,-1.48809e-05,-5.0087e-06
1507,2.23317e-05,-2.24405e-05,6.43614e-05,2.87885e-05,-6.10034e-06,-6.36787e-06
1508,2.61004e-05,-1.84752e-05,5.6945e-05,3.12793e-05,1.00056e-05,-8.54e-06
1509,2.80967e-05,-6.54337e-06,5.00968e-05,3.74244e-05,1.93385e-05,-1.15157e-05
1510,2.63321e-05,2.31444e-07,5.0279e-05,4.19459e-05,2.1432e-05,-1.50693e-05
1511,2.23466e-05,-2.63621e-06,5.58769e-05,4.17611e-05,1.7453e-05,-2.12427e-05
1512,2.20124e-05,-1.16318e-05,5.9483e-05,3.57383e-05,1.35974e-05,-2.98399e-05
1513,2.77795e-05,-1.78116e-05,5.90016e-05,2.80249e-05,1.70045e-05,-3.48065e-05
1514,3.18845e-05,-1.34292e-05,5.63518e-05,2.57149e-05,2.10609e-05,-3.23821e-05
1515,3.2262e-05,-1.83207e-06,5.44765e-05,2.81064e-05,2.60583e-05,-2.56602e-05
1516,2.90981e-05,6.81259e-06,5.75171e-05,2.83817e-05,3.2321e-05,-1.89069e-05
1517,2.49631e-05,6.9815e-06,5.86435e-05,2.55617e-05,3.62196e-05,-1.40731e-05
1518,2.42763e-05,8.30023e-08,5.33904e-05,2.23693e-05,3.92755e-05,-1.26255e-05
1519,2.5692e-05,-6.18828e-06,4.86794e-05,2.13915e-05,3.79467e-05,-1.49814e-05
1520,2.8413e-05,-2.39351e-06,5.05176e-05,2.67237e-05,3.37011e-05,-1.80812e-05
1521,2.83879e-05,8.00499e-06,5.46094e-05,3.53449e-05,3.18202e-05,-1.9752e-05
1522,2.34577e-05,1.42436e-05,5.58949e-05,3.88872e-05,3.24863e-05,-2.01026e-05
1523,1.64304e-05,1.15443e-05,5.42286e-05,3.5243e-05,2.89259e-05,-1.9384e-05
1524,1.2786e-05,1.34842e-07,5.1342e-05,2.91946e-05,1.78833e-05,-1.73965e-05
1525,1.03284e-05,-1.2152e-05,4.81942e-05,2.57591e-05,1.16472e-06,-1.34881e-05
1526,6.72249e-06,-1.0686e-05,4.64302e-05,2.64599e-05,-1.30948e-05,-9.84244e-06
1527,4.05293e-06,-7.4876e-08,4.62316e-05,2.75518e-05,-1.68393e-05,-8.62093e-06
1528,3.06633e-06,5.08255e-06,4.48592e-05,2.77939e-05,-1.11147e-05,-8.96849e-06
1529,3.22104e-06,7.66152e-06,4.4662e-05,3.16066e-05,-8.57172e-07,-1.11405e-05
1530,4.14408e-06,1.09945e-05,4.70991e-05,3.73442e-05,1.14981e-05,-1.46929e-05
1531,4.85593e-06,1.29453e-05,4.93615e-05,4.15852e-05,1.99875e-05,-1.80464e-05
1532,3.85141e-06,1.03065e-05,4.94582e-05,4.33974e-05,1.75211e-05,-1.92736e-05
1533,2.25685e-06,-2.71266e-07,4.83728e-05,4.11543e-05,1.09074e-05,-1.60154e-05
1534,2.40987e-06,-8.97491e-06,4.72452e-05,3.83559e-05,9.13949e-06,-8.49226e-06
1535,5.74588e-06,-5.42512e-06,4.65213e-05,3.91796e-05,1.36581e-05,-1.2712e-06
1536,8.74606e-06,4.70956e-06,4.38155e-05,4.2219e-05,1.82107e-05,1.94798e-06
1537,9.94455e-06,8.92282e-06,4.22004e-05,4.32477e-05,1.8177e-05,1.67037e-06
1538,8.0869e-06,2.68887e-06,4.74405e-05,4.02611e-05,1.10332e-05,3.11078e-07
1539,3.68248e-06,-9.75506e-06,5.60583e-05,3.60532e-05,5.26349e-06,-1.41256e-06
1540,1.19498e-06,-1.74731e-05,5.98259e-05,3.68771e-05,1.61569e-05,-5.68615e-06
1541,2.54725e-06,-1.36276e-05,5.81815e-05,4.19165e-05,3.30832e-05,-1.2127e-05
1542,6.11773e-06,-6.46722e-06,5.61988e-05,4.46575e-05,4.1536e-05,-1.68659e-05
1543,8.82619e-06,-6.06961e-06,5.57472e-05,4.18626e-05,4.29473e-05,-1.86578e-05
1544,9.90233e-06,-1.14101e-05,5.28757e-05,3.54538e-05,3.80607e-05,-1.87507e-05
1545,1.01265e-05,-1.88152e-05,4.72295e-05,3.16061e-05,3.69609e-05,-1.67079e-05
1546,8.1316e-06,-2.48482e-05,4.23998e-05,3.64051e-05,4.07874e-05,-1.44623e-05
