Time_Index,DELTOID_Affected,DELTOID_NonAffected,BICEPS_Affected,BICEPS_NonAffected,FOREARM_Affected,FOREARM_NonAffected
1,4.63258e-06,-1.82222e-05,4.37223e-05,3.6233e-05,3.57504e-05,-9.99854e-06
2,4.50986e-06,-2.3891e-05,5.01844e-05,3.76784e-05,3.39539e-05,-8.27101e-06
3,6.57607e-06,-1.3186e-05,5.53185e-05,4.83968e-05,3.76749e-05,-1.12016e-05
4,8.51613e-06,-4.66607e-06,5.7811e-05,5.0705e-05,4.14499e-05,-2.18121e-05
5,9.07272e-06,-2.22701e-06,5.85742e-05,4.83296e-05,4.03384e-05,-2.95203e-05
6,8.72646e-06,-1.39685e-06,5.62282e-05,4.82582e-05,3.64759e-05,-2.58158e-05
7,7.23155e-06,-6.70433e-07,5.25993e-05,4.55771e-05,3.1275e-05,-1.88109e-05
8,4.66457e-06,-2.60017e-08,5.19051e-05,4.73106e-05,2.47744e-05,-1.80388e-05
9,2.97414e-06,-9.24001e-06,5.41284e-05,4.67172e-05,1.81866e-05,-1.8879e-05
10,3.24305e-06,-2.04513e-05,5.50846e-05,4.21258e-05,1.19518e-05,-1.90514e-05
11,3.23108e-06,-1.76974e-05,5.09849e-05,4.10306e-05,4.2234e-06,-1.64898e-05
12,1.0673e-06,-5.72127e-06,4.53106e-05,4.34701e-05,-6.70859e-06,-7.46288e-06
13,-2.43392e-06,2.11426e-06,4.24986e-05,4.35682e-05,-2.05702e-05,1.79649e-06
14,-5.4492e-06,3.83288e-06,4.45396e-05,4.25319e-05,-2.95248e-05,3.89147e-06
15,-7.80272e-06,-2.8738e-06,4.70816e-05,4.04127e-05,-2.08074e-05,-2.01215e-06
16,-8.02833e-06,-1.3141e-05,4.36341e-05,3.50076e-05,-1.05849e-06,-5.94442e-06
17,-4.1719e-06,-1.21576e-05,4.00997e-05,3.48001e-05,1.39765e-05,-4.85897e-06
18,-3.06919e-07,8.64947e-07,4.15566e-05,4.13001e-05,2.37648e-05,-4.60872e-06
19,3.79475e-07,1.09833e-05,4.11136e-05,4.45889e-05,2.99913e-05,-9.07897e-06
20,3.84321e-08,1.01055e-05,3.89244e-05,4.0499e-05,3.13869e-05,-1.254e-05
21,4.74527e-07,1.84038e-06,3.98994e-05,3.36085e-05,2.70446e-05,-1.04983e-05
22,2.26534e-06,-8.13322e-06,4.394e-05,2.78344e-05,2.59997e-05,-6.22822e-06
23,4.76458e-06,-8.26946e-06,4.54157e-05,3.05496e-05,3.68852e-05,-2.99322e-06
24,6.66047e-06,2.58261e-06,4.52212e-05,3.90507e-05,5.24221e-05,-1.55784e-06
25,8.57105e-06,1.0267e-05,4.809e-05,4.25277e-05,5.9921e-05,-2.50155e-06
26,1.05337e-05,8.46093e-06,5.25305e-05,3.80168e-05,5.54418e-05,-5.48109e-06
27,1.06618e-05,-1.19318e-06,5.58561e-05,3.08531e-05,4.54009e-05,-5.75187e-06
28,1.02201e-05,-1.92719e-05,5.81331e-05,2.46421e-05,3.49428e-05,-4.61417e-06
29,1.26209e-05,-2.51087e-05,5.96838e-05,2.73928e-05,2.58361e-05,-7.34936e-06
30,1.70957e-05,-8.15022e-06,5.97341e-05,4.14742e-05,1.83597e-05,-1.27037e-05
31,1.98369e-05,4.6971e-06,5.68468e-05,4.92018e-05,1.00299e-05,-1.33677e-05
32,1.85779e-05,5.42695e-06,4.98703e-05,4.59226e-05,1.16977e-07,-9.33555e-06
33,1.45412e-05,3.79395e-06,4.34464e-05,4.04249e-05,-5.75536e-06,-7.23344e-06
34,1.00272e-05,1.41321e-06,4.3989e-05,3.92206e-05,-3.6442e-06,-8.07433e-06
35,6.66683e-06,7.42227e-07,5.05283e-05,4.05413e-05,2.58338e-06,-7.98917e-06
36,6.21691e-06,-4.00788e-06,5.23304e-05,3.56517e-05,7.28296e-06,-8.1515e-06
37,9.0968e-06,-1.31952e-05,4.68911e-05,2.74929e-05,6.89462e-06,-1.39097e-05
38,1.37371e-05,-1.47696e-05,4.23574e-05,2.61921e-05,7.04094e-07,-2.01215e-05
39,1.75657e-05,-6.04472e-06,4.21855e-05,3.18867e-05,-8.96452e-06,-1.60137e-05
40,2.0297e-05,3.09965e-07,4.24287e-05,3.49213e-05,-1.67508e-05,-3.73004e-06
41,2.22529e-05,6.31906e-07,4.22797e-05,3.36878e-05,-1.60027e-05,7.48393e-06
42,2.24432e-05,-8.31336e-06,4.52879e-05,3.12177e-05,-6.17305e-06,1.1518e-05
43,2.07824e-05,-2.17763e-05,4.90499e-05,2.97717e-05,6.60862e-06,6.20979e-06
44,1.83141e-05,-2.48001e-05,4.88236e-05,2.98004e-05,2.27632e-05,-4.62281e-06
45,1.76777e-05,-1.33832e-05,4.87423e-05,3.18245e-05,4.17435e-05,-1.37197e-05
46,2.06866e-05,-1.43598e-06,4.9017e-05,3.53126e-05,4.93974e-05,-1.98629e-05
47,2.45894e-05,1.8358e-06,4.63796e-05,3.79969e-05,4.21521e-05,-2.41622e-05
48,2.59982e-05,-3.77344e-06,4.53212e-05,3.62037e-05,2.91923e-05,-2.77671e-05
49,2.44118e-05,-1.43777e-05,5.09224e-05,2.8926e-05,2.06507e-05,-3.22899e-05
50,2.27675e-05,-1.41671e-05,5.79897e-05,2.51922e-05,1.67544e-05,-3.71544e-05
51,2.27889e-05,1.20728e-06,5.90768e-05,3.0129e-05,1.21953e-05,-3.82287e-05
52,2.30623e-05,1.46928e-05,5.65351e-05,3.64155e-05,4.47077e-06,-3.34896e-05
53,2.40014e-05,1.51226e-05,5.35752e-05,3.68195e-05,-8.68027e-06,-2.07593e-05
54,2.43929e-05,9.1774e-06,5.01733e-05,2.77966e-05,-2.42652e-05,2.75906e-06
55,2.09722e-05,-4.65903e-06,5.03418e-05,1.49825e-05,-3.28324e-05,2.10758e-05
56,1.42493e-05,-1.08466e-05,5.62587e-05,1.63246e-05,-2.43766e-05,1.92188e-05
57,9.8591e-06,2.85738e-06,6.07573e-05,2.83263e-05,-3.91717e-06,1.10344e-05
58,1.15432e-05,1.0699e-05,5.83332e-05,3.21372e-05,1.16703e-05,5.35779e-06
59,1.58935e-05,8.29138e-06,5.23965e-05,2.66854e-05,1.44748e-05,-8.96656e-07
60,1.77446e-05,7.04902e-06,4.78841e-05,2.35376e-05,1.15586e-05,-9.48096e-06
61,1.62111e-05,5.27043e-06,4.72392e-05,2.64136e-05,8.71506e-06,-1.62305e-05
62,1.43767e-05,4.25926e-06,5.04742e-05,2.99441e-05,8.64599e-06,-1.65621e-05
63,1.41521e-05,-6.18397e-06,5.38601e-05,2.7767e-05,1.17683e-05,-1.55404e-05
64,1.40215e-05,-2.03985e-05,5.56563e-05,2.51089e-05,1.48228e-05,-1.37271e-05
65,1.39916e-05,-1.78706e-05,5.43644e-05,3.03718e-05,1.60617e-05,-1.28249e-05
66,1.42418e-05,-1.15057e-06,5.24627e-05,3.92791e-05,1.40125e-05,-1.07367e-05
67,1.32115e-05,9.15569e-06,5.48866e-05,4.33717e-05,7.47922e-06,-2.03222e-06
68,1.0834e-05,6.65345e-06,5.83918e-05,4.28992e-05,3.75465e-06,1.04687e-05
69,9.4665e-06,-5.73953e-06,5.90315e-05,3.86863e-05,9.17581e-06,1.83497e-05
70,9.82587e-06,-1.65812e-05,5.45219e-05,3.43655e-05,1.81459e-05,1.58097e-05
71,1.13327e-05,-1.33433e-05,4.77365e-05,3.63922e-05,3.24558e-05,2.2559e-06
72,1.13881e-05,-1.83282e-07,4.39147e-05,4.20194e-05,5.48482e-05,-1.16705e-05
73,1.03588e-05,6.68378e-06,4.4016e-05,4.35855e-05,7.67128e-05,-1.42995e-05
74,1.22838e-05,1.78766e-06,4.59402e-05,4.02417e-05,9.06489e-05,-1.04122e-05
75,1.33951e-05,-9.42452e-06,4.91233e-05,3.53262e-05,8.9721e-05,-1.09753e-05
76,1.02109e-05,-2.21594e-05,5.48578e-05,3.03217e-05,7.29212e-05,-1.48385e-05
77,5.11743e-06,-2.34686e-05,5.6454e-05,3.17229e-05,4.83337e-05,-1.59462e-05
78,1.29905e-06,-9.40648e-06,5.4316e-05,4.01566e-05,2.03208e-05,-1.40773e-05
79,-1.91433e-06,3.01207e-06,5.1227e-05,4.54711e-05,-1.50233e-05,-1.21686e-05
80,-2.74867e-06,3.3155e-06,4.64672e-05,4.54099e-05,-5.09417e-05,-1.4167e-05
81,-5.97022e-07,-2.18443e-06,4.36561e-05,4.17384e-05,-6.83825e-05,-1.82581e-05
82,1.93698e-06,-1.3546e-05,4.62641e-05,3.07605e-05,-5.81737e-05,-1.91711e-05
83,3.92436e-06,-1.98075e-05,5.1932e-05,2.37777e-05,-2.9238e-05,-1.74524e-05
84,3.93863e-06,-1.01363e-05,5.65048e-05,2.68543e-05,2.58386e-06,-1.24399e-05
85,2.89641e-06,-4.41696e-06,5.91861e-05,3.1456e-05,2.44315e-05,-7.1716e-06
86,4.06284e-06,-4.57073e-06,5.76608e-05,3.45065e-05,2.95902e-05,-3.31215e-06
87,6.47486e-06,-7.19477e-07,5.16337e-05,3.37696e-05,2.02063e-05,-1.36266e-06
88,5.71134e-06,-9.71489e-07,4.64023e-05,3.50384e-05,2.7735e-06,-2.01918e-06
89,2.97309e-06,-2.93924e-06,4.59164e-05,4.19909e-05,-1.59324e-05,-2.3909e-06
90,2.74699e-06,-1.21555e-05,4.67209e-05,4.32147e-05,-3.00736e-05,-5.32912e-06
91,5.853e-06,-2.1745e-05,4.75625e-05,3.68027e-05,-3.28323e-05,-4.92124e-06
92,7.13171e-06,-1.64614e-05,4.88818e-05,3.53445e-05,-2.24785e-05,-3.92047e-06
93,6.3522e-06,-1.8884e-06,4.84536e-05,3.88e-05,-9.63854e-06,-6.52753e-06
94,6.23303e-06,5.11135e-06,4.84968e-05,3.81543e-05,-8.1001e-06,-1.32768e-05
95,5.74597e-06,4.77205e-06,5.25358e-05,3.59202e-05,-9.47322e-06,-1.98326e-05
96,5.93594e-06,-3.73589e-06,5.88164e-05,3.47041e-05,-3.41405e-07,-2.01063e-05
97,8.35978e-06,-1.68352e-05,5.9298e-05,3.44709e-05,8.2588e-06,-1.62341e-05
98,1.21536e-05,-1.95048e-05,5.38611e-05,3.56553e-05,8.97622e-06,-1.42911e-05
99,1.38953e-05,-8.12922e-06,5.04884e-05,3.84556e-05,9.17562e-06,-1.61676e-05
100,1.25085e-05,3.56362e-06,4.83355e-05,3.9943e-05,1.1392e-05,-1.62097e-05
101,1.04075e-05,4.46299e-06,4.51737e-05,3.94742e-05,1.13686e-05,-1.1845e-05
102,9.3195e-06,-4.22154e-06,4.53158e-05,3.68971e-05,5.79841e-06,-8.62951e-06
103,1.06003e-05,-1.67364e-05,5.07097e-05,3.22199e-05,1.34111e-06,-1.33441e-05
104,1.2964e-05,-1.61968e-05,5.32254e-05,3.21168e-05,4.92519e-06,-1.78577e-05
105,1.35819e-05,-2.31272e-06,5.21065e-05,3.89653e-05,1.45453e-05,-1.74105e-05
106,1.14097e-05,6.38556e-06,5.21887e-05,4.33018e-05,2.16657e-05,-1.66271e-05
107,1.06921e-05,1.94584e-06,5.40801e-05,4.23572e-05,2.26843e-05,-1.80387e-05
108,1.20565e-05,-8.00842e-06,5.49841e-05,4.0633e-05,2.07865e-05,-1.97767e-05
109,1.10352e-05,-2.24653e-05,5.5628e-05,3.66813e-05,1.69892e-05,-1.83056e-05
110,7.19947e-06,-2.92892e-05,5.72511e-05,4.01464e-05,1.13813e-05,-1.22122e-05
111,4.6288e-06,-1.79996e-05,5.80102e-05,5.09558e-05,7.1023e-06,-6.95521e-06
112,6.17745e-06,-7.83818e-06,5.78401e-05,5.08982e-05,8.31752e-06,-3.98549e-06
113,1.02304e-05,-6.60948e-06,5.67692e-05,4.53185e-05,1.45657e-05,-2.99966e-06
114,1.40998e-05,-7.78589e-06,5.46959e-05,4.73899e-05,2.00088e-05,-1.52873e-06
115,1.56705e-05,-1.19599e-05,5.24973e-05,4.84379e-05,2.20395e-05,2.08725e-07
116,1.45988e-05,-1.38033e-05,5.18817e-05,4.69944e-05,2.41708e-05,4.73877e-07
117,1.24755e-05,-2.37266e-05,5.21996e-05,4.3958e-05,2.73498e-05,-6.04025e-07
118,1.17424e-05,-3.72257e-05,5.33023e-05,4.11428e-05,3.03374e-05,-3.67624e-06
119,1.18718e-05,-3.31138e-05,5.11965e-05,4.58503e-05,3.2615e-05,-3.87807e-06
120,1.26308e-05,-1.58146e-05,4.54128e-05,5.27338e-05,2.82588e-05,-1.37366e-06
121,1.30445e-05,-6.33453e-06,4.38346e-05,5.33505e-05,1.09547e-05,-1.59862e-06
122,1.18005e-05,-6.99004e-06,4.56789e-05,4.74542e-05,-6.1757e-06,-3.8221e-06
123,1.14312e-05,-1.49363e-05,4.54816e-05,3.72497e-05,-9.56498e-06,-4.93242e-06
124,1.29613e-05,-2.52405e-05,4.51912e-05,2.8671e-05,-3.82399e-06,-4.69813e-06
125,1.48599e-05,-2.73996e-05,4.58469e-05,3.02467e-05,1.40766e-05,-2.33064e-06
126,1.47158e-05,-2.04288e-05,5.02479e-05,3.93035e-05,4.47771e-05,1.13779e-06
127,1.20507e-05,-1.38774e-05,5.50936e-05,4.43575e-05,6.99175e-05,3.73233e-06
128,1.23581e-05,-1.47021e-05,5.39478e-05,4.33698e-05,7.74325e-05,3.71168e-08
129,1.58016e-05,-2.25405e-05,4.99129e-05,4.01476e-05,6.45272e-05,-6.06072e-06
130,1.81004e-05,-3.35308e-05,4.97533e-05,3.61868e-05,3.53203e-05,-6.88144e-06
131,1.69319e-05,-3.18732e-05,5.23422e-05,3.96461e-05,9.85546e-06,-2.23725e-06
132,1.24478e-05,-1.60009e-05,5.55188e-05,5.14588e-05,6.86453e-06,7.35245e-07
133,9.36414e-06,-1.90881e-06,5.93024e-05,5.55302e-05,2.02405e-05,-1.54399e-06
134,1.06294e-05,1.17003e-07,6.19606e-05,5.0099e-05,3.39439e-05,-6.90162e-06
135,1.28659e-05,-9.08068e-06,6.09831e-05,4.22551e-05,3.74587e-05,-1.37091e-05
136,1.23645e-05,-2.6265e-05,5.76177e-05,3.25089e-05,3.31252e-05,-1.65619e-05
137,1.0507e-05,-3.34952e-05,5.59681e-05,2.79391e-05,2.89423e-05,-1.44337e-05
138,9.66211e-06,-1.72162e-05,5.63366e-05,3.30798e-05,2.83556e-05,-1.11575e-05
139,1.0777e-05,-2.33561e-06,5.67813e-05,3.91069e-05,3.07914e-05,-7.00258e-06
140,1.308e-05,1.03587e-06,5.40927e-05,4.08597e-05,3.38567e-05,9.99018e-07
141,1.53461e-05,3.33429e-06,5.02421e-05,4.20121e-05,3.2052e-05,3.57284e-06
142,1.61882e-05,4.16484e-06,5.17832e-05,4.13115e-05,2.25108e-05,-3.22637e-06
143,1.50701e-05,6.3243e-06,5.94148e-05,3.68069e-05,1.50518e-05,-1.25454e-05
144,1.38988e-05,-1.38588e-06,6.47081e-05,3.15311e-05,1.73271e-05,-2.08897e-05
145,1.53102e-05,-1.39533e-05,6.26384e-05,3.08977e-05,2.32214e-05,-2.24184e-05
146,1.82858e-05,-1.49724e-05,5.543e-05,3.39113e-05,2.45118e-05,-1.68823e-05
147,2.03142e-05,-4.23399e-06,4.85407e-05,3.77024e-05,2.24896e-05,-1.02543e-05
148,1.93428e-05,1.79436e-06,4.7454e-05,3.8894e-05,1.71324e-05,-5.80454e-06
149,1.66743e-05,-1.23765e-06,5.23604e-05,4.00171e-05,8.65135e-06,-3.48602e-06
150,1.61749e-05,-1.02078e-05,5.75957e-05,3.96174e-05,4.03119e-06,-2.18279e-06
151,1.57128e-05,-1.96345e-05,6.00948e-05,3.66507e-05,4.38902e-06,-1.08478e-06
152,1.54179e-05,-1.71071e-05,5.87137e-05,3.70248e-05,5.54106e-06,-9.05067e-07
153,1.6903e-05,-2.32444e-06,5.63573e-05,4.48669e-05,5.73474e-06,-1.78366e-06
154,1.80406e-05,1.08814e-05,5.34436e-05,5.28423e-05,2.59669e-06,-2.41271e-06
155,1.95841e-05,1.29231e-05,4.91985e-05,5.17188e-05,5.58537e-07,-4.94141e-06
156,2.30083e-05,3.97339e-06,4.75812e-05,4.16541e-05,4.07074e-06,-1.03188e-05
157,2.49285e-05,-1.11687e-05,4.96956e-05,2.94269e-05,1.3319e-05,-1.43708e-05
158,2.3713e-05,-1.46045e-05,5.19806e-05,2.66346e-05,2.3114e-05,-1.60569e-05
159,2.32723e-05,-1.44802e-06,5.26012e-05,3.44562e-05,2.65658e-05,-1.86693e-05
160,2.30363e-05,1.44119e-05,5.21093e-05,4.13888e-05,2.30804e-05,-2.18466e-05
161,2.23744e-05,1.87834e-05,4.97998e-05,3.9565e-05,1.89846e-05,-2.29494e-05
162,2.31566e-05,1.13099e-05,4.74982e-05,3.16662e-05,1.48718e-05,-2.38279e-05
163,2.36564e-05,-4.54931e-06,4.89619e-05,2.24089e-05,5.02538e-06,-2.72211e-05
164,2.00331e-05,-9.39613e-06,5.39094e-05,1.9784e-05,-9.77261e-06,-2.86103e-05
165,1.441e-05,3.51895e-06,5.70348e-05,2.45028e-05,-2.62257e-05,-1.69771e-05
166,1.26003e-05,1.04949e-05,5.60053e-05,2.77347e-05,-4.25396e-05,-1.82656e-06
167,1.45262e-05,1.09453e-05,5.12715e-05,2.91812e-05,-5.20744e-05,-2.81212e-06
168,1.44233e-05,1.30459e-05,4.57393e-05,3.18378e-05,-4.7603e-05,-1.83762e-05
169,9.58956e-06,1.39186e-05,4.42966e-05,3.14595e-05,-3.44828e-05,-3.57131e-05
170,4.28821e-06,1.21906e-05,4.84206e-05,2.94759e-05,-1.98827e-05,-4.18753e-05
171,3.43603e-06,2.0081e-06,5.1502e-05,2.39773e-05,-6.43161e-06,-3.86496e-05
172,6.08543e-06,-1.15037e-05,4.94066e-05,2.11541e-05,2.63117e-06,-3.32597e-05
173,8.82171e-06,-1.14266e-05,4.56122e-05,2.4422e-05,4.66027e-06,-2.85105e-05
174,9.95999e-06,1.30525e-06,4.4029e-05,2.97578e-05,1.82917e-06,-2.36696e-05
175,7.38055e-06,1.04773e-05,4.5839e-05,3.30602e-05,-1.39898e-07,-1.57943e-05
176,3.21183e-06,1.31765e-05,4.72872e-05,3.26331e-05,6.17032e-06,-9.65547e-06
177,6.25097e-07,4.26111e-06,4.62863e-05,2.98319e-05,1.90909e-05,-8.67247e-06
178,1.1304e-06,-1.13609e-05,4.46769e-05,3.01292e-05,3.05145e-05,-9.98634e-06
179,3.72938e-06,-1.75207e-05,4.28544e-05,3.78733e-05,4.08315e-05,-3.84082e-06
180,5.33559e-06,-9.03631e-06,4.2335e-05,4.62296e-05,4.91266e-05,1.16637e-05
181,5.67669e-06,-1.02505e-06,4.23185e-05,4.84687e-05,5.17541e-05,2.23046e-05
182,6.51816e-06,-3.16088e-06,4.06443e-05,4.53412e-05,4.97969e-05,1.7447e-05
183,6.69328e-06,-1.16198e-05,4.19125e-05,4.1255e-05,4.16514e-05,4.68403e-06
184,5.945e-06,-2.11487e-05,4.90419e-05,3.80248e-05,2.9857e-05,-2.28938e-06
185,7.03671e-06,-2.21183e-05,5.75428e-05,4.1611e-05,2.09745e-05,-4.58405e-07
186,8.28177e-06,-1.33314e-05,6.04291e-05,4.94925e-05,1.52421e-05,3.92728e-06
187,6.92118e-06,-5.78559e-06,5.60409e-05,5.2192e-05,7.87298e-06,3.66607e-06
188,5.3546e-06,-3.57503e-06,4.92343e-05,4.84476e-05,-2.05605e-07,1.65182e-06
189,6.85139e-06,-5.38435e-06,4.51175e-05,4.50472e-05,-3.54871e-06,1.95833e-06
190,9.28449e-06,-1.76613e-05,4.65076e-05,4.13699e-05,2.42591e-06,8.464e-07
191,9.53072e-06,-2.40594e-05,5.01814e-05,3.81004e-05,1.67086e-05,-5.52387e-06
192,6.82565e-06,-1.2575e-05,5.07975e-05,4.04018e-05,3.17294e-05,-9.37088e-06
193,2.25006e-06,-6.45893e-06,4.67403e-05,4.08527e-05,3.95491e-05,-2.95125e-06
194,-1.35422e-06,-9.54702e-06,3.94603e-05,3.84919e-05,3.50014e-05,-2.04848e-06
195,-1.95263e-06,-5.70979e-06,3.31778e-05,3.93292e-05,1.95781e-05,-8.63025e-06
196,-1.63882e-06,9.34234e-09,3.28859e-05,3.91659e-05,2.73928e-06,-1.21022e-05
197,-7.87397e-07,3.63736e-07,3.80426e-05,3.86015e-05,-5.68374e-06,-1.02526e-05
198,3.63918e-06,-9.98611e-06,4.15869e-05,3.34238e-05,-6.22907e-06,-6.68969e-06
199,1.0349e-05,-2.05431e-05,4.16361e-05,2.96333e-05,-4.88694e-06,-6.38601e-06
200,1.57839e-05,-1.78021e-05,4.18971e-05,3.51432e-05,-2.61709e-06,-8.12863e-06
201,1.87809e-05,-3.54962e-06,4.33671e-05,4.26571e-05,3.35829e-06,-9.19227e-06
202,2.0349e-05,6.78063e-06,4.65295e-05,4.31769e-05,1.33871e-05,-7.08065e-06
203,2.34193e-05,7.98722e-06,4.8956e-05,3.99388e-05,2.96946e-05,-4.92563e-06
204,2.81037e-05,5.21528e-07,4.98923e-05,3.93648e-05,4.7269e-05,-4.11407e-06
205,3.01264e-05,-8.12049e-06,5.13892e-05,3.89195e-05,5.70276e-05,-8.09408e-06
206,2.85215e-05,-6.3431e-06,5.27367e-05,3.90805e-05,6.63334e-05,-1.32433e-05
207,2.49186e-05,2.17172e-06,5.02231e-05,4.12596e-05,7.64472e-05,-1.40843e-05
208,2.19174e-05,5.5133e-06,4.66836e-05,4.42513e-05,7.37539e-05,-1.14102e-05
209,2.22211e-05,1.68743e-06,4.78182e-05,4.56609e-05,5.53204e-05,-9.33324e-06
210,2.53732e-05,-6.7533e-06,5.12421e-05,4.45928e-05,2.37311e-05,-8.85037e-06
211,2.75544e-05,-1.9928e-05,5.46634e-05,3.72948e-05,-1.64925e-05,-7.71891e-06
212,2.68513e-05,-2.38002e-05,5.5122e-05,3.01022e-05,-5.40212e-05,-4.31922e-06
213,2.56328e-05,-1.31702e-05,5.49716e-05,3.24045e-05,-7.63829e-05,1.63884e-06
214,2.54646e-05,-2.36102e-06,5.59014e-05,3.87167e-05,-7.9009e-05,6.03251e-06
215,2.63518e-05,-3.08504e-06,5.60163e-05,4.1208e-05,-5.98015e-05,7.35198e-06
216,2.61804e-05,-1.0727e-05,5.41925e-05,3.75646e-05,-2.37716e-05,1.06339e-05
217,2.25553e-05,-2.36095e-05,5.26558e-05,2.88874e-05,1.43918e-05,1.14019e-05
218,1.63724e-05,-2.57376e-05,5.39421e-05,2.54679e-05,4.54503e-05,2.53174e-06
219,9.40174e-06,-7.50783e-06,5.80484e-05,3.40467e-05,6.78937e-05,-7.48449e-06
220,3.39185e-06,3.6693e-06,6.20653e-05,4.69145e-05,7.91552e-05,-1.24862e-05
221,7.15251e-07,5.53527e-06,6.17488e-05,5.4913e-05,7.42462e-05,-1.68525e-05
222,3.74531e-07,9.72549e-06,5.84578e-05,5.53758e-05,5.21085e-05,-2.00606e-05
223,-1.29633e-06,9.19189e-06,5.71526e-05,5.03354e-05,1.90077e-05,-2.44535e-05
224,-4.69584e-06,4.52443e-06,6.06885e-05,4.45046e-05,-1.34685e-05,-3.31272e-05
225,-6.33018e-06,-7.92626e-06,6.60286e-05,3.68508e-05,-3.74271e-05,-3.26323e-05
226,-3.22107e-06,-2.17222e-05,6.62868e-05,3.16314e-05,-4.97473e-05,-2.22409e-05
227,3.82222e-06,-2.12654e-05,5.90751e-05,3.52786e-05,-5.10115e-05,-1.08803e-05
228,1.16733e-05,-8.17456e-06,5.36212e-05,4.20655e-05,-4.60945e-05,-2.66792e-06
229,1.53987e-05,1.88679e-06,5.55185e-05,4.51417e-05,-3.88557e-05,-6.65802e-07
230,1.24975e-05,3.50958e-06,5.81938e-05,4.62531e-05,-2.54586e-05,-3.86379e-06
231,1.04628e-05,-5.34098e-06,5.61342e-05,4.30266e-05,-9.23544e-06,-6.32659e-06
232,1.41128e-05,-1.81756e-05,5.04643e-05,4.12087e-05,3.72469e-06,-8.59807e-06
233,1.64709e-05,-1.91956e-05,4.46555e-05,4.84987e-05,2.64035e-05,-1.37617e-05
234,1.47836e-05,-5.79087e-06,4.4361e-05,5.69851e-05,6.22214e-05,-2.19612e-05
235,1.31918e-05,5.92803e-06,4.7804e-05,5.49458e-05,8.78524e-05,-2.80778e-05
236,1.42434e-05,5.97588e-06,4.75717e-05,4.75131e-05,8.39142e-05,-2.64319e-05
237,1.68757e-05,-4.09073e-06,4.4879e-05,4.35532e-05,5.55706e-05,-1.95113e-05
238,1.795e-05,-2.2061e-05,4.70987e-05,3.98914e-05,2.74119e-05,-1.43525e-05
239,1.70104e-05,-3.13765e-05,5.12245e-05,3.79964e-05,1.55188e-05,-1.37349e-05
240,1.30751e-05,-2.16393e-05,5.24119e-05,4.06172e-05,1.64636e-05,-1.32494e-05
241,6.98241e-06,-7.64757e-06,5.00361e-05,4.49449e-05,1.6675e-05,-1.10865e-05
242,4.5788e-06,-4.74562e-06,4.56518e-05,4.47628e-05,4.90712e-06,-1.01969e-05
243,7.54859e-06,-1.09664e-05,4.33453e-05,3.81521e-05,-1.34799e-05,-1.36844e-05
244,1.00594e-05,-2.34936e-05,4.51611e-05,2.74666e-05,-1.8534e-05,-1.64365e-05
245,8.96979e-06,-2.71331e-05,4.82446e-05,2.13323e-05,-2.8749e-06,-1.64733e-05
246,8.22555e-06,-1.05998e-05,4.95243e-05,2.45136e-05,1.90118e-05,-1.7267e-05
247,1.01551e-05,1.29423e-07,4.97647e-05,3.13678e-05,2.94143e-05,-1.4799e-05
248,1.31632e-05,-1.77634e-06,4.80145e-05,3.61101e-05,2.48211e-05,-1.03912e-05
249,1.68905e-05,-1.99857e-06,4.52584e-05,3.54212e-05,1.58622e-05,-9.05556e-06
250,2.16091e-05,-3.0742e-06,4.49346e-05,3.16754e-05,1.06824e-05,-8.33233e-06
251,2.46451e-05,-4.37142e-06,4.71041e-05,3.41561e-05,8.83997e-06,-6.09514e-06
252,2.47839e-05,-1.22865e-05,4.87437e-05,3.58613e-05,6.71289e-06,-2.01708e-06
253,2.18913e-05,-2.22606e-05,4.96662e-05,3.06603e-05,4.24668e-06,1.79702e-06
254,1.82637e-05,-1.84455e-05,4.92106e-05,3.00581e-05,4.2667e-06,5.40483e-06
255,1.75022e-05,-4.29031e-06,4.72654e-05,3.71163e-05,3.90202e-06,6.89264e-06
256,1.70026e-05,2.96823e-06,5.11715e-05,4.11282e-05,-3.72442e-06,4.30614e-06
257,1.44409e-05,2.10629e-06,5.98392e-05,3.85283e-05,-1.17728e-05,-2.26916e-06
258,1.10162e-05,-4.88791e-06,6.19803e-05,2.91718e-05,-1.13411e-05,-6.96778e-06
259,1.00542e-05,-1.40211e-05,5.7149e-05,2.21384e-05,-5.75904e-06,-7.19292e-06
260,1.23244e-05,-1.52618e-05,5.26333e-05,2.60742e-05,6.25299e-06,-5.1663e-06
261,1.37211e-05,-7.14122e-06,5.16776e-05,3.47345e-05,2.83112e-05,-3.56283e-06
262,1.27073e-05,6.46472e-07,5.14654e-05,3.60715e-05,5.28858e-05,-1.70843e-06
263,1.18306e-05,9.69312e-07,4.99577e-05,3.06164e-05,6.33245e-05,1.31527e-06
264,1.08417e-05,-6.17005e-06,4.71887e-05,2.59569e-05,5.32113e-05,5.59982e-06
265,8.9481e-06,-1.74835e-05,4.7532e-05,2.20566e-05,3.54662e-05,7.07212e-06
266,8.20399e-06,-1.95152e-05,5.19816e-05,2.37225e-05,2.28454e-05,7.43042e-07
267,8.58381e-06,-7.05651e-06,5.86472e-05,3.14595e-05,1.39452e-05,-6.84185e-06
268,8.86803e-06,7.73431e-06,6.11678e-05,3.63675e-05,-4.35554e-07,-1.05852e-05
269,8.99879e-06,1.17285e-05,5.61054e-05,3.51834e-05,-1.6091e-05,-1.20136e-05
270,9.31208e-06,1.84896e-06,4.96015e-05,3.37532e-05,-2.02958e-05,-1.46595e-05
271,9.2888e-06,-2.02978e-05,4.83921e-05,3.22782e-05,-8.44949e-06,-1.82991e-05
272,8.93542e-06,-2.86439e-05,5.03939e-05,3.44765e-05,1.0437e-05,-2.04758e-05
273,8.69465e-06,-1.18036e-05,5.09563e-05,4.43004e-05,2.49404e-05,-1.78463e-05
274,9.24701e-06,-3.86321e-06,5.28052e-05,5.03651e-05,3.16906e-05,-1.51908e-05
275,1.04092e-05,-8.48061e-06,5.59021e-05,4.77087e-05,3.29299e-05,-1.70117e-05
276,1.16968e-05,-7.03033e-06,5.60418e-05,4.36105e-05,2.99144e-05,-1.94403e-05
277,1.29975e-05,-1.68174e-06,5.39479e-05,4.13215e-05,2.43331e-05,-1.58739e-05
278,1.40744e-05,3.45272e-06,5.37495e-05,4.04749e-05,2.43542e-05,-1.16533e-05
279,1.46767e-05,-3.42708e-06,5.49244e-05,3.61149e-05,3.47278e-05,-1.34572e-05
280,1.49524e-05,-1.75101e-05,5.64518e-05,3.23023e-05,4.85631e-05,-1.47343e-05
281,1.18393e-05,-1.77823e-05,5.69415e-05,3.36191e-05,5.56212e-05,-1.24593e-05
282,6.63986e-06,-5.58722e-06,5.78266e-05,3.46577e-05,4.98252e-05,-1.13995e-05
283,4.916e-06,1.85223e-06,6.23591e-05,3.26339e-05,3.35215e-05,-1.44004e-05
284,5.94634e-06,2.48592e-06,6.84176e-05,3.33471e-05,1.99104e-05,-1.76962e-05
285,7.79845e-06,-3.55661e-06,6.63291e-05,3.29025e-05,1.50038e-05,-1.92647e-05
286,9.55598e-06,-1.41767e-05,5.86986e-05,2.71499e-05,1.32973e-05,-1.85808e-05
287,1.06373e-05,-1.66943e-05,5.50181e-05,2.22499e-05,1.06777e-05,-1.30321e-05
288,1.12258e-05,-7.06635e-06,5.40853e-05,2.42843e-05,5.70512e-06,-4.04532e-06
289,1.29698e-05,1.72346e-06,5.12886e-05,2.92407e-05,1.39876e-06,1.70671e-06
290,1.48145e-05,1.69253e-06,4.62383e-05,3.26335e-05,4.14537e-06,2.53845e-06
291,1.55319e-05,-5.24915e-06,4.23278e-05,3.30041e-05,9.52535e-06,5.87975e-06
292,1.32209e-05,-1.52153e-05,4.41325e-05,2.95151e-05,1.20668e-05,1.25348e-05
293,1.07836e-05,-1.63264e-05,5.05233e-05,3.14331e-05,1.6086e-05,1.31029e-05
294,1.04801e-05,-7.15629e-06,5.62823e-05,4.07155e-05,2.41134e-05,6.71446e-06
295,9.83662e-06,9.64533e-07,5.61488e-05,4.65515e-05,3.04628e-05,1.23967e-07
296,1.04739e-05,1.38949e-06,5.07065e-05,4.42694e-05,3.12284e-05,-6.47904e-06
297,1.12451e-05,-6.37909e-06,4.62203e-05,3.93701e-05,2.67348e-05,-1.26355e-05
298,9.91099e-06,-2.12357e-05,4.73224e-05,3.19499e-05,2.26184e-05,-1.74244e-05
299,7.96921e-06,-2.40593e-05,5.18765e-05,2.71961e-05,2.76884e-05,-2.12058e-05
300,7.27836e-06,-7.85559e-06,5.48259e-05,3.35616e-05,4.26802e-05,-1.52742e-05
301,7.38301e-06,1.01233e-06,5.46368e-05,3.59703e-05,5.60773e-05,-6.38298e-06
302,7.81167e-06,-2.78575e-06,5.02069e-05,3.05776e-05,5.96024e-05,-4.65393e-06
303,7.75412e-06,-5.31551e-06,4.45255e-05,3.05652e-05,5.41528e-05,-5.69939e-07
304,6.24217e-06,-4.29953e-06,4.44532e-05,3.4967e-05,4.29527e-05,7.84163e-06
305,4.63928e-06,-3.53125e-06,4.96714e-05,3.75033e-05,3.25385e-05,1.62051e-05
306,5.67887e-06,-1.04756e-05,5.27645e-05,3.14494e-05,2.20988e-05,1.66518e-05
307,7.47231e-06,-2.26135e-05,5.43257e-05,2.17226e-05,3.20072e-06,7.69972e-06
308,6.65936e-06,-2.33862e-05,5.63957e-05,1.86778e-05,-2.46135e-05,-4.22745e-06
309,5.03213e-06,-1.13699e-05,5.68066e-05,2.69905e-05,-4.58017e-05,-1.1854e-05
310,6.11142e-06,-2.25413e-07,5.4422e-05,3.52895e-05,-4.47604e-05,-1.31597e-05
311,7.13285e-06,3.8289e-06,5.24838e-05,3.95133e-05,-2.73302e-05,-1.15963e-05
312,5.57688e-06,-3.31567e-06,5.22239e-05,3.76978e-05,-8.82078e-06,-1.19943e-05
313,4.4683e-06,-1.33691e-05,5.10402e-05,3.22949e-05,-6.51455e-08,-1.83843e-05
314,5.49957e-06,-1.29136e-05,4.73485e-05,3.23216e-05,3.38828e-06,-2.64852e-05
315,7.44897e-06,-1.51256e-06,4.5364e-05,3.88384e-05,9.44756e-06,-2.84623e-05
316,7.98856e-06,5.72668e-06,4.67518e-05,4.52578e-05,1.45076e-05,-2.19549e-05
317,7.56131e-06,4.86456e-06,4.88595e-05,4.5752e-05,2.02931e-05,-1.4598e-05
318,8.82596e-06,-1.03656e-06,5.07039e-05,3.76754e-05,2.93564e-05,-1.11197e-05
319,1.22966e-05,-1.06744e-05,5.23089e-05,2.4051e-05,4.26352e-05,-1.09922e-05
320,1.54203e-05,-1.26455e-05,5.32528e-05,2.0718e-05,5.36756e-05,-1.23878e-05
321,1.68677e-05,-1.66842e-06,5.44162e-05,3.02114e-05,5.71504e-05,-1.2797e-05
322,1.81461e-05,8.09622e-06,5.55471e-05,4.09962e-05,5.76496e-05,-1.06059e-05
323,1.98062e-05,7.28353e-06,5.28173e-05,4.49322e-05,5.88976e-05,-8.14699e-06
324,2.00178e-05,1.76388e-06,4.64114e-05,4.27563e-05,5.19948e-05,-9.20427e-06
325,1.84694e-05,-1.13904e-05,4.08867e-05,3.51606e-05,3.13073e-05,-1.37065e-05
326,1.65807e-05,-1.88593e-05,3.84546e-05,2.91147e-05,7.07749e-06,-1.6314e-05
327,1.36095e-05,-8.26184e-06,3.63116e-05,3.65646e-05,-7.8545e-06,-1.39237e-05
328,9.36055e-06,-2.65286e-06,3.42932e-05,4.97413e-05,-1.11521e-05,-9.9014e-06
329,5.75956e-06,-3.74634e-06,3.36623e-05,5.58477e-05,-7.99687e-06,-3.79977e-06
330,4.44128e-06,-1.17389e-06,3.55968e-05,5.44299e-05,-5.29553e-06,-1.67671e-07
331,5.08646e-06,1.35775e-06,4.03018e-05,4.86508e-05,-7.38178e-06,-6.17441e-06
332,6.10692e-06,4.06258e-06,4.38009e-05,4.66786e-05,-8.89352e-06,-1.6065e-05
333,5.93758e-06,-3.26227e-06,4.2395e-05,4.21821e-05,-9.61174e-06,-2.59796e-05
334,5.45199e-06,-1.64326e-05,3.90142e-05,3.46255e-05,-2.22768e-05,-3.16655e-05
335,6.98005e-06,-1.60829e-05,3.7324e-05,3.46337e-05,-5.08573e-05,-3.10549e-05
336,9.8744e-06,-3.52638e-06,3.68058e-05,4.26923e-05,-7.43161e-05,-2.45031e-05
337,1.11383e-05,3.62828e-06,4.04052e-05,4.87295e-05,-7.74913e-05,-1.92009e-05
338,1.08045e-05,3.69271e-06,4.84581e-05,4.66944e-05,-6.33321e-05,-1.78334e-05
339,1.33871e-05,-3.22736e-06,5.32363e-05,3.61382e-05,-4.0535e-05,-1.61081e-05
340,1.69962e-05,-1.29345e-05,5.15174e-05,2.59908e-05,-2.21593e-05,-1.35994e-05
341,1.56636e-05,-1.37854e-05,4.86638e-05,2.668e-05,-1.37588e-05,-1.20487e-05
342,1.15943e-05,-3.43612e-06,4.77517e-05,3.4401e-05,-1.09151e-05,-8.4342e-06
343,1.12507e-05,5.82737e-06,4.7295e-05,4.02675e-05,-9.46781e-06,3.26423e-06
344,1.53068e-05,5.54494e-06,4.57467e-05,4.31133e-05,-9.3843e-06,1.6802e-05
345,2.11106e-05,-2.78592e-06,4.25209e-05,4.35299e-05,-1.72622e-05,1.83011e-05
346,2.56034e-05,-1.42222e-05,4.44625e-05,3.95706e-05,-3.27047e-05,5.44001e-06
347,2.68451e-05,-1.64046e-05,5.21733e-05,3.69429e-05,-4.56863e-05,-5.37197e-06
348,2.64889e-05,-4.36586e-06,5.92836e-05,4.02904e-05,-5.08682e-05,-7.0661e-06
349,2.63479e-05,7.65127e-06,5.99529e-05,4.51014e-05,-5.07134e-05,-6.66306e-06
350,2.67193e-05,8.04802e-06,5.3557e-05,4.38114e-05,-4.71766e-05,-1.07071e-05
351,2.58676e-05,-5.41902e-07,4.73889e-05,3.72678e-05,-4.16257e-05,-1.50235e-05
352,2.23096e-05,-1.81192e-05,4.65837e-05,3.11939e-05,-3.22963e-05,-1.61117e-05
353,1.79054e-05,-2.74329e-05,5.00984e-05,3.25518e-05,-1.27032e-05,-1.16894e-05
354,1.48853e-05,-1.30373e-05,5.27194e-05,3.98602e-05,1.98224e-05,-7.69405e-06
355,1.37562e-05,8.87771e-07,5.3331e-05,4.26487e-05,5.31582e-05,-1.22323e-05
356,1.48736e-05,-1.71326e-06,5.29352e-05,4.06105e-05,7.2162e-05,-1.87311e-05
357,1.63431e-05,-9.3083e-06,5.34197e-05,4.15293e-05,7.81538e-05,-2.11417e-05
358,1.43701e-05,-1.03581e-05,5.58324e-05,4.43339e-05,8.29641e-05,-1.58386e-05
359,9.71148e-06,-4.6266e-06,5.77004e-05,4.70046e-05,8.87787e-05,-6.99673e-06
360,5.41403e-06,-8.61895e-06,5.70133e-05,4.49915e-05,8.14119e-05,-4.75013e-06
361,2.81382e-06,-2.1769e-05,5.38085e-05,4.14855e-05,5.78107e-05,-7.97733e-06
362,2.14316e-06,-2.35184e-05,4.77077e-05,4.22738e-05,4.17147e-05,-1.23941e-05
363,3.7874e-06,-1.07838e-05,4.22298e-05,4.51433e-05,5.32681e-05,-1.62905e-05
364,8.10313e-06,-3.79329e-06,4.36603e-05,4.39313e-05,7.32174e-05,-2.04091e-05
365,1.21556e-05,-4.40935e-06,5.02174e-05,3.99836e-05,6.94827e-05,-1.85301e-05
366,1.48827e-05,-1.04178e-05,5.39749e-05,3.45647e-05,3.43871e-05,-9.35409e-06
367,1.48694e-05,-2.01008e-05,5.60874e-05,2.93652e-05,-1.30005e-05,-8.78895e-07
368,1.19702e-05,-2.01127e-05,5.80465e-05,3.36328e-05,-4.38411e-05,4.20927e-07
369,7.44312e-06,-6.31166e-06,6.01103e-05,4.60354e-05,-4.97155e-05,-3.59468e-06
370,3.58e-06,4.46906e-06,6.3308e-05,5.38365e-05,-4.01758e-05,-4.57885e-06
371,4.97808e-06,2.47662e-06,6.24958e-05,5.3793e-05,-2.39402e-05,-2.53407e-06
372,8.37874e-06,-7.74519e-06,5.78012e-05,5.03683e-05,-8.55423e-06,-2.15816e-06
373,1.04439e-05,-2.1182e-05,5.66094e-05,4.61985e-05,4.05799e-06,-4.19871e-06
374,1.25908e-05,-2.22336e-05,6.09457e-05,4.81996e-05,1.62547e-05,-5.73328e-06
375,1.36004e-05,-7.22319e-06,6.65909e-05,5.30261e-05,2.79655e-05,-6.10965e-06
376,1.22153e-05,6.0464e-06,6.81223e-05,5.24373e-05,3.8437e-05,-4.51288e-06
377,1.09962e-05,7.28215e-06,6.35171e-05,4.74454e-05,4.43585e-05,-2.92842e-06
378,1.07629e-05,6.79107e-07,5.73444e-05,4.35345e-05,4.14174e-05,-1.40607e-06
379,1.13374e-05,-1.32686e-05,5.55456e-05,3.83867e-05,3.29744e-05,1.62545e-06
380,1.36929e-05,-1.72216e-05,5.88146e-05,3.63123e-05,2.82075e-05,5.49257e-06
381,1.63535e-05,-2.48426e-06,6.15842e-05,3.91243e-05,3.24655e-05,6.43937e-06
382,1.70314e-05,4.69293e-06,5.95384e-05,3.77252e-05,4.17392e-05,9.94795e-07
383,1.60316e-05,-4.08397e-07,5.23465e-05,3.34592e-05,5.02937e-05,-8.40329e-06
384,1.56789e-05,-2.91778e-06,4.60736e-05,3.30059e-05,5.40597e-05,-1.58373e-05
385,1.4968e-05,-2.73367e-06,4.72784e-05,3.4131e-05,5.15098e-05,-2.15808e-05
386,1.14055e-05,-2.46141e-06,5.3543e-05,3.51283e-05,4.66168e-05,-2.23341e-05
387,6.52507e-06,-1.23218e-05,5.74639e-05,3.43484e-05,4.38573e-05,-1.88698e-05
388,4.40407e-06,-2.83897e-05,5.8612e-05,2.9495e-05,4.23304e-05,-1.86201e-05
389,5.81689e-06,-2.88614e-05,5.86908e-05,2.68003e-05,4.07958e-05,-1.91973e-05
390,5.56619e-06,-1.64969e-05,5.54176e-05,2.92944e-05,3.88252e-05,-1.38679e-05
391,2.74751e-06,-1.00115e-05,5.36401e-05,3.29442e-05,3.62672e-05,-9.28986e-06
392,1.66737e-06,-8.85291e-06,5.9858e-05,3.42281e-05,4.10676e-05,-1.04404e-05
393,4.89764e-07,-1.19859e-05,6.64882e-05,3.1496e-05,5.11972e-05,-1.12876e-05
394,-1.19941e-06,-1.87294e-05,6.73658e-05,2.62879e-05,5.32408e-05,-9.55025e-06
395,-8.92611e-07,-1.8695e-05,6.53022e-05,2.61895e-05,4.91327e-05,-5.19831e-06
396,3.62627e-07,-7.51897e-06,6.41255e-05,3.18057e-05,4.69167e-05,-4.22242e-06
397,2.33919e-06,2.88536e-06,6.31525e-05,3.45037e-05,4.5328e-05,-9.98957e-06
398,6.8638e-06,3.1165e-06,5.72203e-05,3.22595e-05,3.68704e-05,-1.84912e-05
399,1.25707e-05,-5.22188e-06,5.02056e-05,2.97497e-05,2.02412e-05,-2.14658e-05
400,1.56651e-05,-1.80536e-05,5.05273e-05,2.98891e-05,9.65287e-07,-2.04604e-05
401,1.58235e-05,-2.21697e-05,5.421e-05,3.33943e-05,-1.44586e-05,-2.18786e-05
402,1.54967e-05,-1.04456e-05,5.61478e-05,3.91248e-05,-2.03722e-05,-2.22118e-05
403,1.73551e-05,1.50553e-06,5.87903e-05,4.07462e-05,-1.3883e-05,-1.68615e-05
404,2.24267e-05,1.32463e-06,6.05171e-05,3.95463e-05,5.94392e-06,-9.1963e-06
405,2.7274e-05,-7.66909e-06,5.91482e-05,3.75227e-05,2.87666e-05,-2.59729e-06
406,2.76106e-05,-2.32156e-05,5.8182e-05,3.11462e-05,4.25982e-05,-6.84533e-07
407,2.44803e-05,-2.61389e-05,6.27496e-05,3.03752e-05,4.75759e-05,-3.17964e-06
408,2.10028e-05,-6.68903e-06,6.9092e-05,3.68104e-05,4.78282e-05,-4.96116e-06
409,1.9886e-05,5.9235e-06,7.09761e-05,3.82301e-05,4.17936e-05,-7.06143e-06
410,2.12961e-05,6.02099e-06,6.64001e-05,4.14687e-05,3.12641e-05,-8.65122e-06
411,2.37387e-05,6.65519e-06,5.67052e-05,5.15189e-05,2.02647e-05,-9.99787e-06
412,2.56209e-05,6.63588e-06,4.92678e-05,5.49827e-05,5.70792e-06,-1.20429e-05
413,2.54596e-05,5.8164e-06,5.09788e-05,4.94073e-05,-1.52106e-05,-1.22e-05
414,2.47937e-05,-4.09874e-06,5.83817e-05,4.29277e-05,-3.13045e-05,-9.33887e-06
415,2.50364e-05,-1.77634e-05,6.27451e-05,4.08127e-05,-2.52241e-05,-8.07674e-06
416,2.40342e-05,-1.74296e-05,5.6728e-05,4.43187e-05,6.37441e-07,-9.16566e-06
417,2.07789e-05,-3.53289e-06,4.77276e-05,4.84084e-05,2.06986e-05,-7.38326e-06
418,1.62842e-05,5.44729e-06,4.8558e-05,4.6682e-05,2.16315e-05,-6.73418e-06
419,1.17097e-05,4.62201e-06,5.62937e-05,3.9952e-05,1.54134e-05,-7.95969e-06
420,6.60329e-06,-4.0224e-06,6.21624e-05,3.11753e-05,1.69922e-05,-6.56993e-06
421,-3.71151e-08,-1.46026e-05,5.881e-05,2.77659e-05,2.45785e-05,-4.44724e-06
422,-4.90466e-06,-1.62031e-05,5.15175e-05,3.309e-05,2.72403e-05,-5.67547e-06
423,-5.58502e-06,-7.11549e-06,4.9923e-05,3.92458e-05,2.25732e-05,-9.19091e-06
424,-3.68223e-06,2.6153e-06,5.11805e-05,4.04441e-05,1.66864e-05,-1.1493e-05
425,-9.93556e-07,6.18514e-06,4.8207e-05,3.84893e-05,1.70187e-05,-1.19961e-05
426,1.60301e-06,-1.5335e-07,4.24793e-05,3.33969e-05,1.76235e-05,-1.15281e-05
427,3.73371e-06,-1.54621e-05,4.10434e-05,2.76303e-05,1.39202e-05,-1.33337e-05
428,6.27885e-06,-2.02487e-05,4.24867e-05,2.99644e-05,1.20421e-05,-1.52085e-05
429,8.59669e-06,-7.38544e-06,4.19753e-05,3.80301e-05,1.70143e-05,-9.61696e-06
430,7.30687e-06,4.59871e-06,4.10101e-05,3.97388e-05,2.35597e-05,2.38911e-06
431,3.38748e-06,3.36233e-06,4.08172e-05,3.58154e-05,2.52241e-05,1.04165e-05
432,6.85674e-07,-4.36103e-06,3.98623e-05,3.04164e-05,2.10939e-05,1.21257e-05
433,-1.61139e-06,-1.75088e-05,3.92925e-05,2.36293e-05,1.41908e-05,1.23535e-05
434,-3.99843e-06,-2.36065e-05,3.98064e-05,2.4682e-05,1.04619e-05,1.21426e-05
435,-3.95267e-06,-1.41117e-05,3.99578e-05,3.19823e-05,1.3668e-05,8.53509e-06
436,-5.83419e-07,-1.05187e-05,3.89167e-05,3.5302e-05,2.16084e-05,3.43137e-06
437,3.26635e-06,-8.88775e-06,3.61873e-05,3.75449e-05,3.08187e-05,-2.01344e-06
438,5.69234e-06,1.55422e-06,3.3109e-05,4.12274e-05,3.93354e-05,-8.88101e-06
439,7.40211e-06,7.86751e-06,3.48645e-05,4.10876e-05,4.25163e-05,-1.55319e-05
440,9.74406e-06,7.51979e-06,4.21625e-05,3.68803e-05,3.9734e-05,-2.19699e-05
441,1.14439e-05,-2.84539e-06,4.81688e-05,3.06329e-05,3.50175e-05,-2.97473e-05
442,1.08259e-05,-1.61607e-05,4.64409e-05,2.90123e-05,3.15647e-05,-3.53042e-05
443,1.0226e-05,-1.34898e-05,3.78857e-05,3.52516e-05,2.65646e-05,-3.30168e-05
444,1.1995e-05,5.87124e-07,3.25996e-05,4.30754e-05,9.74149e-06,-2.45529e-05
445,1.34784e-05,6.87007e-06,3.75179e-05,4.39855e-05,-2.7406e-05,-1.69728e-05
446,1.15954e-05,3.60886e-06,4.55325e-05,3.92887e-05,-6.39342e-05,-1.4708e-05
447,1.01405e-05,-5.42822e-06,4.78332e-05,3.48027e-05,-6.31263e-05,-1.41615e-05
448,9.92137e-06,-1.29705e-05,4.43643e-05,3.32275e-05,-2.85351e-05,-1.41924e-05
449,9.32235e-06,-1.09256e-05,4.22285e-05,3.56575e-05,4.80745e-06,-1.23099e-05
450,8.7435e-06,-3.91071e-07,4.54427e-05,4.11407e-05,2.12774e-05,-7.48984e-06
451,7.8758e-06,6.45171e-06,4.69822e-05,4.6384e-05,2.96138e-05,-3.54757e-07
452,8.73774e-06,2.88523e-06,4.34122e-05,4.97317e-05,4.11466e-05,4.04804e-06
453,1.04256e-05,-7.42024e-06,3.95042e-05,4.98426e-05,4.74587e-05,3.68939e-06
454,9.1906e-06,-1.92918e-05,4.24421e-05,4.44548e-05,3.20327e-05,2.15862e-06
455,6.25801e-06,-2.0722e-05,5.05486e-05,4.18627e-05,-4.94156e-06,-3.21614e-06
456,6.3727e-06,-8.62443e-06,5.68256e-05,4.62816e-05,-4.69986e-05,-1.35519e-05
457,9.38949e-06,8.40774e-07,5.78601e-05,4.94058e-05,-7.03348e-05,-2.30494e-05
458,1.22768e-05,-4.1954e-07,5.45692e-05,4.64229e-05,-6.17e-05,-2.8192e-05
459,1.42913e-05,-7.24369e-06,5.23788e-05,3.73225e-05,-3.21878e-05,-2.95017e-05
460,1.44643e-05,-2.23658e-05,5.56173e-05,2.84711e-05,-5.33355e-06,-2.62722e-05
461,1.239e-05,-2.5596e-05,6.09894e-05,2.89509e-05,7.05731e-06,-2.54826e-05
462,7.92961e-06,-7.36189e-06,6.30076e-05,3.63615e-05,9.52054e-06,-2.38196e-05
463,4.22673e-06,2.6567e-06,6.18737e-05,3.65921e-05,9.95931e-06,-1.95441e-05
464,6.13354e-06,-5.55064e-07,5.68585e-05,2.67616e-05,1.16946e-05,-1.60225e-05
465,1.28289e-05,-2.91073e-06,4.91204e-05,2.18324e-05,1.35254e-05,-9.72383e-06
466,1.86866e-05,-2.74534e-06,4.61581e-05,2.10601e-05,1.1982e-05,4.56062e-06
467,2.0882e-05,-2.67312e-06,5.12056e-05,2.02575e-05,6.84237e-06,2.51045e-05
468,1.91351e-05,-1.17877e-05,5.70691e-05,1.83616e-05,9.78659e-07,3.22417e-05
469,1.46134e-05,-2.64147e-05,5.99836e-05,2.248e-05,5.28682e-08,2.34905e-05
470,1.14501e-05,-2.79621e-05,5.77052e-05,3.29287e-05,9.50125e-06,1.40942e-05
471,1.10113e-05,-1.46292e-05,4.90488e-05,3.89189e-05,2.16359e-05,1.21759e-05
472,1.14606e-05,-2.31628e-06,4.30342e-05,3.74022e-05,2.33656e-05,1.13202e-05
473,1.09195e-05,1.40284e-06,4.35175e-05,3.5124e-05,1.64153e-05,6.2026e-06
474,9.55386e-06,-5.86655e-06,4.33305e-05,3.50382e-05,1.11191e-05,-2.32751e-06
475,9.82076e-06,-1.87175e-05,3.98614e-05,3.32746e-05,1.10568e-05,-8.76971e-06
476,9.71257e-06,-2.3729e-05,3.64122e-05,3.35582e-05,1.45403e-05,-8.65183e-06
477,1.00635e-05,-1.65191e-05,3.53141e-05,3.90266e-05,1.44831e-05,-4.07603e-06
478,1.2673e-05,-7.96597e-06,3.54249e-05,4.73556e-05,3.85225e-06,7.97657e-07
479,1.42281e-05,-3.72678e-06,3.54051e-05,4.86142e-05,-8.45172e-06,1.4135e-06
480,1.36849e-05,-5.81106e-06,3.5574e-05,3.76381e-05,-7.26592e-06,-7.19777e-07
481,1.17855e-05,-1.69526e-05,3.91336e-05,2.48387e-05,9.33851e-06,-2.59455e-06
482,1.05121e-05,-2.17172e-05,4.58275e-05,2.48802e-05,2.83575e-05,-4.12871e-06
483,8.07452e-06,-8.13777e-06,4.91169e-05,3.23582e-05,3.88002e-05,-9.51921e-06
484,3.86083e-06,6.07646e-06,4.56266e-05,3.59144e-05,3.89788e-05,-1.6224e-05
485,1.63714e-06,7.35649e-06,3.98727e-05,3.24384e-05,3.20391e-05,-2.05672e-05
486,2.98052e-06,-8.62524e-07,4.03183e-05,2.81468e-05,1.77245e-05,-2.02462e-05
487,4.06134e-06,-1.61912e-05,4.74563e-05,2.43286e-05,-2.46299e-06,-1.89873e-05
488,3.67659e-06,-2.22333e-05,5.40265e-05,2.37706e-05,-2.05693e-05,-1.79901e-05
489,3.68538e-06,-7.87213e-06,5.60632e-05,3.40569e-05,-3.25094e-05,-1.4151e-05
490,4.27944e-06,1.91379e-06,5.42113e-05,4.01549e-05,-3.81687e-05,-1.17629e-05
491,4.17412e-06,-4.13371e-07,4.92095e-05,3.85359e-05,-3.74783e-05,-1.18034e-05
492,4.95218e-06,-1.67317e-06,4.44651e-05,3.87585e-05,-3.10571e-05,-1.06699e-05
493,8.12004e-06,-2.21026e-06,4.48242e-05,3.94878e-05,-1.83852e-05,-8.8447e-06
494,1.13317e-05,-3.76163e-06,4.99338e-05,4.27066e-05,4.93116e-06,-7.84095e-06
495,1.23564e-05,-1.58788e-05,5.41039e-05,4.08316e-05,3.83547e-05,-8.64469e-06
496,1.21415e-05,-2.78281e-05,5.20446e-05,3.65773e-05,7.01019e-05,-1.04063e-05
497,1.47504e-05,-2.18883e-05,4.50203e-05,4.16301e-05,8.57285e-05,-9.08142e-06
498,1.85715e-05,-4.11562e-06,4.13188e-05,4.9637e-05,8.01813e-05,-6.40625e-06
499,2.02996e-05,4.32595e-06,4.53862e-05,4.99785e-05,5.91613e-05,-7.41455e-06
500,2.06686e-05,1.52332e-06,5.2072e-05,4.29054e-05,3.46387e-05,-9.59978e-06
501,2.00456e-05,-8.13742e-06,5.58547e-05,3.3898e-05,8.88622e-06,-9.11473e-06
502,1.84296e-05,-1.8282e-05,5.36921e-05,2.77032e-05,-1.31457e-05,-7.27882e-06
503,1.85573e-05,-1.58795e-05,4.89915e-05,2.92556e-05,-1.73866e-05,-7.40641e-06
504,2.14457e-05,-1.94362e-06,5.06771e-05,3.68333e-05,-1.14456e-06,-9.02861e-06
505,2.46136e-05,7.99853e-06,5.49868e-05,4.42809e-05,2.11432e-05,-1.04879e-05
506,2.60329e-05,5.5809e-06,5.48931e-05,4.88881e-05,3.26769e-05,-9.14456e-06
507,2.69689e-05,-5.49573e-06,5.30859e-05,4.76116e-05,3.53401e-05,-3.03329e-06
508,2.62661e-05,-1.81785e-05,5.58604e-05,4.01078e-05,3.91333e-05,5.06863e-07
509,2.33571e-05,-1.72734e-05,6.31488e-05,3.51773e-05,4.54112e-05,-2.41206e-06
510,2.1359e-05,-3.54357e-06,6.76456e-05,3.50113e-05,4.68617e-05,-5.80738e-06
511,2.13726e-05,6.90493e-06,6.6199e-05,3.68021e-05,4.3535e-05,-5.45911e-06
512,2.2438e-05,4.78641e-06,6.01519e-05,3.66251e-05,4.26406e-05,-5.39608e-06
513,2.31057e-05,-6.99816e-06,5.40644e-05,3.12921e-05,4.4152e-05,-8.64164e-06
514,2.20812e-05,-2.45007e-05,5.31368e-05,2.45099e-05,3.88144e-05,-1.38567e-05
515,2.02522e-05,-3.13203e-05,5.5814e-05,2.64436e-05,2.19773e-05,-1.99827e-05
516,1.88489e-05,-1.80671e-05,5.8144e-05,3.64968e-05,3.47145e-07,-2.69943e-05
517,1.90175e-05,-6.99313e-06,5.91658e-05,3.98583e-05,-1.50243e-05,-3.32583e-05
518,2.03763e-05,-4.6815e-06,5.70614e-05,3.74478e-05,-1.91011e-05,-3.39273e-05
519,2.01455e-05,-1.34816e-06,5.13084e-05,3.80668e-05,-1.51114e-05,-2.63088e-05
520,1.64794e-05,2.65801e-06,4.79856e-05,4.27704e-05,-6.45674e-06,-1.31023e-05
521,1.10295e-05,6.05453e-06,5.12301e-05,4.65975e-05,8.50169e-06,1.42196e-07
522,7.58014e-06,-1.89227e-06,5.64665e-05,4.25676e-05,2.76941e-05,3.45392e-06
523,6.815e-06,-1.48516e-05,6.04944e-05,3.71732e-05,4.02169e-05,-2.73859e-07
524,6.30824e-06,-1.54144e-05,6.2524e-05,4.10463e-05,4.08247e-05,-2.89176e-06
525,5.21431e-06,-3.89387e-06,5.93874e-05,4.98557e-05,3.00693e-05,-4.1697e-06
526,4.06047e-06,3.80202e-06,5.53783e-05,5.17016e-05,1.23805e-05,-5.22288e-06
527,4.55017e-06,1.15341e-06,5.61352e-05,4.75879e-05,-3.39094e-06,-6.29262e-06
528,5.49952e-06,-1.03963e-05,5.77047e-05,4.31524e-05,-1.3355e-05,-6.64965e-06
529,7.3741e-06,-2.35221e-05,5.69325e-05,4.21111e-05,-2.58233e-05,-8.74698e-06
530,1.07118e-05,-2.32988e-05,5.71157e-05,4.59647e-05,-4.09145e-05,-1.19367e-05
531,1.05277e-05,-1.09626e-05,6.27532e-05,5.15813e-05,-4.88334e-05,-1.3242e-05
532,9.82076e-06,-1.93807e-06,6.86535e-05,5.18978e-05,-4.51291e-05,-1.17557e-05
533,1.1198e-05,-2.96572e-06,6.54001e-05,4.82386e-05,-3.16338e-05,-1.00054e-05
534,1.33921e-05,-1.06269e-05,5.71667e-05,4.44372e-05,-1.95868e-05,-8.90835e-06
535,1.48825e-05,-2.06663e-05,5.39169e-05,3.76967e-05,-1.53469e-05,-7.69954e-06
536,1.59546e-05,-1.96104e-05,5.47642e-05,3.30921e-05,-8.46963e-06,-5.28547e-06
537,1.55826e-05,-3.93974e-06,5.78588e-05,4.12282e-05,8.64043e-06,-3.58827e-06
538,1.41431e-05,1.16651e-05,6.1666e-05,5.42774e-05,2.79968e-05,-6.42057e-06
539,1.44746e-05,1.37385e-05,6.31085e-05,5.77412e-05,4.37188e-05,-1.16618e-05
540,1.60543e-05,2.19305e-06,6.21465e-05,5.29917e-05,5.55767e-05,-1.37223e-05
541,1.70623e-05,-1.53786e-05,6.18357e-05,4.44077e-05,6.40327e-05,-1.27663e-05
542,1.7302e-05,-2.04313e-05,6.29973e-05,4.11336e-05,6.98407e-05,-1.59208e-05
543,1.6214e-05,-4.55142e-06,6.23701e-05,4.8359e-05,7.13421e-05,-2.58739e-05
544,1.41918e-05,3.06136e-06,5.93017e-05,5.35183e-05,6.26958e-05,-3.5474e-05
545,1.38493e-05,-1.36667e-06,5.43328e-05,5.17773e-05,4.4233e-05,-3.68207e-05
546,1.53678e-05,-2.85517e-07,4.81745e-05,5.17363e-05,2.61132e-05,-3.04482e-05
547,1.64831e-05,2.47334e-06,4.53053e-05,4.96894e-05,1.50746e-05,-2.34449e-05
548,1.57269e-05,2.18493e-06,4.87092e-05,4.47933e-05,1.16618e-05,-1.82694e-05
549,1.54461e-05,-1.11854e-05,5.3586e-05,3.63345e-05,1.12994e-05,-1.49423e-05
550,1.47633e-05,-2.4133e-05,5.50853e-05,2.76942e-05,9.22554e-06,-1.49355e-05
551,1.27559e-05,-1.8354e-05,5.06076e-05,3.0835e-05,6.23986e-06,-1.36337e-05
552,1.20031e-05,-1.81394e-06,4.26937e-05,4.1917e-05,5.53695e-06,-5.3477e-06
553,1.10929e-05,6.20321e-06,4.08123e-05,4.45136e-05,6.96238e-06,5.78346e-06
554,8.81301e-06,3.20764e-06,4.73782e-05,3.75193e-05,9.07358e-06,9.50526e-06
555,9.07126e-06,-6.4601e-06,5.52236e-05,2.9197e-05,1.25401e-05,5.37276e-06
556,1.15099e-05,-1.61216e-05,5.9386e-05,2.18477e-05,1.68759e-05,-2.13096e-06
557,1.40718e-05,-1.43945e-05,5.85347e-05,1.78917e-05,2.30594e-05,-8.13489e-06
558,1.66592e-05,-2.74764e-06,5.42467e-05,2.1831e-05,2.721e-05,-1.13477e-05
559,1.89221e-05,5.14033e-06,5.11271e-05,3.11602e-05,2.61673e-05,-1.1943e-05
560,1.88985e-05,4.5891e-06,4.88726e-05,3.58173e-05,2.35614e-05,-9.61322e-06
561,1.71209e-05,6.4973e-07,4.52221e-05,3.21675e-05,2.44103e-05,-6.18593e-06
562,1.62456e-05,-6.29985e-06,4.46599e-05,2.49824e-05,3.45963e-05,-5.4606e-06
563,1.7945e-05,-7.09778e-06,4.69795e-05,2.36863e-05,5.1568e-05,-9.58152e-06
564,1.92575e-05,1.66784e-06,5.005e-05,2.91048e-05,6.65007e-05,-1.93814e-05
565,1.66575e-05,7.55805e-06,5.02202e-05,3.09829e-05,7.14178e-05,-2.76326e-05
566,1.34439e-05,2.61827e-06,4.51944e-05,2.84012e-05,6.54376e-05,-2.77419e-05
567,1.24654e-05,-4.53993e-06,3.90026e-05,2.89395e-05,4.90371e-05,-2.24753e-05
568,1.22224e-05,-1.47019e-05,3.73823e-05,2.8479e-05,2.35549e-05,-1.27878e-05
569,1.20487e-05,-2.07157e-05,4.14128e-05,2.82872e-05,-6.25288e-06,-4.57229e-06
570,1.21255e-05,-8.42968e-06,4.69532e-05,3.22192e-05,-3.63487e-05,1.67435e-07
571,1.16383e-05,2.54362e-06,4.86698e-05,3.67519e-05,-6.28609e-05,-2.31453e-06
572,1.08272e-05,4.87457e-06,4.4644e-05,3.83297e-05,-7.73762e-05,-8.31574e-06
573,9.55422e-06,6.95908e-06,4.11743e-05,3.9415e-05,-7.19319e-05,-9.75754e-06
574,7.2963e-06,7.63198e-06,4.38862e-05,3.62507e-05,-4.99376e-05,-7.17291e-06
575,5.23002e-06,7.0844e-06,4.86225e-05,2.80555e-05,-2.33562e-05,-2.88585e-06
576,4.19551e-06,-4.5435e-06,4.81845e-05,2.27424e-05,-8.11379e-07,1.17222e-06
577,4.40284e-06,-2.04962e-05,4.55052e-05,1.92277e-05,1.81682e-05,9.49432e-07
578,6.43922e-06,-2.06552e-05,4.31964e-05,2.42081e-05,3.66246e-05,-5.30008e-06
579,8.68624e-06,-4.19242e-06,4.17101e-05,3.43882e-05,4.76248e-05,-1.10576e-05
580,1.00648e-05,5.94681e-06,4.52812e-05,3.82544e-05,3.93688e-05,-1.1849e-05
581,9.97953e-06,2.89004e-06,5.30269e-05,3.3959e-05,2.3128e-05,-9.8287e-06
582,7.33949e-06,-9.13803e-06,5.57683e-05,2.5787e-05,2.26523e-05,-6.97116e-06
583,1.94233e-06,-1.92164e-05,5.22273e-05,1.9419e-05,3.34878e-05,-4.11642e-06
584,-3.08276e-06,-1.50517e-05,4.99913e-05,2.10055e-05,4.07247e-05,-3.88792e-06
585,-5.31673e-06,-1.95261e-06,4.92213e-05,3.15438e-05,4.15634e-05,-4.7167e-06
586,-4.98867e-06,4.73824e-06,4.74498e-05,4.1348e-05,3.37861e-05,-4.44249e-06
587,-2.96055e-06,3.00905e-06,4.64768e-05,4.36141e-05,2.41785e-05,-5.91601e-06
588,1.9512e-07,-2.08585e-06,4.87574e-05,3.86908e-05,1.81056e-05,-1.10616e-05
589,2.38266e-06,-1.1592e-05,5.55132e-05,3.12956e-05,1.95535e-05,-1.58322e-05
590,2.93553e-06,-1.44567e-05,5.99663e-05,2.97231e-05,3.53493e-05,-1.68188e-05
591,3.04231e-06,-5.40166e-06,5.73004e-05,3.77086e-05,5.58319e-05,-1.64506e-05
592,2.37879e-06,4.46641e-06,4.97927e-05,4.479e-05,5.81988e-05,-1.78441e-05
593,2.62977e-06,4.9154e-06,4.42195e-05,4.33639e-05,4.35953e-05,-2.34097e-05
594,4.14231e-06,-6.12038e-06,4.53986e-05,3.83184e-05,3.00509e-05,-2.97685e-05
595,4.20747e-06,-2.99174e-05,5.05968e-05,3.42111e-05,2.34564e-05,-3.02472e-05
596,2.81491e-06,-4.2295e-05,5.2891e-05,3.65086e-05,2.0294e-05,-2.54678e-05
597,2.92781e-06,-2.95548e-05,4.99514e-05,4.77055e-05,1.55368e-05,-2.1718e-05
598,6.46469e-06,-1.94645e-05,4.52284e-05,5.08865e-05,4.53603e-06,-2.1021e-05
599,1.16643e-05,-1.84337e-05,4.15935e-05,4.636e-05,-1.20017e-05,-9.92642e-06
600,1.44658e-05,-1.42823e-05,4.12635e-05,4.44418e-05,-2.38946e-05,1.25629e-05
601,1.3456e-05,-9.56691e-06,4.5002e-05,3.98559e-05,-2.46085e-05,2.88567e-05
602,1.1991e-05,-5.28853e-06,5.04015e-05,3.45584e-05,-1.54606e-05,2.98288e-05
603,1.34253e-05,-9.09247e-06,5.34159e-05,3.10671e-05,-4.00227e-06,1.97603e-05
604,1.6269e-05,-1.8847e-05,5.42816e-05,2.86652e-05,3.72245e-06,9.72889e-06
605,1.80657e-05,-1.82622e-05,5.39535e-05,3.0846e-05,1.03095e-05,8.63244e-06
606,1.84186e-05,-5.12193e-06,5.29192e-05,3.62416e-05,1.60468e-05,1.12264e-05
607,1.7889e-05,6.49246e-06,5.38227e-05,3.78619e-05,1.27587e-05,7.83294e-06
608,1.56797e-05,1.05365e-05,5.6955e-05,3.77826e-05,5.00262e-06,8.32692e-07
609,1.23629e-05,1.73904e-06,5.64874e-05,3.66464e-05,1.30501e-07,-2.35301e-06
610,1.0644e-05,-1.16242e-05,5.16719e-05,3.53992e-05,-6.97007e-06,-1.58622e-06
611,1.09855e-05,-1.43655e-05,4.74902e-05,3.82426e-05,-1.41376e-05,-5.02428e-09
612,1.1578e-05,-7.0091e-06,4.80088e-05,4.49359e-05,-1.50335e-05,1.26417e-06
613,1.35849e-05,-1.28319e-06,5.03049e-05,5.07288e-05,-1.60083e-05,-9.65396e-09
614,1.80806e-05,-1.31472e-06,4.67362e-05,5.09755e-05,-1.80468e-05,-5.8229e-06
615,2.29667e-05,-7.06432e-06,3.86986e-05,4.53928e-05,-1.67856e-05,-1.23547e-05
616,2.47877e-05,-1.70442e-05,3.64669e-05,3.69249e-05,-1.21695e-05,-1.10282e-05
617,2.30075e-05,-1.76145e-05,4.0853e-05,3.22843e-05,3.1197e-06,-3.28418e-06
618,2.20165e-05,-5.9934e-06,4.44548e-05,3.54865e-05,2.68495e-05,1.68903e-06
619,2.32041e-05,3.89284e-06,4.26395e-05,4.21477e-05,4.09266e-05,-1.99553e-06
620,2.55898e-05,5.18239e-07,3.94302e-05,4.37382e-05,4.10977e-05,-1.25222e-05
621,2.6761e-05,-7.64492e-06,4.12756e-05,4.03458e-05,3.50742e-05,-1.81887e-05
622,2.35031e-05,-1.90584e-05,4.86084e-05,3.62724e-05,2.43158e-05,-1.95301e-05
623,1.74435e-05,-2.25607e-05,5.59041e-05,3.53372e-05,1.17211e-05,-2.56804e-05
624,1.43696e-05,-5.63247e-06,5.72493e-05,4.35829e-05,1.64355e-07,-2.92006e-05
625,1.57873e-05,4.07628e-06,5.47338e-05,5.05454e-05,-1.20369e-05,-2.39089e-05
626,1.77229e-05,2.82602e-06,5.31059e-05,4.87124e-05,-2.39991e-05,-1.27992e-05
627,1.73108e-05,4.09249e-06,5.32445e-05,4.28046e-05,-3.12907e-05,-4.84351e-06
628,1.48231e-05,6.02265e-06,5.36474e-05,3.63675e-05,-3.18498e-05,-7.22667e-06
629,1.2463e-05,6.78111e-06,5.41468e-05,3.54108e-05,-2.43436e-05,-1.27741e-05
630,1.19035e-05,-6.1146e-06,5.24966e-05,3.4995e-05,-1.08165e-05,-1.32483e-05
631,1.25467e-05,-2.39917e-05,4.95776e-05,3.14556e-05,4.25933e-07,-1.3737e-05
632,1.20878e-05,-2.53808e-05,4.86144e-05,3.19867e-05,8.25135e-06,-1.55759e-05
633,1.05598e-05,-9.38604e-06,5.19195e-05,3.61289e-05,1.8906e-05,-1.37888e-05
634,7.77573e-06,1.7767e-06,6.15514e-05,3.77088e-05,3.09824e-05,-9.04789e-06
635,5.41931e-06,3.79251e-06,7.38914e-05,3.86759e-05,4.50478e-05,-8.43279e-06
636,7.4765e-06,-3.85072e-06,8.01495e-05,3.94141e-05,6.01616e-05,-1.17059e-05
637,1.0332e-05,-1.54733e-05,7.64161e-05,3.91753e-05,6.43059e-05,-1.79239e-05
638,1.06576e-05,-1.71218e-05,6.97413e-05,3.91677e-05,5.90272e-05,-2.78649e-05
639,8.6541e-06,-5.41465e-06,6.62204e-05,3.96502e-05,5.47946e-05,-3.42632e-05
640,6.40149e-06,5.01247e-06,6.46509e-05,3.81621e-05,5.2248e-05,-3.13562e-05
641,5.34091e-06,5.56689e-06,5.93147e-05,3.55464e-05,4.82038e-05,-2.36342e-05
642,3.61834e-06,-9.57442e-07,5.1681e-05,3.31535e-05,3.84518e-05,-1.9306e-05
643,2.24524e-06,-1.22309e-05,5.09215e-05,2.97136e-05,2.1889e-05,-2.0353e-05
644,2.84926e-06,-1.44043e-05,5.47348e-05,3.09701e-05,8.31572e-06,-2.42898e-05
645,3.85932e-06,-2.66055e-06,5.66383e-05,3.79427e-05,6.91832e-06,-2.41692e-05
646,3.73063e-06,8.8566e-06,5.53522e-05,4.04545e-05,1.16533e-05,-2.15775e-05
647,5.25729e-06,9.17885e-06,5.27285e-05,3.81764e-05,1.58672e-05,-1.92311e-05
648,6.64214e-06,8.64522e-07,5.088e-05,3.65904e-05,1.85019e-05,-1.42528e-05
649,3.60106e-06,-1.33615e-05,5.20024e-05,2.98548e-05,1.76922e-05,-7.95694e-06
650,-8.37871e-07,-1.68779e-05,5.43672e-05,2.21038e-05,1.2184e-05,-5.64966e-06
651,2.84211e-07,-2.57158e-06,5.53498e-05,2.76149e-05,5.32066e-07,-7.19188e-06
652,5.83874e-06,3.43704e-06,5.41577e-05,3.32574e-05,-1.90172e-05,-8.93599e-06
653,9.83682e-06,-2.93055e-06,5.0318e-05,3.16551e-05,-4.08075e-05,-1.07072e-05
654,1.32832e-05,-2.72323e-06,4.56924e-05,3.13886e-05,-4.97186e-05,-1.35426e-05
655,1.75292e-05,-3.25144e-06,4.33175e-05,3.32775e-05,-3.76982e-05,-1.30143e-05
656,1.84834e-05,-5.90016e-06,4.40029e-05,4.05004e-05,-1.24225e-05,-7.71616e-06
657,1.56968e-05,-1.63051e-05,4.59432e-05,4.26513e-05,1.12867e-05,-3.78462e-06
658,1.45993e-05,-2.67866e-05,4.80514e-05,4.08212e-05,2.75395e-05,-8.36062e-06
659,1.73499e-05,-2.26837e-05,4.88159e-05,4.23467e-05,3.75592e-05,-1.85157e-05
660,2.21526e-05,-9.18853e-06,4.84036e-05,4.6067e-05,3.74362e-05,-2.33758e-05
661,2.56537e-05,-2.20582e-06,4.84828e-05,5.00362e-05,2.50327e-05,-1.92559e-05
662,2.65305e-05,-4.08189e-06,4.99955e-05,5.28107e-05,1.32559e-05,-7.80073e-06
663,2.7908e-05,-1.34676e-05,5.21099e-05,4.85221e-05,1.42446e-05,6.4276e-06
664,2.84004e-05,-2.26246e-05,5.1772e-05,4.06425e-05,2.01039e-05,1.18567e-05
665,2.5522e-05,-1.86997e-05,5.01933e-05,3.93574e-05,2.28351e-05,8.07871e-07
666,2.24836e-05,-5.51966e-06,5.04981e-05,4.60258e-05,2.2971e-05,-1.37338e-05
667,2.10285e-05,3.80377e-06,5.04306e-05,5.22031e-05,1.80311e-05,-1.70854e-05
668,2.28233e-05,4.67182e-06,5.02472e-05,5.18661e-05,7.83388e-06,-1.25276e-05
669,2.65183e-05,-2.29713e-06,4.95401e-05,4.73718e-05,-1.11719e-06,-8.5128e-06
670,2.73905e-05,-1.41467e-05,4.99812e-05,3.95922e-05,-1.08876e-07,-6.76643e-06
671,2.42528e-05,-1.32586e-05,5.2574e-05,3.72062e-05,9.92292e-06,-9.16952e-06
672,2.19223e-05,2.43445e-06,5.65167e-05,4.19836e-05,1.79043e-05,-1.2199e-05
673,2.36599e-05,1.42461e-05,5.96229e-05,4.42227e-05,1.71962e-05,-7.81501e-06
674,2.75129e-05,9.07095e-06,5.94075e-05,4.25056e-05,1.08225e-05,2.27456e-06
675,2.8579e-05,-5.23579e-06,5.5241e-05,4.0943e-05,5.21522e-06,1.09669e-05
676,2.44706e-05,-2.40524e-05,5.06887e-05,3.3862e-05,3.59827e-06,1.14593e-05
677,1.82701e-05,-3.08059e-05,5.06184e-05,2.92774e-05,7.36759e-06,2.33183e-06
678,1.38138e-05,-1.33666e-05,5.26444e-05,3.4919e-05,1.42662e-05,-5.81113e-06
679,1.2211e-05,-1.40202e-06,5.35556e-05,3.86419e-05,1.84852e-05,-2.09226e-06
680,1.23337e-05,-3.31908e-06,5.2381e-05,3.6331e-05,1.91371e-05,5.03796e-06
681,1.32097e-05,-4.72488e-06,5.10732e-05,3.27128e-05,2.0522e-05,6.29233e-06
682,1.18084e-05,-6.70982e-06,5.27162e-05,3.11502e-05,2.34773e-05,4.41568e-06
683,7.55898e-06,-3.45321e-06,5.72907e-05,3.25468e-05,2.55271e-05,6.76772e-07
684,4.48019e-06,-8.26418e-06,5.8683e-05,2.86497e-05,2.61551e-05,-4.25169e-06
685,4.2397e-06,-2.22623e-05,5.50395e-05,2.31487e-05,2.5225e-05,-8.41625e-06
686,5.03767e-06,-2.5427e-05,4.99004e-05,2.65493e-05,2.25046e-05,-1.05871e-05
687,6.51227e-06,-1.46284e-05,4.57137e-05,3.42017e-05,1.8427e-05,-1.22758e-05
688,6.62508e-06,-7.17633e-06,4.64037e-05,3.80228e-05,1.09392e-05,-1.2729e-05
689,6.58091e-06,-8.11592e-06,5.23667e-05,3.99603e-05,3.43583e-06,-1.24293e-05
690,8.36219e-06,-1.63068e-05,5.85838e-05,3.86237e-05,2.7409e-06,-1.23943e-05
691,8.28618e-06,-2.67684e-05,5.85764e-05,3.34453e-05,7.64197e-06,-1.27567e-05
692,4.73019e-06,-2.56008e-05,5.33872e-05,3.38633e-05,1.51136e-05,-1.15236e-05
693,-1.20382e-06,-1.26221e-05,4.97632e-05,4.15772e-05,2.19271e-05,-7.47186e-06
694,-4.87476e-06,-4.27819e-06,4.47885e-05,4.80084e-05,2.44931e-05,-2.78392e-06
695,-3.4742e-06,-7.04221e-06,3.87597e-05,4.62972e-05,2.26753e-05,-2.03394e-06
696,-3.20591e-07,-1.34569e-05,3.56278e-05,4.00505e-05,2.11663e-05,-6.00552e-06
697,2.47713e-07,-2.12204e-05,3.89586e-05,3.54911e-05,2.35381e-05,-9.65918e-06
698,-1.65399e-06,-1.93475e-05,4.66859e-05,3.81073e-05,2.73446e-05,-1.10531e-05
699,-3.4736e-06,-4.96138e-06,5.20872e-05,4.78355e-05,2.4962e-05,-8.70939e-06
700,-4.25859e-06,6.86318e-06,5.26498e-05,5.20842e-05,1.5799e-05,-5.8169e-06
701,-3.63986e-06,6.16703e-06,4.84379e-05,4.65928e-05,8.72236e-06,-6.16942e-06
702,-2.31355e-06,-1.72597e-06,4.50957e-05,3.85999e-05,5.55402e-06,-7.55876e-06
703,-2.32347e-06,-1.54639e-05,4.75359e-05,2.95282e-05,1.05164e-06,-6.90623e-06
704,-3.66609e-06,-1.9758e-05,5.46185e-05,2.8314e-05,-4.72286e-06,-2.81765e-06
705,-3.32158e-06,-3.72108e-06,5.93134e-05,3.99408e-05,-6.01538e-06,2.62979e-06
706,-4.62018e-07,6.6405e-06,5.7063e-05,4.68176e-05,2.05116e-06,1.68197e-06
707,2.86028e-06,4.78612e-06,4.99127e-05,4.10267e-05,2.56328e-05,-2.92709e-06
708,4.84727e-06,6.35347e-06,4.56531e-05,3.69848e-05,5.99844e-05,-4.67306e-06
709,6.44577e-06,1.01687e-05,4.98603e-05,3.85971e-05,8.28604e-05,-8.31485e-06
710,8.83887e-06,1.31995e-05,5.74946e-05,3.99105e-05,8.10518e-05,-1.45764e-05
711,9.83186e-06,2.9752e-06,5.94006e-05,3.71914e-05,6.50864e-05,-1.73836e-05
712,7.70579e-06,-1.50863e-05,5.54427e-05,3.55175e-05,5.08298e-05,-1.624e-05
713,5.51331e-06,-1.7632e-05,4.98949e-05,4.07751e-05,4.40474e-05,-1.4198e-05
714,8.53917e-06,-2.53243e-06,4.47536e-05,4.74409e-05,3.88767e-05,-1.02906e-05
715,1.37405e-05,7.99342e-06,4.44982e-05,4.80638e-05,2.66234e-05,-9.06095e-06
716,1.35282e-05,7.02062e-06,5.16823e-05,4.40338e-05,8.54392e-06,-9.48362e-06
717,1.03265e-05,-4.47915e-06,5.80242e-05,3.86206e-05,-3.43314e-06,-8.1777e-06
718,1.05492e-05,-1.835e-05,5.64981e-05,3.46237e-05,1.85916e-06,-8.50344e-06
719,1.53681e-05,-2.10446e-05,5.00406e-05,3.4228e-05,2.26471e-05,-9.92346e-06
720,1.91311e-05,-1.12676e-05,4.42425e-05,3.45246e-05,4.91257e-05,-6.78035e-06
721,1.96908e-05,4.24333e-07,4.16107e-05,3.5556e-05,7.19783e-05,6.34878e-07
722,1.98429e-05,3.98855e-06,3.85602e-05,3.73333e-05,7.97476e-05,2.63439e-06
723,2.05661e-05,-3.29198e-06,3.6139e-05,3.56333e-05,6.86462e-05,1.441e-06
724,2.10922e-05,-1.8242e-05,3.86712e-05,2.80841e-05,4.66694e-05,4.13974e-06
725,2.11263e-05,-2.13227e-05,4.57966e-05,2.32849e-05,2.65533e-05,7.88619e-06
726,2.0905e-05,-9.79807e-06,5.32465e-05,2.73927e-05,1.57239e-05,1.24518e-05
727,1.96489e-05,-4.56118e-06,5.48414e-05,3.38152e-05,6.66428e-06,1.75193e-05
728,1.92741e-05,-8.3968e-06,5.04307e-05,3.62275e-05,-1.20373e-05,1.68976e-05
729,1.98046e-05,-9.48612e-06,4.42456e-05,3.42717e-05,-3.28176e-05,1.37574e-05
730,1.75615e-05,-1.91451e-05,4.15244e-05,2.85962e-05,-3.3228e-05,1.14189e-05
731,1.24789e-05,-2.62379e-05,4.29388e-05,2.63179e-05,-7.59945e-06,5.80951e-06
732,8.49449e-06,-1.46455e-05,4.54252e-05,3.29922e-05,2.32651e-05,-5.60794e-06
733,7.98268e-06,-5.19644e-06,4.67978e-05,3.85083e-05,3.36868e-05,-1.23035e-05
734,1.05557e-05,-3.36976e-06,4.45865e-05,3.95664e-05,2.04778e-05,-1.06982e-05
735,1.34907e-05,1.01454e-06,3.96612e-05,4.19376e-05,-5.08585e-07,-1.3113e-05
736,1.46475e-05,3.21396e-06,3.84408e-05,3.94232e-05,-1.72607e-05,-1.93858e-05
737,1.51882e-05,3.086e-06,4.39587e-05,3.64888e-05,-2.57611e-05,-2.59127e-05
738,1.55482e-05,-3.908e-06,5.13691e-05,3.39953e-05,-2.78624e-05,-3.30815e-05
739,1.45204e-05,-1.64411e-05,5.49423e-05,2.79363e-05,-3.36566e-05,-3.71288e-05
740,1.26089e-05,-1.82263e-05,5.06034e-05,2.82485e-05,-4.17003e-05,-3.64959e-05
741,1.14845e-05,-5.76843e-06,4.36452e-05,3.86447e-05,-3.45527e-05,-3.37972e-05
742,9.81274e-06,2.95388e-06,4.18428e-05,4.85458e-05,-9.52893e-06,-3.25227e-05
743,7.95559e-06,2.41482e-06,4.45619e-05,4.86699e-05,1.48527e-05,-3.43002e-05
744,7.79967e-06,-5.16991e-06,4.74717e-05,4.45024e-05,2.25621e-05,-3.76669e-05
745,8.43075e-06,-1.68551e-05,4.95258e-05,3.93883e-05,1.05559e-05,-4.15479e-05
746,8.77136e-06,-1.91304e-05,5.50085e-05,3.74503e-05,-3.50435e-06,-4.57148e-05
747,4.93714e-06,-8.86634e-06,6.14422e-05,4.07342e-05,-3.96126e-06,-4.53782e-05
748,-4.17831e-07,2.08926e-06,6.06396e-05,4.24068e-05,3.10877e-06,-3.64324e-05
749,-9.90384e-07,4.93123e-06,5.53216e-05,3.83391e-05,7.0835e-06,-2.53023e-05
750,4.42153e-06,-1.21912e-06,5.30072e-05,3.33429e-05,1.9667e-06,-1.66241e-05
751,9.68616e-06,-1.28487e-05,5.51113e-05,3.04439e-05,-4.58229e-06,-1.05716e-05
752,1.0475e-05,-1.68542e-05,5.70558e-05,3.43228e-05,-2.93728e-06,-7.88533e-06
753,8.45534e-06,-8.54296e-06,5.41839e-05,4.14921e-05,8.77067e-06,9.51653e-07
754,6.05909e-06,-4.8041e-07,4.93515e-05,4.29122e-05,2.34023e-05,1.92946e-05
755,5.54512e-06,-1.60564e-06,4.76959e-05,4.50741e-05,3.18345e-05,2.70989e-05
756,7.11005e-06,-9.25948e-06,4.85073e-05,4.57443e-05,3.02641e-05,1.84257e-05
757,9.98854e-06,-2.17494e-05,5.17862e-05,3.58205e-05,2.33843e-05,8.37316e-06
758,1.2435e-05,-2.27645e-05,5.64318e-05,2.95206e-05,2.35334e-05,1.60714e-06
759,1.25407e-05,-3.30759e-06,5.85705e-05,3.6482e-05,3.45776e-05,-5.47168e-06
760,9.72507e-06,1.0758e-05,5.65964e-05,4.22985e-05,4.68315e-05,-7.60058e-06
761,7.34266e-06,8.21539e-06,5.1718e-05,4.24307e-05,5.01804e-05,-6.08723e-06
762,7.11221e-06,3.48411e-06,4.78349e-05,4.24661e-05,4.24277e-05,-2.8067e-06
763,7.36794e-06,1.04631e-06,4.98679e-05,4.56561e-05,2.72513e-05,5.58999e-06
764,7.41615e-06,4.64317e-07,5.47494e-05,4.78378e-05,1.3514e-05,1.18306e-05
765,8.81651e-06,-6.85124e-06,5.59352e-05,4.25569e-05,5.96903e-06,8.91976e-06
766,1.04978e-05,-1.66897e-05,5.47812e-05,3.34117e-05,-8.30124e-07,5.6418e-07
767,9.99629e-06,-1.34398e-05,5.36603e-05,2.98533e-05,-1.01208e-05,-4.25747e-06
768,8.69317e-06,9.54749e-07,5.34282e-05,3.11532e-05,-1.05715e-05,-7.30175e-06
769,8.83425e-06,9.81617e-06,5.38457e-05,3.47211e-05,2.2929e-06,-9.71207e-06
770,8.63483e-06,9.14798e-06,5.47097e-05,3.87682e-05,1.64959e-05,-8.33018e-06
771,8.57106e-06,4.00824e-07,5.60639e-05,3.50834e-05,2.6737e-05,-3.67361e-06
772,9.72406e-06,-1.2425e-05,5.46784e-05,2.65362e-05,3.13843e-05,1.69804e-06
773,1.13403e-05,-1.66123e-05,5.25304e-05,2.38395e-05,2.95396e-05,5.60091e-06
774,1.0301e-05,-8.72718e-06,5.58901e-05,3.09206e-05,2.15326e-05,5.78032e-06
775,6.51408e-06,7.81294e-07,6.09686e-05,4.17849e-05,3.50886e-06,2.03426e-06
776,4.91394e-06,1.61479e-06,6.03195e-05,4.66018e-05,-2.65481e-05,-2.16242e-06
777,6.56344e-06,-5.99599e-06,5.42047e-05,4.14078e-05,-6.18436e-05,-4.50818e-06
778,9.95708e-06,-1.83423e-05,5.07412e-05,3.40092e-05,-8.03576e-05,-5.53176e-06
779,1.31959e-05,-2.19681e-05,5.27336e-05,3.45495e-05,-6.78083e-05,-6.77212e-06
780,1.56418e-05,-1.20254e-05,5.52494e-05,4.18146e-05,-3.83901e-05,-5.9613e-06
781,1.67596e-05,-3.19867e-06,5.34134e-05,4.63104e-05,-1.60952e-05,-3.87002e-06
782,1.71796e-05,-5.18024e-06,4.94147e-05,4.45669e-05,-4.70539e-06,-6.5464e-06
783,1.6987e-05,-1.17264e-05,4.67543e-05,3.92733e-05,6.15951e-06,-1.50012e-05
784,1.44356e-05,-2.16418e-05,4.69637e-05,2.97661e-05,2.20719e-05,-2.19884e-05
785,9.80596e-06,-2.56426e-05,4.85047e-05,2.63001e-05,3.89867e-05,-2.72371e-05
786,5.69275e-06,-8.8008e-06,4.85515e-05,3.50304e-05,4.65876e-05,-2.893e-05
787,4.4402e-06,3.25541e-06,4.84343e-05,3.9375e-05,4.00268e-05,-2.29835e-05
788,6.59392e-06,1.37425e-06,4.88283e-05,3.53462e-05,2.63836e-05,-1.72279e-05
789,1.09768e-05,1.26166e-06,4.80845e-05,3.04982e-05,1.74001e-05,-1.72672e-05
790,1.38418e-05,5.55208e-07,5.00098e-05,2.90714e-05,1.58559e-05,-2.17189e-05
791,1.22689e-05,-7.80205e-07,5.68968e-05,3.14685e-05,1.68417e-05,-2.32383e-05
792,7.83604e-06,-1.24393e-05,6.19554e-05,3.07426e-05,1.63569e-05,-2.08038e-05
793,3.95498e-06,-2.53011e-05,6.33127e-05,2.54489e-05,1.57674e-05,-1.52913e-05
794,2.52962e-06,-2.16554e-05,6.28743e-05,2.54035e-05,1.7102e-05,-1.02547e-05
795,3.79671e-06,-6.37038e-06,6.20075e-05,3.24521e-05,1.57487e-05,-7.65585e-06
796,7.04488e-06,1.81722e-06,6.05614e-05,3.66336e-05,7.12195e-06,-5.48731e-06
797,1.12693e-05,6.02297e-07,5.88034e-05,3.43996e-05,6.53376e-07,-6.34194e-06
798,1.5418e-05,-7.67711e-06,5.84226e-05,2.6892e-05,5.34757e-06,-6.9937e-06
799,1.83627e-05,-1.86209e-05,6.13128e-05,1.95179e-05,1.5891e-05,-6.91693e-06
800,2.15288e-05,-1.70501e-05,6.62979e-05,2.11468e-05,2.60426e-05,-8.10253e-06
801,2.38497e-05,-2.62646e-06,6.84175e-05,3.32015e-05,3.26015e-05,-1.07309e-05
802,2.40896e-05,5.37034e-06,6.77281e-05,4.31799e-05,3.31942e-05,-1.36299e-05
803,2.45225e-05,-1.29744e-06,6.33541e-05,4.3475e-05,3.05251e-05,-1.6539e-05
804,2.38769e-05,-1.43584e-05,5.41038e-05,3.84202e-05,2.46957e-05,-1.74061e-05
805,2.14463e-05,-2.8615e-05,4.82523e-05,3.36199e-05,1.43043e-05,-1.6185e-05
806,2.16124e-05,-2.97384e-05,4.83272e-05,3.3059e-05,2.00879e-06,-1.55179e-05
807,2.55428e-05,-1.40154e-05,4.96104e-05,3.74819e-05,-1.32477e-05,-1.6426e-05
808,2.94757e-05,3.08857e-07,4.62917e-05,4.03314e-05,-3.27241e-05,-1.53749e-05
809,3.0755e-05,-3.36325e-08,4.09623e-05,3.78327e-05,-4.41777e-05,-1.1875e-05
810,2.9317e-05,-9.97763e-06,3.99547e-05,3.10285e-05,-3.7958e-05,-1.11563e-05
811,2.58174e-05,-2.71749e-05,4.53698e-05,2.25288e-05,-2.3556e-05,-1.26022e-05
812,2.30098e-05,-3.32868e-05,5.36241e-05,2.31339e-05,-1.16949e-05,-1.2571e-05
813,2.27798e-05,-1.71153e-05,5.6431e-05,3.21072e-05,-3.9723e-07,-8.01864e-06
814,2.36373e-05,-1.44601e-06,5.18243e-05,3.76249e-05,1.13866e-05,-3.59483e-06
815,2.46242e-05,3.65006e-06,4.62056e-05,3.79726e-05,1.3982e-05,-4.64621e-06
816,2.63427e-05,3.0644e-06,4.6121e-05,3.84078e-05,2.44453e-06,-8.02255e-06
817,2.77034e-05,-2.01109e-07,5.1416e-05,3.77211e-05,-1.47629e-05,-1.03438e-05
818,2.65504e-05,-1.7726e-06,5.75803e-05,3.54581e-05,-2.23414e-05,-9.61065e-06
819,2.38417e-05,-1.02614e-05,5.91039e-05,3.02422e-05,-1.41227e-05,-5.59021e-06
820,2.16466e-05,-2.24945e-05,5.5799e-05,2.47164e-05,5.52334e-07,-2.37947e-06
821,2.06284e-05,-1.90026e-05,4.89957e-05,2.78338e-05,1.09401e-05,-5.51859e-06
822,1.99554e-05,-1.56706e-06,4.22281e-05,3.4542e-05,2.03066e-05,-1.03845e-05
823,1.90177e-05,9.85396e-06,4.03668e-05,3.87138e-05,3.92137e-05,-1.05683e-05
824,1.68795e-05,1.00297e-05,4.45789e-05,3.94714e-05,6.40954e-05,-8.08592e-06
825,1.52947e-05,2.58275e-07,4.95565e-05,3.66772e-05,7.25623e-05,-6.63478e-06
826,1.59174e-05,-1.17283e-05,4.74004e-05,3.00062e-05,5.39653e-05,-7.69869e-06
827,1.49696e-05,-1.0557e-05,4.22465e-05,2.51246e-05,3.2378e-05,-9.1543e-06
828,1.24827e-05,1.95336e-06,4.47122e-05,2.93427e-05,2.91927e-05,-1.16743e-05
829,1.16945e-05,8.46894e-06,5.04326e-05,3.61612e-05,3.89659e-05,-1.34254e-05
830,1.40053e-05,2.94552e-06,4.96801e-05,3.84309e-05,5.28013e-05,-1.18191e-05
831,1.65686e-05,-6.48509e-06,4.50674e-05,3.7162e-05,6.50982e-05,-6.87989e-06
832,1.60977e-05,-1.47747e-05,4.63908e-05,3.50022e-05,6.71978e-05,-1.74439e-06
833,1.39159e-05,-1.32238e-05,5.35499e-05,3.48837e-05,5.55607e-05,-1.91616e-06
834,1.05703e-05,4.83783e-07,5.90281e-05,4.01556e-05,3.58444e-05,-7.93245e-06
835,7.87717e-06,1.22046e-05,5.87087e-05,4.55476e-05,1.57338e-05,-1.39769e-05
836,7.29265e-06,1.08331e-05,5.33932e-05,4.8808e-05,6.36944e-06,-1.69168e-05
837,7.11898e-06,6.76588e-07,4.82169e-05,4.7682e-05,1.19062e-05,-1.62314e-05
838,3.76749e-06,-1.62652e-05,4.824e-05,4.05661e-05,2.65514e-05,-1.24958e-05
839,-6.55295e-07,-2.17343e-05,5.20136e-05,3.94759e-05,4.43782e-05,-8.36775e-06
840,-2.44428e-06,-1.5121e-06,5.45724e-05,4.77529e-05,5.80707e-05,-5.53972e-06
841,-2.31082e-06,1.06599e-05,5.38219e-05,5.07616e-05,5.96829e-05,-4.4326e-06
842,-1.88539e-06,6.87382e-06,4.91575e-05,5.02033e-05,5.2705e-05,-5.92725e-06
843,-1.10016e-06,5.60136e-06,4.29363e-05,5.30913e-05,4.95383e-05,-8.37358e-06
844,-6.80826e-07,4.52602e-06,4.19225e-05,5.13716e-05,4.95436e-05,-8.01903e-06
845,-5.48087e-07,1.86874e-06,4.74576e-05,4.72664e-05,4.19892e-05,-5.76951e-06
846,1.73658e-06,-8.52391e-06,5.2663e-05,4.36098e-05,2.56021e-05,-2.71107e-06
847,6.70802e-06,-2.21058e-05,5.28671e-05,4.29896e-05,5.49128e-06,-5.37324e-06
848,1.33576e-05,-2.35369e-05,4.71249e-05,4.44132e-05,-1.20595e-05,-1.25178e-05
849,1.88773e-05,-1.32636e-05,3.99357e-05,4.58986e-05,-1.94132e-05,-1.31693e-05
850,1.99439e-05,-6.87313e-06,3.81873e-05,4.76422e-05,-1.9842e-05,-9.50693e-06
851,1.78673e-05,-4.25248e-06,4.1276e-05,4.94715e-05,-2.29146e-05,-6.38341e-06
852,1.75422e-05,-9.44407e-06,4.48507e-05,4.75935e-05,-2.42049e-05,-4.0576e-06
853,1.74176e-05,-2.00388e-05,4.54938e-05,4.06647e-05,-5.65299e-06,-3.65034e-06
854,1.47008e-05,-2.06953e-05,4.30329e-05,3.81199e-05,3.04033e-05,-6.1022e-06
855,8.50879e-06,-7.75457e-06,4.3665e-05,4.1543e-05,5.68914e-05,-7.66079e-06
856,3.68493e-06,4.82282e-06,4.57767e-05,4.4524e-05,5.88356e-05,-4.52861e-06
857,5.13052e-06,4.82679e-06,4.65574e-05,4.33631e-05,4.5447e-05,-1.45516e-06
858,9.60759e-06,-5.86573e-06,4.9776e-05,3.96423e-05,2.85497e-05,-1.93293e-06
859,1.17857e-05,-1.99681e-05,5.67896e-05,3.44309e-05,1.38812e-05,-4.11895e-06
860,9.25032e-06,-2.13749e-05,6.33138e-05,3.37482e-05,4.56278e-06,-6.20824e-06
861,4.31013e-06,-5.93296e-06,6.55166e-05,4.10652e-05,-4.29381e-06,-9.2497e-06
862,6.33043e-07,8.39263e-06,6.3005e-05,4.76571e-05,-1.54394e-05,-1.42832e-05
863,1.33898e-06,6.14728e-06,5.92778e-05,4.71746e-05,-1.917e-05,-1.87107e-05
864,4.61682e-06,-8.96224e-06,5.77652e-05,4.57557e-05,-1.26359e-05,-1.5582e-05
865,4.60191e-06,-3.12147e-05,5.72733e-05,3.95291e-05,-3.77593e-06,-7.14455e-06
866,8.93497e-07,-3.7538e-05,5.54822e-05,3.50979e-05,5.67341e-06,-2.28209e-07
867,-1.85157e-06,-1.67347e-05,5.45552e-05,4.31169e-05,1.59093e-05,1.32114e-06
868,-2.94321e-07,-3.59764e-06,5.63588e-05,4.32599e-05,2.15222e-05,-1.45066e-06
869,4.32696e-06,-4.78296e-06,5.47322e-05,3.34036e-05,2.1038e-05,-6.99595e-07
870,9.81522e-06,-2.95805e-06,4.79225e-05,3.29923e-05,1.9192e-05,1.88726e-06
871,1.38429e-05,-2.73553e-06,4.47079e-05,4.21891e-05,1.78809e-05,3.14048e-06
872,1.39636e-05,-6.31682e-06,5.05783e-05,4.41212e-05,1.69743e-05,5.46699e-06
873,1.0658e-05,-1.80188e-05,5.94446e-05,3.33558e-05,1.42248e-05,1.09794e-05
874,6.17848e-06,-2.86107e-05,6.35782e-05,2.0397e-05,8.11127e-06,1.05986e-05
875,2.8523e-06,-2.30177e-05,6.08328e-05,2.19204e-05,3.32925e-06,2.8956e-06
876,1.13685e-06,-5.30252e-06,5.45858e-05,3.52902e-05,3.13017e-06,-2.58558e-06
877,-7.43555e-07,4.63727e-06,5.26888e-05,4.42532e-05,3.99851e-06,-2.67969e-06
878,-2.18899e-06,2.3492e-06,5.48346e-05,4.59313e-05,7.43868e-06,2.0136e-06
879,8.63554e-08,-9.33787e-06,5.49016e-05,3.89991e-05,1.9507e-05,5.39815e-06
880,2.94337e-06,-2.20924e-05,5.39977e-05,3.02229e-05,3.06967e-05,5.24249e-06
881,2.90709e-06,-2.43388e-05,5.27631e-05,3.05211e-05,3.06189e-05,6.80193e-07
882,2.00616e-06,-1.37783e-05,5.0656e-05,3.89352e-05,2.53955e-05,-6.17463e-06
883,2.89193e-06,-1.35641e-06,4.71722e-05,4.28394e-05,2.26345e-05,-1.07274e-05
884,4.77211e-06,3.76251e-06,4.30759e-05,4.04766e-05,2.87179e-05,-9.77637e-06
885,4.50461e-06,-1.55659e-07,4.19122e-05,3.73365e-05,3.84976e-05,-7.53831e-06
886,2.32736e-06,-1.10833e-05,4.64298e-05,3.30849e-05,4.17607e-05,-1.0415e-05
887,3.52919e-07,-1.32732e-05,5.03095e-05,3.23665e-05,4.10477e-05,-1.62684e-05
888,2.55763e-07,-5.37594e-07,4.96736e-05,3.73034e-05,3.90766e-05,-2.02586e-05
889,1.75604e-06,1.36302e-05,4.54361e-05,4.08713e-05,3.76521e-05,-2.01953e-05
890,3.01951e-06,1.53173e-05,4.02247e-05,4.11939e-05,4.06825e-05,-1.77081e-05
891,3.60694e-06,6.17365e-06,3.92551e-05,4.21761e-05,4.24681e-05,-1.5972e-05
892,4.50594e-06,-1.173e-05,4.53328e-05,4.04297e-05,3.39152e-05,-1.65394e-05
893,6.39046e-06,-1.89881e-05,5.38748e-05,3.95757e-05,1.80246e-05,-1.60493e-05
894,7.99874e-06,-3.71758e-06,5.76927e-05,4.36752e-05,7.2016e-06,-1.72763e-05
895,9.02016e-06,7.91521e-06,5.63227e-05,4.50437e-05,5.81787e-06,-2.09498e-05
896,1.00293e-05,4.8498e-06,5.18617e-05,4.56686e-05,2.73799e-06,-1.53779e-05
897,1.15263e-05,9.46668e-07,4.69888e-05,4.64465e-05,-1.55842e-05,-6.38435e-06
898,1.28888e-05,-1.01387e-06,4.39781e-05,4.52055e-05,-4.43562e-05,-6.37896e-06
899,1.38835e-05,-1.54987e-06,4.55209e-05,4.4775e-05,-5.89136e-05,-1.14904e-05
900,1.55141e-05,-1.12955e-05,4.95378e-05,3.94995e-05,-4.41629e-05,-1.21968e-05
901,1.75381e-05,-2.49104e-05,5.06708e-05,3.08033e-05,-1.32909e-05,-1.00637e-05
902,1.89887e-05,-2.20533e-05,4.81965e-05,2.8768e-05,9.89912e-06,-1.39154e-05
903,2.03887e-05,-6.29751e-06,4.51605e-05,3.46556e-05,1.7347e-05,-2.38051e-05
904,2.24316e-05,2.51528e-06,4.49407e-05,4.2331e-05,1.72997e-05,-3.44932e-05
905,2.40308e-05,-5.9372e-07,4.77058e-05,4.51888e-05,2.06271e-05,-3.61857e-05
906,2.31392e-05,-1.09004e-05,5.20215e-05,3.98306e-05,3.27337e-05,-2.97592e-05
907,2.05133e-05,-2.07252e-05,5.74976e-05,3.19748e-05,4.09031e-05,-2.27017e-05
908,1.93178e-05,-2.02872e-05,6.0258e-05,3.26889e-05,3.5631e-05,-1.77333e-05
909,1.77258e-05,-1.14223e-05,6.02269e-05,4.08006e-05,2.71285e-05,-1.41625e-05
910,1.44509e-05,-5.98002e-06,5.80455e-05,4.36612e-05,2.30204e-05,-1.30342e-05
911,1.42092e-05,-7.31522e-06,5.24983e-05,4.0185e-05,2.43901e-05,-1.50742e-05
912,1.70586e-05,-1.21884e-05,4.56115e-05,3.69635e-05,2.28745e-05,-1.82008e-05
913,1.82306e-05,-2.01557e-05,4.40882e-05,3.55253e-05,1.61697e-05,-2.02103e-05
914,1.80632e-05,-2.03318e-05,4.73087e-05,3.49353e-05,1.56301e-05,-1.94016e-05
915,1.78159e-05,-8.29972e-06,4.96157e-05,3.70725e-05,2.39292e-05,-1.71142e-05
916,1.75488e-05,2.68686e-06,4.77372e-05,3.89351e-05,2.91311e-05,-1.47125e-05
917,1.84969e-05,2.13802e-06,4.40677e-05,3.68732e-05,2.452e-05,-1.19915e-05
918,2.03982e-05,-8.87097e-06,4.26949e-05,3.44098e-05,1.24455e-05,-1.20968e-05
919,2.02621e-05,-2.66463e-05,4.61848e-05,2.92373e-05,-2.13944e-06,-1.74182e-05
920,1.85577e-05,-2.9693e-05,5.23589e-05,2.39543e-05,-1.08265e-05,-2.45719e-05
921,1.84341e-05,-1.09441e-05,5.50413e-05,2.60507e-05,-9.35535e-06,-2.45032e-05
922,2.08636e-05,-8.86752e-07,5.34908e-05,2.63648e-05,-2.69382e-06,-1.169e-05
923,2.35968e-05,-1.69476e-06,5.0992e-05,2.27855e-05,2.56725e-06,1.17748e-07
924,2.55837e-05,-3.66936e-09,5.12382e-05,2.1478e-05,8.30071e-06,-4.05708e-06
925,2.60141e-05,-1.42633e-07,5.57521e-05,1.98056e-05,1.74453e-05,-1.29935e-05
926,2.45345e-05,1.12627e-07,6.24687e-05,1.87345e-05,2.7794e-05,-9.50519e-06
927,2.40433e-05,-6.54401e-06,6.56277e-05,1.66439e-05,3.40701e-05,-1.32833e-06
928,2.47441e-05,-1.9608e-05,6.40005e-05,1.60644e-05,3.16973e-05,-4.61566e-06
929,2.40241e-05,-2.21882e-05,5.87337e-05,2.46628e-05,2.17217e-05,-1.40581e-05
930,2.37306e-05,-1.14973e-05,5.57655e-05,3.7945e-05,1.29227e-05,-7.86997e-06
931,2.60557e-05,-2.35454e-06,5.93112e-05,4.30073e-05,7.08372e-06,1.36911e-05
932,2.67966e-05,1.83814e-07,6.56189e-05,3.88178e-05,-1.98689e-06,2.90929e-05
933,2.38969e-05,-3.98738e-06,6.52822e-05,3.14147e-05,-2.09569e-05,2.65682e-05
934,1.68595e-05,-1.19779e-05,5.86425e-05,2.73394e-05,-4.63651e-05,1.47234e-05
935,1.04218e-05,-1.35902e-05,5.37316e-05,3.24983e-05,-5.8377e-05,6.23539e-06
936,8.89662e-06,-6.25393e-06,5.42051e-05,4.28242e-05,-4.88872e-05,6.00307e-06
937,1.05577e-05,1.07858e-06,5.58704e-05,4.76693e-05,-3.20594e-05,8.86584e-06
938,1.3621e-05,2.21875e-06,5.43432e-05,4.5079e-05,-1.92443e-05,8.70029e-06
939,1.4151e-05,-4.82573e-06,5.4463e-05,4.11457e-05,-8.70968e-06,5.12683e-06
940,9.98712e-06,-1.98502e-05,5.93948e-05,3.64415e-05,1.00909e-06,-1.19139e-06
941,4.3683e-06,-2.68675e-05,6.39995e-05,3.41534e-05,1.30799e-05,-6.19613e-06
942,1.24174e-06,-1.75186e-05,6.39484e-05,3.90101e-05,3.26253e-05,-7.20684e-06
943,1.64168e-07,-5.67167e-06,5.9639e-05,4.45303e-05,5.5054e-05,-6.02236e-06
944,5.72989e-07,-1.34411e-06,5.31221e-05,4.46994e-05,6.57025e-05,-3.65102e-06
945,2.45378e-06,-3.59626e-06,4.99589e-05,4.18222e-05,5.57241e-05,-1.61993e-06
946,4.59393e-06,-1.71897e-05,5.12444e-05,3.81252e-05,3.14437e-05,-9.16605e-07
947,6.9868e-06,-2.50898e-05,5.28806e-05,3.65387e-05,7.52571e-06,-2.6384e-06
948,9.52495e-06,-7.3856e-06,5.35382e-05,3.97911e-05,-4.04059e-06,-1.07935e-05
949,1.1323e-05,6.31794e-06,5.51799e-05,4.09709e-05,-9.0581e-07,-1.69574e-05
950,1.20429e-05,5.45994e-06,5.74718e-05,4.13739e-05,1.39991e-05,-1.41403e-05
951,1.08014e-05,2.6478e-06,5.80161e-05,4.28617e-05,3.20809e-05,-9.52903e-06
952,6.97594e-06,2.44606e-06,5.69663e-05,4.14002e-05,4.17899e-05,-9.80172e-06
953,4.3477e-06,4.38128e-06,5.84569e-05,3.74148e-05,4.13304e-05,-1.2999e-05
954,6.08008e-06,-4.8878e-06,6.25091e-05,2.73081e-05,3.73406e-05,-1.62476e-05
955,8.77321e-06,-1.63465e-05,6.45482e-05,1.81803e-05,3.33732e-05,-2.18954e-05
956,7.70247e-06,-1.5168e-05,6.16887e-05,1.97527e-05,2.63618e-05,-2.39621e-05
957,4.2612e-06,-3.92863e-06,5.30325e-05,3.06823e-05,1.33019e-05,-1.94767e-05
958,2.52566e-06,1.27337e-06,4.58046e-05,3.80065e-05,-4.84633e-06,-1.61995e-05
959,1.94006e-06,7.70603e-07,4.63298e-05,3.78841e-05,-2.29683e-05,-1.69803e-05
960,2.83748e-06,-7.95223e-06,4.95412e-05,3.4186e-05,-3.14276e-05,-1.70366e-05
961,4.94321e-06,-2.04873e-05,5.1118e-05,3.15658e-05,-2.79096e-05,-1.38163e-05
962,4.56602e-06,-2.30025e-05,5.42778e-05,3.3477e-05,-1.64907e-05,-1.02329e-05
963,1.9261e-06,-1.28674e-05,5.67757e-05,3.74588e-05,-4.87719e-06,-9.54155e-06
964,2.7841e-06,-1.90219e-06,5.4893e-05,3.91096e-05,2.1814e-06,-1.31994e-05
965,7.53382e-06,1.60921e-06,5.26171e-05,3.89809e-05,7.44365e-06,-1.66523e-05
966,1.06555e-05,-3.62874e-06,5.05061e-05,3.99395e-05,1.13257e-05,-1.71775e-05
967,1.19646e-05,-1.75064e-05,5.09842e-05,3.94337e-05,1.05465e-05,-1.93425e-05
968,1.23493e-05,-2.27756e-05,5.41231e-05,3.97171e-05,8.11472e-06,-2.53654e-05
969,1.26875e-05,-9.87286e-06,5.49789e-05,4.60815e-05,1.0192e-05,-2.92899e-05
970,1.4269e-05,5.16173e-06,5.1507e-05,5.29059e-05,1.47694e-05,-2.69399e-05
971,1.69506e-05,7.12702e-06,4.6823e-05,5.19004e-05,1.91692e-05,-2.12649e-05
972,1.85247e-05,2.41757e-07,4.40908e-05,4.55406e-05,2.12614e-05,-1.55184e-05
973,1.71225e-05,-1.44645e-05,4.41614e-05,3.76806e-05,2.19414e-05,-1.44239e-05
974,1.29848e-05,-2.02759e-05,4.58253e-05,3.69204e-05,2.48965e-05,-1.87943e-05
975,8.95939e-06,-7.38066e-06,4.55509e-05,4.21382e-05,3.05405e-05,-1.94217e-05
976,8.2505e-06,2.85919e-06,4.20997e-05,4.27627e-05,3.46587e-05,-1.36453e-05
977,1.07432e-05,2.2886e-06,3.71685e-05,4.27196e-05,3.49737e-05,-9.87167e-06
978,1.45302e-05,3.20991e-06,3.33347e-05,4.11676e-05,3.23873e-05,-1.16222e-05
979,1.71188e-05,8.49946e-06,3.34865e-05,3.61383e-05,2.73115e-05,-1.44188e-05
980,1.78665e-05,1.35255e-05,3.86262e-05,3.55105e-05,2.40866e-05,-1.75617e-05
981,1.82279e-05,4.78065e-06,4.49045e-05,3.64519e-05,3.20267e-05,-1.92792e-05
982,1.96429e-05,-1.11999e-05,4.81101e-05,4.02312e-05,5.44583e-05,-1.81263e-05
983,2.23261e-05,-1.30229e-05,4.53038e-05,4.51294e-05,7.87974e-05,-1.68136e-05
984,2.6598e-05,-2.13662e-07,3.78243e-05,4.6715e-05,8.04764e-05,-1.56692e-05
985,2.98842e-05,9.20815e-06,3.15065e-05,4.1524e-05,5.44907e-05,-1.50849e-05
986,2.90042e-05,7.14406e-06,3.00911e-05,3.34298e-05,2.91502e-05,-1.52881e-05
987,2.41902e-05,-5.31399e-06,3.31941e-05,2.57123e-05,2.50232e-05,-1.35345e-05
988,1.90002e-05,-1.91898e-05,3.96331e-05,2.26675e-05,2.61454e-05,-9.9118e-06
989,1.60364e-05,-1.95402e-05,4.35675e-05,3.10592e-05,4.00647e-06,-7.69199e-06
990,1.51337e-05,-4.84462e-06,4.29898e-05,4.54911e-05,-4.31825e-05,-7.40741e-06
991,1.54654e-05,8.67713e-06,4.16902e-05,5.43037e-05,-8.59539e-05,-7.47103e-06
992,1.70337e-05,9.92853e-06,3.98774e-05,5.50779e-05,-9.23896e-05,-4.31875e-06
993,1.88065e-05,1.28165e-06,3.85575e-05,5.09617e-05,-6.29645e-05,1.78204e-06
994,1.81867e-05,-1.29372e-05,4.14247e-05,4.32674e-05,-2.53946e-05,6.50708e-06
995,1.60386e-05,-1.68061e-05,4.57031e-05,4.17694e-05,1.08031e-06,7.26455e-06
996,1.4676e-05,-6.16297e-06,4.64747e-05,4.85499e-05,1.27397e-05,7.56781e-06
997,1.41937e-05,2.0672e-06,4.39647e-05,5.40134e-05,1.41786e-05,1.08868e-05
998,1.5252e-05,4.87764e-07,4.07091e-05,5.13923e-05,1.13988e-05,1.21557e-05
999,1.79896e-05,-5.56373e-06,3.98266e-05,4.5493e-05,3.23249e-06,9.11332e-06
1000,1.94408e-05,-2.04495e-05,4.45655e-05,4.13899e-05,-8.34485e-06,1.00853e-05
1001,1.80829e-05,-2.72829e-05,5.25593e-05,4.24607e-05,-1.48804e-05,1.16111e-05
1002,1.44649e-05,-9.1842e-06,5.67627e-05,4.73651e-05,-1.25305e-05,2.57821e-06
1003,1.10652e-05,5.51384e-08,5.52067e-05,4.51904e-05,-5.69878e-06,-1.00068e-05
1004,1.07132e-05,-2.31633e-06,4.99248e-05,3.77637e-05,3.21784e-06,-1.79672e-05
1005,1.42637e-05,7.239e-07,4.39652e-05,3.78261e-05,1.57859e-05,-2.31157e-05
1006,1.8592e-05,6.21063e-07,4.12102e-05,3.87078e-05,3.14212e-05,-2.29423e-05
1007,1.99571e-05,-1.11493e-06,4.33144e-05,3.87191e-05,4.85133e-05,-1.89966e-05
1008,1.83272e-05,-1.04144e-05,4.73361e-05,3.4092e-05,6.51087e-05,-1.53926e-05
1009,1.53896e-05,-1.94368e-05,5.10718e-05,2.93641e-05,7.3827e-05,-1.4357e-05
1010,1.37184e-05,-1.33097e-05,5.20415e-05,3.48272e-05,6.67011e-05,-1.59319e-05
1011,1.48579e-05,2.71906e-06,4.95707e-05,4.50073e-05,4.90716e-05,-1.7003e-05
1012,1.58393e-05,8.85979e-06,4.92087e-05,4.98569e-05,2.98462e-05,-1.63919e-05
1013,1.55044e-05,3.53954e-06,5.29477e-05,4.59419e-05,9.18561e-06,-1.64213e-05
1014,1.40939e-05,-9.12029e-06,5.55815e-05,3.84744e-05,-6.60977e-06,-1.55644e-05
1015,1.29621e-05,-2.18132e-05,5.43325e-05,3.34315e-05,-3.67073e-06,-1.17527e-05
1016,1.20924e-05,-2.26101e-05,5.16827e-05,3.40348e-05,8.44424e-06,-7.95055e-06
1017,6.90969e-06,-1.16112e-05,5.11143e-05,3.70713e-05,1.32946e-05,-5.69302e-06
1018,2.02373e-06,-1.19263e-06,5.20306e-05,3.89581e-05,1.20589e-05,-5.00902e-06
1019,4.40676e-06,1.84208e-06,5.23282e-05,3.79421e-05,1.22785e-05,-3.54685e-06
1020,9.88799e-06,-2.88374e-06,5.25134e-05,3.62584e-05,2.06685e-05,-4.06336e-06
1021,9.68742e-06,-1.4901e-05,5.52124e-05,3.4587e-05,3.64035e-05,-8.51047e-06
1022,5.39174e-06,-1.60409e-05,6.10265e-05,3.84652e-05,5.14845e-05,-1.45335e-05
1023,2.39996e-06,-4.40804e-07,6.52053e-05,4.49772e-05,5.34941e-05,-1.56281e-05
1024,1.7215e-06,1.35398e-05,6.31558e-05,4.53992e-05,4.35087e-05,-1.13894e-05
1025,1.44789e-06,1.32844e-05,5.778e-05,4.34544e-05,3.48207e-05,-9.55406e-06
1026,6.48355e-07,2.68982e-06,5.49316e-05,4.07895e-05,3.21144e-05,-1.14813e-05
1027,1.02909e-07,-1.77755e-05,5.93745e-05,3.49544e-05,3.06772e-05,-1.6186e-05
1028,9.62398e-07,-2.71164e-05,6.82562e-05,3.08128e-05,2.75859e-05,-2.00937e-05
1029,2.88662e-06,-1.12997e-05,7.30117e-05,3.26353e-05,2.45466e-05,-1.4694e-05
1030,3.82591e-06,2.79955e-07,7.03213e-05,3.40111e-05,2.28564e-05,-8.53035e-06
1031,4.12754e-06,-1.5808e-06,6.19717e-05,3.2674e-05,2.48644e-05,-9.54348e-06
1032,4.96771e-06,-2.12974e-06,5.50166e-05,3.64623e-05,3.21029e-05,-1.13362e-05
1033,4.68708e-06,-2.95241e-06,5.72179e-05,3.91944e-05,4.18448e-05,-1.03998e-05
1034,2.014e-06,-3.24755e-06,6.39865e-05,3.79604e-05,4.74254e-05,-9.25411e-06
1035,-9.66051e-07,-1.03709e-05,6.42224e-05,3.71179e-05,4.37491e-05,-1.43011e-05
1036,-3.07181e-06,-2.20384e-05,5.76684e-05,3.73609e-05,3.11331e-05,-1.92861e-05
1037,-3.28432e-06,-2.02601e-05,5.04542e-05,3.57624e-05,1.44072e-05,-1.75817e-05
1038,-3.50183e-06,-7.50264e-06,4.6274e-05,3.10087e-05,-3.61771e-06,-9.0593e-06
1039,-4.08963e-06,-8.84706e-07,4.79495e-05,2.80593e-05,-2.25063e-05,2.42657e-06
1040,-3.52504e-06,-5.18735e-06,5.45979e-05,3.11994e-05,-3.8508e-05,1.18938e-05
1041,-2.97364e-06,-1.57486e-05,5.99004e-05,3.23081e-05,-4.36298e-05,1.59789e-05
1042,-2.48566e-06,-2.49733e-05,6.05439e-05,2.78237e-05,-3.64288e-05,1.23144e-05
1043,4.3455e-07,-2.27781e-05,5.7635e-05,2.76597e-05,-2.31353e-05,3.9234e-06
1044,4.09448e-06,-1.02908e-05,5.22381e-05,3.34702e-05,-1.23369e-05,-1.60581e-06
1045,6.27342e-06,-2.30921e-06,4.57291e-05,3.57277e-05,-8.69638e-06,3.82295e-07
1046,9.10417e-06,-3.16394e-06,4.19723e-05,3.26236e-05,-1.05126e-05,3.54345e-06
1047,1.19825e-05,-8.74994e-06,4.25779e-05,2.84242e-05,-1.99843e-05,-3.12795e-07
1048,1.29247e-05,-1.77612e-05,4.69316e-05,2.37155e-05,-3.24027e-05,-9.00109e-06
1049,1.3116e-05,-2.0328e-05,4.99869e-05,2.35277e-05,-3.63215e-05,-1.45172e-05
1050,1.16187e-05,-1.16684e-05,4.98352e-05,3.10628e-05,-3.27759e-05,-1.74054e-05
1051,8.68359e-06,-3.52871e-06,4.76728e-05,4.19388e-05,-2.44025e-05,-2.18643e-05
1052,7.25956e-06,-3.70087e-06,4.50196e-05,4.46914e-05,-8.71804e-06,-2.4407e-05
1053,7.96112e-06,-8.08527e-06,4.46265e-05,3.90613e-05,8.77193e-06,-2.29461e-05
1054,9.89025e-06,-1.92743e-05,4.73585e-05,3.22989e-05,1.86978e-05,-2.01284e-05
1055,1.20106e-05,-2.2696e-05,5.19479e-05,3.15652e-05,2.65814e-05,-1.60641e-05
1056,1.2455e-05,-6.6771e-06,5.62011e-05,3.73466e-05,4.48366e-05,-7.7364e-06
1057,1.1074e-05,-8.57876e-07,5.86763e-05,3.70442e-05,6.68033e-05,-1.41672e-06
1058,9.63542e-06,-5.69641e-06,5.66654e-05,3.32451e-05,7.47689e-05,-2.81271e-06
1059,8.60063e-06,-2.59738e-06,5.12627e-05,3.2412e-05,6.54797e-05,-8.47689e-06
1060,7.33561e-06,1.27821e-06,5.11445e-05,3.0627e-05,5.11918e-05,-1.43079e-05
1061,5.23282e-06,5.4099e-06,5.95354e-05,3.11273e-05,3.94415e-05,-1.22363e-05
1062,2.68161e-06,-1.6323e-06,6.7085e-05,2.82649e-05,2.7288e-05,-6.78354e-06
1063,-1.33e-07,-1.84583e-05,6.68319e-05,2.23483e-05,1.13861e-05,-5.97268e-06
1064,-1.39929e-06,-2.1741e-05,5.95662e-05,2.48944e-05,-4.6302e-06,-9.53353e-06
1065,5.51558e-07,-8.24714e-06,5.01942e-05,3.57408e-05,-1.45786e-05,-1.2282e-05
1066,3.13833e-06,6.27501e-06,4.54843e-05,4.3955e-05,-1.48868e-05,-1.34599e-05
1067,4.50595e-06,1.02757e-05,4.95938e-05,4.89381e-05,-7.00679e-06,-1.37899e-05
1068,6.49385e-06,9.3866e-07,5.57209e-05,4.80035e-05,3.58134e-06,-1.24393e-05
1069,1.04833e-05,-1.21418e-05,5.74234e-05,4.13081e-05,1.08138e-05,-1.0077e-05
1070,1.45036e-05,-1.34797e-05,5.84738e-05,4.09867e-05,2.11457e-05,-9.80295e-06
1071,1.6194e-05,-2.67204e-06,6.07113e-05,4.79125e-05,4.01268e-05,-1.24427e-05
1072,1.83205e-05,6.11163e-06,5.89346e-05,5.00166e-05,5.98566e-05,-1.46015e-05
1073,2.13039e-05,7.05334e-06,5.1239e-05,4.45058e-05,7.347e-05,-1.47264e-05
1074,2.20533e-05,-2.97713e-08,4.37143e-05,3.82317e-05,7.23878e-05,-1.06179e-05
1075,2.02109e-05,-1.36264e-05,4.56168e-05,3.45109e-05,5.76601e-05,-4.52518e-06
1076,2.00086e-05,-1.93366e-05,5.26918e-05,3.77503e-05,4.27294e-05,-7.31034e-07
1077,2.18534e-05,-9.32267e-06,5.66724e-05,4.54251e-05,3.35288e-05,-1.9194e-06
1078,2.23365e-05,2.33024e-06,5.56767e-05,4.92366e-05,2.20779e-05,1.95053e-06
1079,2.16909e-05,2.55351e-06,5.02111e-05,4.43975e-05,8.02698e-06,1.67923e-05
1080,2.17242e-05,-4.04607e-06,4.5284e-05,3.66441e-05,-6.20647e-07,2.54885e-05
1081,2.27514e-05,-1.65218e-05,4.47702e-05,2.97986e-05,-9.03088e-07,1.52969e-05
1082,2.51591e-05,-2.38353e-05,4.60318e-05,3.02843e-05,3.4765e-06,-4.16708e-06
1083,2.68615e-05,-7.95287e-06,4.52074e-05,3.88704e-05,6.27399e-06,-2.66098e-05
1084,2.62829e-05,8.1305e-06,4.19103e-05,3.99602e-05,3.28873e-06,-4.01362e-05
1085,2.57009e-05,1.11062e-05,3.75333e-05,3.12412e-05,-5.91535e-06,-3.57826e-05
1086,2.52511e-05,1.18165e-05,3.68318e-05,2.55739e-05,-1.81352e-05,-2.34929e-05
1087,2.19585e-05,1.308e-05,4.24956e-05,2.69875e-05,-2.62416e-05,-1.49131e-05
1088,1.70413e-05,1.52436e-05,5.07066e-05,3.21411e-05,-1.84833e-05,-1.40475e-05
1089,1.55795e-05,4.72766e-06,5.34158e-05,3.03698e-05,3.99216e-06,-1.4979e-05
1090,1.76062e-05,-1.39151e-05,5.01057e-05,2.12646e-05,2.44319e-05,-9.96654e-06
1091,2.07143e-05,-1.82494e-05,4.69972e-05,1.88277e-05,3.20636e-05,4.93746e-06
1092,2.19258e-05,-4.81217e-06,4.82146e-05,2.46526e-05,3.08116e-05,1.67224e-05
1093,2.05557e-05,7.35359e-06,5.32778e-05,3.13763e-05,2.16588e-05,1.61161e-05
1094,1.8699e-05,8.59186e-06,5.89048e-05,3.56877e-05,6.31596e-06,6.51114e-06
1095,1.93104e-05,-4.49625e-06,6.12093e-05,3.44979e-05,-8.83478e-06,-4.88571e-06
1096,2.27081e-05,-2.09534e-05,5.7789e-05,3.04074e-05,-2.4102e-05,-1.2438e-05
1097,2.50881e-05,-2.19414e-05,5.14361e-05,3.32735e-05,-3.48597e-05,-1.29111e-05
1098,2.31536e-05,-7.44056e-06,4.66983e-05,4.38337e-05,-3.34651e-05,-5.69815e-06
1099,2.02156e-05,4.01395e-06,4.40469e-05,5.05984e-05,-2.02094e-05,1.24162e-06
1100,1.94297e-05,1.45868e-06,4.3086e-05,4.95867e-05,-5.12006e-06,1.01298e-06
1101,1.94357e-05,-1.0497e-05,4.31049e-05,4.48997e-05,1.33448e-06,-2.94766e-06
1102,2.02139e-05,-2.30565e-05,4.55121e-05,3.85814e-05,2.3268e-06,-6.17295e-06
1103,2.15709e-05,-2.29637e-05,4.87562e-05,3.71844e-05,5.13956e-06,-1.21999e-05
1104,2.10269e-05,-7.95865e-06,5.11875e-05,4.54388e-05,1.21307e-05,-1.86715e-05
1105,1.78826e-05,6.80674e-06,5.26208e-05,5.51562e-05,1.89828e-05,-1.95657e-05
1106,1.57049e-05,7.70105e-06,5.21407e-05,5.74225e-05,2.09508e-05,-1.65293e-05
1107,1.55265e-05,-2.64314e-07,5.17212e-05,5.25991e-05,1.68074e-05,-1.15842e-05
1108,1.549e-05,-1.69196e-05,5.40003e-05,4.62343e-05,9.64851e-06,-5.27115e-06
1109,1.49697e-05,-2.63132e-05,5.65802e-05,4.48491e-05,4.32648e-06,-2.95846e-06
1110,1.41734e-05,-1.30911e-05,5.4674e-05,4.65352e-05,3.57387e-06,-4.80334e-06
1111,1.39415e-05,-8.29707e-07,4.95552e-05,4.78794e-05,7.17015e-06,-5.22888e-06
1112,1.32622e-05,4.6759e-07,4.54669e-05,4.72572e-05,1.27492e-05,-4.88398e-06
1113,1.1719e-05,-2.03942e-06,4.5758e-05,4.45484e-05,1.85451e-05,-9.25091e-06
1114,1.14077e-05,-2.95525e-06,4.98224e-05,4.16138e-05,2.57867e-05,-1.20275e-05
1115,1.25011e-05,-7.80392e-07,5.3393e-05,4.01353e-05,3.6378e-05,-1.11799e-05
1116,1.28785e-05,-8.27659e-06,5.26695e-05,3.81763e-05,4.52101e-05,-1.05065e-05
1117,1.25817e-05,-2.07843e-05,4.88423e-05,3.43134e-05,4.88431e-05,-9.92196e-06
1118,1.21706e-05,-1.93552e-05,4.40109e-05,3.46424e-05,5.43799e-05,-9.58881e-06
1119,1.35173e-05,-4.87823e-06,4.07334e-05,3.88056e-05,6.38093e-05,-9.30454e-06
1120,1.42509e-05,3.34153e-06,4.31543e-05,4.16944e-05,6.71827e-05,-1.20519e-05
1121,1.06109e-05,4.502e-07,4.89621e-05,4.31998e-05,6.15184e-05,-1.57889e-05
1122,7.67082e-06,-1.05221e-05,5.06625e-05,4.15273e-05,4.36023e-05,-1.70562e-05
1123,7.61462e-06,-2.19424e-05,4.93483e-05,3.76503e-05,1.66091e-05,-1.42708e-05
1124,8.26431e-06,-2.14444e-05,4.94188e-05,3.76731e-05,-4.84849e-06,-1.28403e-05
1125,8.36562e-06,-7.32398e-06,5.10875e-05,4.00131e-05,-2.10964e-05,-1.49717e-05
1126,1.05912e-05,4.48688e-06,5.06256e-05,3.75189e-05,-3.59224e-05,-1.72031e-05
1127,1.47219e-05,4.89591e-06,4.84366e-05,3.4632e-05,-4.02359e-05,-1.65218e-05
1128,1.76019e-05,-3.07017e-06,4.71933e-05,3.47915e-05,-2.78062e-05,-1.43524e-05
1129,1.79606e-05,-1.32756e-05,4.82849e-05,3.08399e-05,-7.61704e-06,-1.48279e-05
1130,1.59744e-05,-1.42286e-05,5.10756e-05,2.52077e-05,1.23183e-05,-1.93699e-05
1131,1.33777e-05,-4.77106e-06,5.26652e-05,2.71755e-05,3.02214e-05,-2.44945e-05
1132,1.20802e-05,4.21109e-06,5.45846e-05,3.27172e-05,3.99985e-05,-2.38588e-05
1133,1.33732e-05,4.45039e-06,5.63831e-05,3.77318e-05,3.89326e-05,-1.86543e-05
1134,1.39889e-05,-1.82795e-06,5.58233e-05,3.92249e-05,2.95403e-05,-1.51425e-05
1135,1.07717e-05,-1.64258e-05,5.43733e-05,3.11314e-05,1.74417e-05,-1.44331e-05
1136,5.00067e-06,-2.14206e-05,5.61983e-05,2.50615e-05,9.72662e-06,-1.44298e-05
1137,6.81142e-07,-3.02077e-06,5.94084e-05,2.95838e-05,8.89027e-06,-1.44458e-05
1138,7.47178e-07,6.80924e-06,5.88105e-05,3.15784e-05,5.89168e-06,-1.41412e-05
1139,5.35575e-06,3.07381e-06,5.34265e-05,2.68874e-05,-6.14852e-06,-1.0623e-05
1140,1.00007e-05,4.12512e-07,4.74251e-05,2.21241e-05,-1.4963e-05,-9.04248e-06
1141,8.59133e-06,-1.91356e-06,4.7126e-05,2.16149e-05,-4.7884e-06,-8.02529e-06
1142,3.46149e-06,-2.28253e-06,5.14974e-05,2.50371e-05,2.03987e-05,-7.04246e-06
1143,3.32585e-06,-1.09876e-05,5.28651e-05,2.69838e-05,4.28358e-05,-1.03972e-05
1144,8.49535e-06,-2.33715e-05,4.94059e-05,2.5909e-05,4.89314e-05,-1.22076e-05
1145,1.23565e-05,-2.31449e-05,4.29703e-05,2.80763e-05,4.10817e-05,-1.20928e-05
1146,1.35288e-05,-9.84171e-06,3.84885e-05,3.51679e-05,2.74466e-05,-7.95729e-06
1147,1.37546e-05,-5.90434e-07,4.38037e-05,3.8761e-05,8.4026e-06,-6.96622e-06
1148,1.33312e-05,1.07574e-06,5.50128e-05,4.19141e-05,-9.93715e-06,-8.7865e-06
1149,1.42653e-05,-7.25394e-06,6.13695e-05,4.31798e-05,-1.47627e-05,-8.74759e-06
1150,1.4626e-05,-2.22823e-05,5.87976e-05,3.97435e-05,-5.33457e-06,-6.86646e-06
1151,1.19897e-05,-2.77554e-05,5.3019e-05,3.83193e-05,8.079e-06,-8.2946e-06
1152,1.04784e-05,-1.68051e-05,5.18795e-05,4.20125e-05,1.74649e-05,-1.52279e-05
1153,1.16082e-05,-3.54784e-06,5.13479e-05,4.39765e-05,1.85228e-05,-2.00529e-05
1154,1.17055e-05,-1.22943e-06,4.64927e-05,4.20271e-05,1.53017e-05,-1.80942e-05
1155,7.57329e-06,-1.036e-05,4.41479e-05,3.80143e-05,1.05687e-05,-1.27025e-05
1156,3.01862e-06,-2.51904e-05,4.89837e-05,3.03894e-05,6.27145e-06,-1.02362e-05
1157,1.97506e-06,-2.95638e-05,5.78816e-05,2.76335e-05,9.93767e-06,-1.12887e-05
1158,2.37862e-06,-1.82598e-05,6.7159e-05,3.35e-05,2.20649e-05,-1.27678e-05
1159,-2.2742e-07,-6.99335e-06,7.16185e-05,3.86484e-05,3.53836e-05,-1.0395e-05
1160,-4.37702e-06,-5.01281e-06,6.81642e-05,3.86206e-05,4.52009e-05,-5.96141e-06
1161,-5.43974e-06,-8.70293e-06,6.20705e-05,3.37069e-05,4.84746e-05,-2.27607e-06
1162,-3.38325e-06,-2.27525e-05,5.90539e-05,2.36023e-05,4.47497e-05,-1.05356e-06
1163,-6.64054e-07,-2.91167e-05,5.88827e-05,2.12367e-05,3.86332e-05,-3.08265e-08
1164,-1.22629e-06,-1.45457e-05,5.89324e-05,3.15023e-05,3.49104e-05,2.04276e-06
1165,-4.96421e-06,-3.75254e-06,5.77241e-05,3.81778e-05,3.33419e-05,8.70081e-06
1166,-6.83519e-06,-2.37296e-06,5.56941e-05,3.84017e-05,3.0358e-05,1.22032e-05
1167,-3.29032e-06,3.2205e-08,5.54169e-05,3.7218e-05,2.36377e-05,7.46964e-06
1168,2.09225e-06,-4.44998e-07,5.88248e-05,3.48154e-05,1.4076e-05,4.12004e-06
1169,4.10876e-06,-1.15192e-06,6.28976e-05,3.41947e-05,9.0761e-06,5.1293e-06
1170,3.68126e-06,-8.57538e-06,6.33398e-05,3.33452e-05,1.33286e-05,4.70603e-06
1171,6.36623e-06,-2.05416e-05,5.87079e-05,3.37055e-05,1.9512e-05,6.30381e-07
1172,1.10501e-05,-2.04477e-05,4.98141e-05,3.59374e-05,2.21185e-05,-1.91032e-06
1173,1.18059e-05,-7.77191e-06,4.34415e-05,3.89205e-05,2.59761e-05,1.12253e-06
1174,8.68042e-06,1.30708e-06,4.61234e-05,3.81351e-05,2.96979e-05,4.23441e-06
1175,6.52108e-06,2.35209e-06,5.05701e-05,3.7014e-05,3.00903e-05,3.2104e-06
1176,8.81458e-06,-6.05454e-06,4.81113e-05,3.72161e-05,2.85062e-05,2.5879e-06
1177,1.20251e-05,-1.8284e-05,4.35796e-05,3.56059e-05,2.21145e-05,2.17643e-06
1178,1.37979e-05,-1.96958e-05,4.34476e-05,3.89679e-05,1.30694e-05,-1.03727e-06
1179,1.51339e-05,-9.39902e-06,4.64364e-05,4.93266e-05,8.17897e-06,-5.22039e-06
1180,1.50617e-05,-8.49251e-07,4.58646e-05,5.85057e-05,8.81747e-06,-2.71211e-06
1181,1.38223e-05,-2.76241e-06,4.31123e-05,5.92139e-05,1.14319e-05,2.54468e-06
1182,1.36472e-05,-1.11593e-05,4.5681e-05,5.16539e-05,1.0589e-05,5.86818e-07
1183,1.44733e-05,-1.98664e-05,5.22257e-05,4.18648e-05,3.85445e-06,-6.04944e-06
1184,1.41794e-05,-1.74684e-05,5.54035e-05,3.99084e-05,-1.89424e-06,-1.06604e-05
1185,1.21014e-05,-4.87478e-06,5.26866e-05,4.58008e-05,-5.24335e-07,-1.05942e-05
1186,9.80899e-06,2.93245e-06,4.81947e-05,4.92961e-05,1.60306e-07,-6.27004e-06
1187,1.06038e-05,3.63601e-07,4.65823e-05,4.7656e-05,-6.38271e-06,-4.09668e-06
1188,1.31609e-05,-4.59173e-06,4.90903e-05,4.52515e-05,-1.66249e-05,-7.33024e-06
1189,1.23709e-05,-1.46966e-05,5.47071e-05,4.17068e-05,-2.26919e-05,-1.29043e-05
1190,1.0294e-05,-1.79327e-05,6.08943e-05,3.99939e-05,-1.95832e-05,-1.29396e-05
1191,1.09174e-05,-2.66254e-06,6.39635e-05,4.39347e-05,-1.24746e-05,-3.36432e-06
1192,1.27226e-05,4.27693e-06,6.29875e-05,4.44147e-05,-1.18338e-05,5.69392e-06
1193,1.34721e-05,-1.76203e-06,5.8211e-05,4.1707e-05,-1.22839e-05,6.37541e-06
1194,1.39581e-05,-4.4483e-06,5.23662e-05,4.4834e-05,3.4089e-06,6.80278e-06
1195,1.38558e-05,-4.98604e-06,4.99845e-05,4.7338e-05,2.86331e-05,1.06642e-05
1196,1.33418e-05,-5.21676e-06,5.10385e-05,4.88538e-05,3.36418e-05,7.71719e-06
1197,1.37637e-05,-1.39617e-05,5.27528e-05,4.54125e-05,1.14603e-05,1.14561e-06
1198,1.50802e-05,-2.43338e-05,5.50317e-05,3.58621e-05,-1.18388e-05,-2.85641e-06
1199,1.79423e-05,-2.03188e-05,5.56273e-05,3.11694e-05,-1.46603e-05,-9.40658e-06
1200,2.11871e-05,-8.7937e-06,5.18837e-05,3.79411e-05,-3.46236e-06,-1.97233e-05
1201,2.15299e-05,-1.84373e-06,4.64473e-05,4.7916e-05,4.20828e-06,-2.97295e-05
1202,1.87712e-05,-7.53392e-07,4.5055e-05,5.34032e-05,3.77764e-06,-3.53466e-05
1203,1.52181e-05,-9.92652e-06,4.91581e-05,5.23766e-05,-3.16395e-06,-3.48064e-05
1204,1.25058e-05,-2.48528e-05,5.3409e-05,4.7074e-05,-1.25282e-05,-3.00822e-05
1205,1.19721e-05,-2.82391e-05,5.59875e-05,4.74138e-05,-1.35261e-05,-2.48953e-05
1206,1.11937e-05,-1.67451e-05,5.54739e-05,5.53534e-05,-4.87895e-06,-2.17623e-05
1207,1.04167e-05,-6.66452e-06,5.01168e-05,6.08307e-05,3.71475e-06,-1.91004e-05
1208,1.11048e-05,-4.83415e-06,4.29027e-05,5.66269e-05,1.11856e-05,-1.51897e-05
1209,1.1032e-05,-8.65319e-06,3.94763e-05,4.64729e-05,1.76621e-05,-1.11336e-05
1210,9.31124e-06,-1.77433e-05,4.30342e-05,3.66788e-05,2.11739e-05,-7.66236e-06
1211,7.51799e-06,-2.1129e-05,4.76534e-05,3.73493e-05,2.50038e-05,-5.00988e-06
1212,8.02862e-06,-1.14619e-05,4.88883e-05,4.78622e-05,3.04185e-05,-5.01022e-06
1213,9.02154e-06,1.96701e-07,4.86273e-05,5.24749e-05,2.95578e-05,-9.11738e-06
1214,8.00909e-06,2.63366e-06,4.80387e-05,4.5065e-05,1.88405e-05,-1.6889e-05
1215,6.72981e-06,-5.44923e-06,4.66874e-05,3.50747e-05,4.7414e-06,-2.45274e-05
1216,8.2324e-06,-2.38472e-05,4.67179e-05,2.90116e-05,-4.88133e-06,-2.87529e-05
1217,1.32899e-05,-3.09626e-05,4.88556e-05,3.37352e-05,-5.01055e-06,-3.39558e-05
1218,1.85728e-05,-1.46778e-05,4.97476e-05,4.73342e-05,5.47271e-06,-3.76778e-05
1219,2.16893e-05,-4.78684e-06,4.79477e-05,5.31041e-05,2.08825e-05,-3.55992e-05
1220,2.36447e-05,-4.47846e-06,4.46325e-05,4.90411e-05,3.32548e-05,-2.86636e-05
1221,2.5294e-05,1.96271e-06,4.24986e-05,4.66108e-05,3.85757e-05,-1.99265e-05
1222,2.55183e-05,5.3785e-06,4.41738e-05,4.48081e-05,3.84877e-05,-1.47695e-05
1223,2.41575e-05,4.5099e-06,4.72618e-05,4.23538e-05,4.19795e-05,-1.36174e-05
1224,2.29086e-05,-4.13357e-06,4.70746e-05,3.76904e-05,5.4648e-05,-1.07574e-05
1225,2.30408e-05,-1.71613e-05,4.55373e-05,3.31592e-05,6.58737e-05,2.36095e-07
1226,2.4953e-05,-1.64597e-05,4.43875e-05,3.44642e-05,5.67663e-05,1.01075e-05
1227,2.59986e-05,-3.37888e-06,4.40687e-05,3.80272e-05,2.6524e-05,7.35735e-06
1228,2.27995e-05,3.40279e-06,4.73846e-05,3.55674e-05,-4.56835e-06,-6.47094e-06
1229,1.76315e-05,1.68846e-06,5.29547e-05,2.98089e-05,-1.42907e-05,-2.04032e-05
1230,1.41231e-05,-6.50478e-06,5.77258e-05,2.34634e-05,-2.12787e-06,-2.58179e-05
1231,1.43761e-05,-1.44865e-05,6.06764e-05,1.98257e-05,3.96345e-06,-2.51333e-05
1232,1.57311e-05,-1.0034e-05,5.91807e-05,2.3387e-05,-1.32127e-05,-2.31841e-05
1233,1.4784e-05,4.3631e-06,5.61459e-05,3.05514e-05,-3.45369e-05,-1.79364e-05
1234,1.36867e-05,1.16972e-05,5.36565e-05,3.34013e-05,-3.60759e-05,-7.66393e-06
1235,1.45573e-05,8.76978e-06,5.09475e-05,3.01763e-05,-1.81395e-05,2.85088e-07
1236,1.67951e-05,2.48506e-06,4.97193e-05,2.40969e-05,3.59454e-07,4.661e-07
1237,1.79037e-05,-4.77192e-06,5.05199e-05,1.92518e-05,8.64744e-06,-3.88553e-06
1238,1.94274e-05,-3.49259e-06,5.26966e-05,2.26837e-05,1.17838e-05,-6.90509e-06
1239,1.93717e-05,8.55288e-06,5.30086e-05,2.92914e-05,1.51242e-05,-6.97907e-06
1240,1.66079e-05,1.80308e-05,5.31497e-05,3.20223e-05,1.42558e-05,-6.61011e-06
1241,1.44276e-05,1.54927e-05,5.31496e-05,3.14693e-05,8.08552e-06,-1.01153e-05
1242,1.37044e-05,3.4891e-06,5.03995e-05,2.92046e-05,3.40365e-07,-1.47687e-05
1243,1.18259e-05,-1.51374e-05,4.82109e-05,2.27498e-05,-4.07886e-06,-1.18305e-05
1244,8.90684e-06,-2.03253e-05,5.00159e-05,2.22889e-05,-2.6749e-06,-2.66285e-06
1245,7.6805e-06,-7.04051e-07,5.43453e-05,3.27327e-05,6.52909e-07,1.38972e-06
1246,7.46803e-06,1.30463e-05,5.70404e-05,3.84675e-05,4.59026e-06,-4.50031e-06
1247,7.66738e-06,8.18169e-06,5.45247e-05,3.71409e-05,1.47872e-05,-1.09609e-05
1248,8.2806e-06,3.05896e-06,4.86456e-05,3.81966e-05,3.0769e-05,-1.13758e-05
1249,8.124e-06,-9.43784e-07,4.69157e-05,3.9694e-05,4.16672e-05,-2.89274e-06
1250,8.16544e-06,-4.09361e-06,5.21218e-05,4.11703e-05,4.30525e-05,1.01751e-05
1251,1.00736e-05,-1.23277e-05,5.7788e-05,3.67647e-05,4.11769e-05,1.34348e-05
1252,1.03373e-05,-2.22607e-05,5.66392e-05,2.7412e-05,4.07012e-05,5.68342e-06
1253,8.62043e-06,-1.7943e-05,5.01456e-05,2.4412e-05,3.81217e-05,-3.81604e-06
1254,8.18316e-06,-1.87196e-06,4.45109e-05,2.96175e-05,3.41333e-05,-5.90184e-06
1255,9.09826e-06,9.30645e-06,4.46488e-05,3.60462e-05,3.3375e-05,-6.09413e-06
1256,9.38341e-06,9.34139e-06,5.02782e-05,4.00305e-05,3.98313e-05,-7.07614e-06
1257,9.61061e-06,-1.91489e-06,5.8173e-05,3.63213e-05,5.66548e-05,-7.37796e-06
1258,1.06969e-05,-1.84178e-05,6.10608e-05,2.73289e-05,7.3211e-05,-6.35004e-06
1259,1.36557e-05,-2.15125e-05,5.78426e-05,2.48134e-05,7.74603e-05,-5.46195e-06
1260,1.64856e-05,-6.2393e-06,5.40783e-05,3.2246e-05,6.92741e-05,-6.78293e-06
1261,1.38046e-05,6.67532e-06,5.00285e-05,4.11984e-05,4.97424e-05,-6.96587e-06
1262,8.3402e-06,3.30394e-06,4.72454e-05,4.21214e-05,2.11064e-05,-3.59632e-06
1263,4.96891e-06,-8.32756e-06,4.63945e-05,3.52503e-05,-2.46496e-05,-2.68216e-06
1264,2.00398e-06,-1.96659e-05,4.90035e-05,2.60672e-05,-7.96094e-05,-1.18654e-05
1265,-2.62873e-06,-2.1449e-05,5.46742e-05,2.41208e-05,-0.000106853,-2.25132e-05
1266,-6.25338e-06,-1.02688e-05,5.81432e-05,2.84556e-05,-8.73469e-05,-2.36197e-05
1267,-4.30779e-06,5.70506e-07,5.54424e-05,3.25141e-05,-4.40756e-05,-1.89019e-05
1268,9.30851e-07,-5.76887e-07,5.10594e-05,3.26888e-05,-9.50098e-06,-1.8064e-05
1269,4.61876e-06,-1.01477e-05,5.02736e-05,2.83036e-05,3.47791e-06,-2.3082e-05
1270,3.38417e-06,-2.43331e-05,5.35883e-05,2.18316e-05,5.36882e-06,-2.73794e-05
1271,-5.39324e-08,-2.74078e-05,5.74956e-05,2.37016e-05,1.25198e-05,-2.26736e-05
1272,-9.61855e-07,-9.17509e-06,5.6964e-05,3.43306e-05,2.67408e-05,-1.45672e-05
1273,1.09015e-06,1.31694e-06,5.19666e-05,3.95856e-05,3.84611e-05,-7.60418e-06
1274,3.83036e-06,-1.16266e-06,4.4129e-05,3.99878e-05,4.22549e-05,-4.97968e-06
1275,6.27104e-06,-2.25869e-06,3.7458e-05,4.09922e-05,4.21287e-05,-4.65527e-06
1276,8.93991e-06,-6.10617e-06,3.85156e-05,4.01181e-05,3.9321e-05,-4.23756e-06
1277,1.04435e-05,-6.92538e-06,4.56689e-05,3.87856e-05,3.59748e-05,-6.06441e-06
1278,1.18033e-05,-1.24141e-05,5.10752e-05,3.12507e-05,4.09224e-05,-1.35371e-05
1279,1.38683e-05,-2.38704e-05,5.26556e-05,2.09568e-05,5.31328e-05,-2.14939e-05
1280,1.38169e-05,-2.48142e-05,4.98403e-05,2.09604e-05,5.87175e-05,-2.38758e-05
1281,1.32854e-05,-1.27416e-05,4.45927e-05,3.14519e-05,5.4894e-05,-1.96113e-05
1282,1.63826e-05,-3.17244e-06,4.13199e-05,4.10832e-05,4.7395e-05,-1.06361e-05
1283,2.03744e-05,-2.90665e-06,4.19035e-05,4.15506e-05,4.0684e-05,-6.02544e-06
1284,1.99187e-05,-1.09306e-05,4.12933e-05,3.41719e-05,3.87215e-05,-1.03474e-05
1285,1.42331e-05,-2.03031e-05,3.78452e-05,2.764e-05,4.03932e-05,-1.63143e-05
1286,8.83893e-06,-1.91813e-05,3.83035e-05,2.98613e-05,3.77368e-05,-1.48376e-05
1287,8.70248e-06,-8.47485e-06,4.14138e-05,3.70758e-05,3.26035e-05,-6.34827e-06
1288,1.31471e-05,9.89757e-07,4.35034e-05,4.16805e-05,3.05556e-05,1.97456e-06
1289,1.56583e-05,3.57581e-06,4.43005e-05,4.09298e-05,2.94228e-05,1.61295e-06
1290,1.40786e-05,-1.42683e-06,4.33216e-05,3.79799e-05,2.31785e-05,-3.20867e-06
1291,1.12791e-05,-1.33368e-05,4.41001e-05,3.68973e-05,1.23786e-05,-4.75595e-06
1292,1.12385e-05,-1.81434e-05,4.72242e-05,4.13319e-05,6.49276e-06,-4.92655e-06
1293,1.2451e-05,-9.23919e-06,5.18371e-05,4.87732e-05,1.03794e-05,-7.94144e-06
1294,1.12454e-05,4.81086e-07,5.54623e-05,5.10191e-05,1.77286e-05,-1.08662e-05
1295,8.17739e-06,2.1903e-06,5.42071e-05,4.63712e-05,1.98321e-05,-1.04011e-05
1296,5.82837e-06,-1.6828e-06,4.9241e-05,4.13643e-05,1.39265e-05,-4.56354e-06
1297,2.6856e-06,-1.46391e-05,4.69326e-05,3.95607e-05,5.40374e-06,-5.69766e-07
1298,-2.15901e-06,-2.1045e-05,5.06484e-05,4.27701e-05,3.86923e-06,-3.56691e-06
1299,-4.02719e-06,-6.83178e-06,5.58349e-05,4.68917e-05,1.04986e-05,-4.97969e-06
1300,5.30641e-07,5.25306e-06,5.70787e-05,4.01909e-05,1.6783e-05,-1.43351e-06
1301,8.31756e-06,6.719e-06,5.36001e-05,3.33637e-05,1.73803e-05,2.3882e-06
1302,1.29142e-05,4.67771e-06,5.08339e-05,3.60736e-05,1.40806e-05,3.24185e-06
1303,1.32378e-05,2.02971e-06,5.33778e-05,3.98274e-05,9.46689e-06,1.62215e-06
1304,1.30973e-05,4.33989e-06,5.91306e-05,4.31048e-05,7.95111e-06,-1.91258e-06
1305,1.48558e-05,1.73773e-06,6.10392e-05,4.02667e-05,1.07318e-05,-6.58082e-06
1306,1.6212e-05,-6.5027e-06,5.69583e-05,3.15321e-05,1.46611e-05,-8.77847e-06
1307,1.72537e-05,-4.4855e-06,5.08828e-05,2.67671e-05,1.6689e-05,-8.8672e-06
1308,1.99646e-05,8.43483e-06,4.60994e-05,2.91835e-05,1.66216e-05,-7.15888e-06
1309,2.52002e-05,1.52005e-05,4.38202e-05,3.26854e-05,1.39499e-05,-6.73623e-06
1310,2.98173e-05,1.23421e-05,4.50104e-05,3.39531e-05,1.20883e-05,-7.42208e-06
1311,3.00738e-05,-1.7379e-07,4.80637e-05,3.08308e-05,1.63727e-05,-5.30281e-06
1312,2.79196e-05,-1.71001e-05,4.92309e-05,2.60904e-05,2.16697e-05,-6.44054e-07
1313,2.79889e-05,-2.07818e-05,4.76434e-05,2.60897e-05,1.78869e-05,6.34e-07
1314,2.99484e-05,-7.28685e-06,4.67012e-05,3.17237e-05,2.66835e-06,-3.84146e-06
1315,3.1176e-05,6.61667e-06,4.90722e-05,3.63057e-05,-1.55103e-05,-8.70096e-06
1316,3.00295e-05,6.5663e-06,5.13904e-05,3.67122e-05,-2.14604e-05,-1.04593e-05
1317,2.79114e-05,-5.57413e-06,5.01932e-05,3.58602e-05,-1.11463e-05,-1.07275e-05
1318,2.54904e-05,-2.23217e-05,4.84659e-05,3.3284e-05,8.94433e-08,-1.25782e-05
1319,2.39101e-05,-2.74413e-05,4.94423e-05,3.38506e-05,7.01208e-07,-1.51779e-05
1320,2.44929e-05,-1.36024e-05,5.38737e-05,3.98054e-05,-2.56488e-06,-1.59605e-05
1321,2.48171e-05,2.20035e-06,5.65941e-05,4.47096e-05,2.03757e-07,-1.31921e-05
1322,2.25431e-05,3.84325e-06,5.24844e-05,4.09775e-05,6.29516e-06,-1.14533e-05
1323,1.74157e-05,-6.72042e-06,4.55266e-05,3.38873e-05,3.55359e-06,-1.53144e-05
1324,1.06117e-05,-2.57725e-05,4.39946e-05,3.1088e-05,-1.15453e-05,-2.03577e-05
1325,5.75052e-06,-3.26644e-05,4.85919e-05,3.57034e-05,-2.96699e-05,-2.02524e-05
1326,5.67497e-06,-1.49374e-05,5.40607e-05,4.27378e-05,-4.19028e-05,-1.71891e-05
1327,9.23181e-06,-2.55178e-07,5.79562e-05,3.84736e-05,-4.46789e-05,-1.28838e-05
1328,1.32112e-05,4.00368e-06,5.90502e-05,3.32853e-05,-3.73321e-05,-9.02824e-06
1329,1.50362e-05,5.53322e-06,5.7077e-05,4.03685e-05,-2.40349e-05,-6.65008e-06
1330,1.52185e-05,1.70415e-06,5.38414e-05,4.60552e-05,-1.08845e-05,-6.13006e-06
1331,1.67225e-05,-2.94796e-06,5.16077e-05,4.41896e-05,3.81995e-06,-7.42479e-06
1332,1.99615e-05,-1.50892e-05,5.10557e-05,3.58433e-05,2.59819e-05,-1.06495e-05
1333,2.20678e-05,-2.82495e-05,5.21324e-05,2.74334e-05,4.74856e-05,-1.0165e-05
1334,2.26234e-05,-2.48768e-05,5.12891e-05,3.06683e-05,5.13634e-05,-7.01316e-06
1335,2.00857e-05,-1.06507e-05,4.79005e-05,4.12104e-05,3.939e-05,-5.93953e-06
1336,1.50602e-05,-3.27338e-06,4.7107e-05,5.02553e-05,2.77504e-05,-4.18297e-06
1337,1.21404e-05,-4.70228e-06,5.03898e-05,5.06803e-05,2.96481e-05,-1.51681e-06
1338,1.13906e-05,-1.31579e-05,5.25208e-05,4.06122e-05,4.46835e-05,-1.37871e-06
1339,9.85593e-06,-2.19685e-05,4.87976e-05,2.70083e-05,5.84936e-05,-3.07503e-06
1340,7.57874e-06,-1.98712e-05,4.39991e-05,2.18047e-05,6.43756e-05,-1.319e-06
1341,5.6636e-06,-8.42073e-06,4.5996e-05,2.94676e-05,6.30894e-05,8.88139e-07
1342,5.44508e-06,7.8737e-07,5.06293e-05,3.8214e-05,5.40982e-05,5.1611e-07
1343,5.68036e-06,2.99798e-06,5.06925e-05,3.70217e-05,4.17727e-05,7.98713e-07
1344,5.22941e-06,-4.20949e-06,4.90107e-05,2.81206e-05,3.09116e-05,4.09593e-06
1345,4.47037e-06,-1.89577e-05,5.30721e-05,2.16622e-05,1.54395e-05,3.11888e-06
1346,4.93097e-06,-2.26825e-05,6.1883e-05,2.78809e-05,-5.98732e-06,-4.49345e-06
1347,6.13618e-06,-1.11733e-05,6.63997e-05,4.29206e-05,-1.5158e-05,-1.16059e-05
1348,4.96869e-06,-7.12465e-07,6.18871e-05,4.81576e-05,-4.94558e-06,-1.38206e-05
1349,3.38391e-06,-1.05964e-07,5.01828e-05,4.21808e-05,6.19222e-06,-1.92331e-05
1350,3.51216e-06,-6.61794e-06,3.89724e-05,3.5421e-05,1.49403e-06,-2.9923e-05
1351,2.54223e-06,-2.13822e-05,3.76761e-05,3.30796e-05,-1.17969e-05,-3.47325e-05
1352,7.34676e-07,-2.83172e-05,4.47408e-05,3.9894e-05,-2.00985e-05,-3.62866e-05
1353,2.22621e-06,-1.31898e-05,5.1618e-05,5.52299e-05,-2.3885e-05,-3.88366e-05
1354,9.06866e-06,-1.40024e-06,5.327e-05,6.17724e-05,-2.99808e-05,-3.92942e-05
1355,1.83341e-05,-3.02352e-06,4.98257e-05,5.38135e-05,-3.46701e-05,-3.55447e-05
1356,2.40032e-05,-4.9279e-06,4.50068e-05,4.83012e-05,-3.14316e-05,-2.57583e-05
1357,2.31264e-05,-5.07048e-06,4.39508e-05,4.98729e-05,-2.50338e-05,-5.84212e-06
1358,1.85346e-05,-1.65957e-06,4.85228e-05,5.18524e-05,-1.88901e-05,2.15901e-05
1359,1.65338e-05,-6.39832e-06,5.46829e-05,4.74952e-05,-9.35201e-06,3.72288e-05
1360,1.76541e-05,-1.79823e-05,5.65632e-05,3.86435e-05,2.8577e-06,3.0065e-05
1361,1.73299e-05,-1.75355e-05,5.22338e-05,3.4024e-05,1.55976e-05,1.05879e-05
1362,1.51974e-05,-2.53011e-06,4.68749e-05,3.99759e-05,2.95882e-05,-4.4536e-06
1363,1.34731e-05,8.73491e-06,4.79574e-05,4.86639e-05,4.47698e-05,-8.91086e-06
1364,1.22281e-05,1.0048e-05,5.46524e-05,4.9419e-05,6.2384e-05,-6.65456e-06
1365,9.71626e-06,3.93719e-06,6.15087e-05,4.00472e-05,7.59318e-05,-3.73529e-06
1366,7.89122e-06,-4.27471e-06,6.33496e-05,2.87756e-05,7.21017e-05,-4.93078e-06
1367,8.1725e-06,-3.04434e-06,5.83466e-05,3.03085e-05,6.0346e-05,-9.02464e-06
1368,6.55931e-06,6.66767e-06,5.56894e-05,4.0908e-05,6.38993e-05,-1.0306e-05
1369,5.77405e-06,8.82722e-06,5.73161e-05,4.4316e-05,7.6795e-05,-7.37172e-06
1370,7.54967e-06,7.23303e-08,5.6002e-05,3.83032e-05,8.19713e-05,-2.39888e-06
1371,7.92666e-06,-1.27551e-05,5.28048e-05,3.30535e-05,7.32006e-05,2.09707e-06
1372,5.55493e-06,-2.66573e-05,5.57618e-05,3.17049e-05,5.50842e-05,2.23869e-06
1373,2.64912e-06,-2.95655e-05,6.21166e-05,3.7145e-05,3.91585e-05,-2.71519e-06
1374,1.81677e-06,-1.7562e-05,6.49934e-05,4.86469e-05,2.74582e-05,-6.72222e-06
1375,2.92687e-06,-4.73245e-06,6.16705e-05,5.52536e-05,1.38092e-05,-5.60172e-06
1376,6.39428e-06,-1.36342e-06,5.38149e-05,5.40717e-05,-4.94774e-06,-4.61821e-06
1377,8.25072e-06,-5.5088e-06,4.89331e-05,4.6441e-05,-2.49153e-05,-8.39223e-06
1378,5.24176e-06,-1.83706e-05,5.21164e-05,3.57911e-05,-3.63592e-05,-1.34436e-05
1379,1.76246e-06,-2.31101e-05,5.99066e-05,3.26715e-05,-3.21469e-05,-1.2768e-05
1380,1.9024e-06,-1.11068e-05,6.43898e-05,3.85358e-05,-1.78273e-05,-7.84889e-06
1381,4.69149e-06,-3.12898e-06,6.20738e-05,4.48169e-05,-7.18302e-06,-6.46885e-06
1382,7.2082e-06,-3.2132e-06,5.5156e-05,4.62927e-05,-7.74907e-06,-1.01197e-05
1383,7.32141e-06,-2.862e-06,4.94804e-05,4.55063e-05,-1.74443e-05,-1.27348e-05
1384,4.23121e-06,-3.15167e-06,4.97488e-05,4.43097e-05,-2.99744e-05,-1.38485e-05
1385,9.38297e-07,-2.91763e-06,5.45499e-05,4.20317e-05,-3.3608e-05,-1.39282e-05
1386,1.18595e-07,-9.98551e-06,5.79468e-05,3.6513e-05,-1.95226e-05,-1.25733e-05
1387,8.97885e-07,-2.09842e-05,6.02872e-05,3.24241e-05,3.36071e-06,-1.26878e-05
1388,2.18881e-06,-1.67317e-05,6.10824e-05,3.6486e-05,2.04504e-05,-1.39729e-05
1389,2.98713e-06,-7.28671e-07,5.58741e-05,4.24809e-05,3.81306e-05,-1.25244e-05
1390,3.52433e-06,7.49858e-06,4.89777e-05,4.43115e-05,6.77603e-05,-9.71589e-06
1391,4.99677e-06,4.2953e-06,4.63527e-05,4.25788e-05,9.58394e-05,-8.7745e-06
1392,7.75078e-06,-6.37508e-06,4.55654e-05,3.74934e-05,0.000103048,-7.42276e-06
1393,8.20373e-06,-1.65441e-05,4.37669e-05,3.14492e-05,8.48068e-05,-5.03683e-06
1394,5.03182e-06,-1.56683e-05,4.23902e-05,3.27019e-05,4.78982e-05,-3.27981e-06
1395,2.19673e-06,-6.74656e-06,4.43283e-05,3.778e-05,-1.42516e-06,-2.96692e-06
1396,4.45796e-06,-2.62481e-06,4.89852e-05,3.74418e-05,-5.28099e-05,-3.31512e-06
1397,1.05367e-05,-6.07767e-06,5.2479e-05,3.45345e-05,-9.06382e-05,-3.2864e-06
1398,1.34894e-05,-1.24111e-05,5.07427e-05,3.26555e-05,-0.00010926,-3.76804e-06
1399,1.43977e-05,-1.9289e-05,4.68668e-05,3.0135e-05,-0.000103909,-8.26821e-06
1400,1.40015e-05,-1.7863e-05,4.69371e-05,2.96531e-05,-7.04552e-05,-1.70003e-05
1401,1.29708e-05,-4.8057e-06,5.13151e-05,3.20065e-05,-1.73007e-05,-2.10654e-05
1402,1.26515e-05,4.87173e-06,5.59657e-05,3.48193e-05,2.98912e-05,-1.76622e-05
1403,1.35174e-05,3.11894e-06,5.66446e-05,3.73067e-05,5.43413e-05,-1.71526e-05
1404,1.43617e-05,-6.60247e-06,5.35984e-05,3.80743e-05,5.86331e-05,-2.15277e-05
1405,1.31044e-05,-2.24311e-05,5.24653e-05,3.39612e-05,5.16456e-05,-2.81952e-05
1406,1.21582e-05,-2.6491e-05,5.5089e-05,2.95418e-05,4.27218e-05,-3.3127e-05
1407,1.38265e-05,-1.07092e-05,5.63766e-05,3.38486e-05,3.61875e-05,-3.04426e-05
1408,1.68524e-05,-1.33567e-06,5.21521e-05,3.82043e-05,3.05577e-05,-2.30787e-05
1409,1.76361e-05,-4.8924e-06,4.45906e-05,3.60589e-05,2.36253e-05,-1.90404e-05
1410,1.56395e-05,-8.47303e-06,4.00815e-05,3.10661e-05,1.58839e-05,-2.03794e-05
1411,1.21874e-05,-9.02814e-06,4.30724e-05,2.90383e-05,8.15619e-06,-2.16841e-05
1412,9.68754e-06,-4.01776e-06,5.01533e-05,2.75819e-05,4.20141e-06,-2.22484e-05
1413,9.75692e-06,-7.09417e-06,5.23543e-05,2.05758e-05,6.55024e-06,-2.1237e-05
1414,1.1736e-05,-1.55517e-05,4.88903e-05,1.81399e-05,1.25567e-05,-1.88052e-05
1415,1.30718e-05,-1.29385e-05,4.42487e-05,2.8322e-05,1.88278e-05,-1.67577e-05
1416,1.46519e-05,-7.52449e-07,4.30227e-05,4.19263e-05,2.55434e-05,-1.33675e-05
1417,1.7304e-05,7.58347e-06,4.94421e-05,4.66249e-05,2.95046e-05,-1.11848e-05
1418,1.81018e-05,9.14348e-06,5.8289e-05,4.4292e-05,3.01869e-05,-9.9041e-06
1419,1.67185e-05,-2.98459e-07,6.37457e-05,3.81086e-05,3.10343e-05,-6.33545e-06
1420,1.55254e-05,-1.49837e-05,6.61782e-05,3.22936e-05,2.98607e-05,-3.52748e-06
1421,1.50927e-05,-1.81927e-05,6.56389e-05,3.24568e-05,2.87984e-05,-6.84132e-06
1422,1.51259e-05,-6.66199e-06,6.39298e-05,3.72233e-05,3.57288e-05,-1.11623e-05
1423,1.54342e-05,5.39623e-06,6.10851e-05,3.98025e-05,4.61859e-05,-1.02423e-05
1424,1.67457e-05,6.80807e-06,5.80971e-05,3.88789e-05,4.89377e-05,-9.05306e-06
1425,1.73805e-05,-1.6705e-06,5.4066e-05,3.78344e-05,3.9988e-05,-1.02904e-05
1426,1.50559e-05,-1.4422e-05,5.22543e-05,3.57388e-05,2.57534e-05,-1.06732e-05
1427,1.08409e-05,-1.64763e-05,5.63416e-05,3.5736e-05,1.8155e-05,-1.19836e-05
1428,8.97944e-06,-4.64917e-06,6.14696e-05,4.04334e-05,1.96908e-05,-1.62184e-05
1429,1.1314e-05,6.57055e-06,6.1012e-05,4.46694e-05,2.04788e-05,-1.84458e-05
1430,1.51078e-05,5.07857e-06,5.54953e-05,4.47108e-05,1.46592e-05,-1.32367e-05
1431,1.66225e-05,-2.32511e-06,5.17154e-05,4.04785e-05,5.26908e-06,-4.65723e-06
1432,1.40006e-05,-1.34179e-05,5.31152e-05,3.41883e-05,-5.38022e-06,-2.44533e-06
1433,1.06794e-05,-1.58601e-05,5.90004e-05,3.6178e-05,-1.3266e-05,-5.69251e-06
1434,8.95778e-06,-1.33681e-06,6.38702e-05,4.58285e-05,-1.23361e-05,-1.06081e-05
1435,8.36751e-06,5.87503e-07,6.31003e-05,4.73245e-05,-4.21342e-06,-1.53032e-05
1436,9.32816e-06,-7.85416e-06,5.63055e-05,3.89614e-05,3.72177e-06,-1.70426e-05
1437,1.23909e-05,-7.18231e-06,4.88643e-05,3.18172e-05,4.27569e-06,-1.50501e-05
1438,1.43373e-05,-4.44877e-06,4.88952e-05,3.07791e-05,-4.44551e-06,-1.1789e-05
1439,1.32596e-05,2.92646e-07,5.68864e-05,3.54453e-05,-1.19572e-05,-1.19175e-05
1440,1.02259e-05,-4.45189e-06,6.36787e-05,3.68911e-05,-3.44203e-06,-1.25956e-05
1441,8.18371e-06,-1.48734e-05,6.30036e-05,3.30163e-05,2.14891e-05,-7.62013e-06
1442,1.03014e-05,-1.59936e-05,5.66187e-05,3.07096e-05,4.27166e-05,-1.56067e-07
1443,1.36208e-05,-6.35255e-06,4.89288e-05,3.40397e-05,4.07079e-05,1.8233e-06
1444,1.33704e-05,1.4597e-06,4.58039e-05,3.92504e-05,1.91845e-05,-3.44499e-06
1445,1.12107e-05,3.1474e-06,4.87404e-05,3.83778e-05,4.32541e-06,-9.13606e-06
1446,1.27787e-05,-2.98112e-06,5.26134e-05,2.99963e-05,1.23877e-05,-1.20103e-05
1447,1.50032e-05,-1.52542e-05,5.41413e-05,2.31164e-05,2.545e-05,-1.31046e-05
1448,1.33097e-05,-1.86763e-05,5.36063e-05,2.782e-05,2.82562e-05,-1.01883e-05
1449,1.03853e-05,-8.54727e-06,5.44873e-05,4.02035e-05,2.52527e-05,-2.25854e-06
1450,6.72656e-06,2.87317e-06,5.53568e-05,4.77489e-05,2.09906e-05,4.63782e-06
1451,5.03558e-06,5.56739e-06,5.16035e-05,4.48011e-05,1.83849e-05,3.67165e-06
1452,7.54441e-06,-3.67712e-07,4.81917e-05,3.49451e-05,1.34591e-05,-2.55666e-06
1453,1.1823e-05,-1.33978e-05,5.14953e-05,2.5482e-05,4.85247e-06,-7.71449e-06
1454,1.38032e-05,-1.85089e-05,5.74493e-05,2.70109e-05,1.47605e-06,-9.01837e-06
1455,1.28697e-05,-9.42867e-06,6.19258e-05,3.85419e-05,8.85397e-06,-7.92031e-06
1456,1.19519e-05,2.51455e-06,6.30586e-05,4.72135e-05,2.29491e-05,-8.39311e-06
1457,1.4e-05,5.80374e-06,6.04424e-05,4.51754e-05,4.05946e-05,-1.08946e-05
1458,1.63336e-05,1.34713e-06,5.57544e-05,3.994e-05,5.43107e-05,-1.08405e-05
1459,1.482e-05,-1.22196e-05,5.21866e-05,3.86155e-05,5.5653e-05,-7.26165e-06
1460,1.12336e-05,-1.84023e-05,5.21596e-05,4.1712e-05,4.89806e-05,-4.71812e-06
1461,7.91381e-06,-5.28216e-06,5.38597e-05,4.76174e-05,4.52212e-05,-1.06867e-05
1462,7.16751e-06,3.07608e-06,5.43436e-05,4.61092e-05,4.51217e-05,-2.19479e-05
1463,8.11042e-06,2.42057e-06,5.15699e-05,4.05328e-05,3.99705e-05,-3.00493e-05
1464,8.18088e-06,1.91812e-06,4.80148e-05,3.98817e-05,1.9036e-05,-3.56232e-05
1465,7.57961e-06,2.89387e-07,4.7491e-05,4.195e-05,-2.20767e-05,-3.65441e-05
1466,8.98044e-06,-4.10894e-07,5.04726e-05,4.18729e-05,-6.59625e-05,-3.28019e-05
1467,1.03896e-05,-8.121e-06,5.40387e-05,3.4839e-05,-8.15224e-05,-2.7177e-05
1468,8.00592e-06,-2.07354e-05,5.46704e-05,2.53936e-05,-5.88379e-05,-2.32411e-05
1469,2.01895e-06,-2.12053e-05,4.94559e-05,2.56019e-05,-2.22823e-05,-2.25713e-05
1470,-2.88351e-06,-7.13453e-06,4.14397e-05,3.44929e-05,-5.74097e-07,-2.01487e-05
1471,-2.96578e-06,3.29938e-06,3.8404e-05,4.0739e-05,-1.66707e-06,-8.69105e-06
1472,-5.86683e-07,2.67022e-06,4.28363e-05,4.27056e-05,-8.97941e-06,1.04428e-05
1473,1.36435e-06,-6.60183e-06,4.70481e-05,3.84522e-05,-8.2786e-06,2.13607e-05
1474,2.63141e-06,-1.54162e-05,4.49261e-05,3.06914e-05,-5.99789e-06,1.70211e-05
1475,2.64459e-06,-1.28967e-05,4.19562e-05,2.90606e-05,-3.97366e-06,8.67729e-06
1476,1.4505e-06,-1.18749e-06,4.44348e-05,3.51879e-05,6.8233e-06,7.39494e-06
1477,1.56326e-06,4.93458e-06,4.77143e-05,4.00902e-05,2.36027e-05,8.76936e-06
1478,6.55166e-06,1.44262e-06,4.54797e-05,3.90507e-05,3.57539e-05,6.02633e-06
1479,1.15936e-05,-5.18712e-06,3.88469e-05,3.39259e-05,3.26286e-05,-9.84166e-07
1480,1.1066e-05,-1.4817e-05,3.67632e-05,2.95012e-05,1.43995e-05,-6.05217e-06
1481,9.02211e-06,-1.92539e-05,4.25151e-05,3.28028e-05,-2.63125e-06,-3.92919e-06
1482,9.07424e-06,-1.01149e-05,4.96705e-05,4.30285e-05,-3.86204e-06,3.57716e-06
1483,1.11736e-05,1.05791e-06,5.1604e-05,5.11734e-05,6.57294e-06,8.76767e-06
1484,1.47335e-05,1.7049e-06,4.78249e-05,5.19523e-05,1.15189e-05,7.17619e-06
1485,1.85573e-05,-7.89609e-06,4.32726e-05,5.0145e-05,1.87397e-06,1.77717e-06
1486,1.87395e-05,-2.67667e-05,4.21068e-05,4.71307e-05,-1.01171e-05,-5.56583e-06
1487,1.62298e-05,-3.2076e-05,4.31699e-05,4.00925e-05,-8.86512e-06,-1.16673e-05
1488,1.6088e-05,-1.11026e-05,4.37359e-05,3.69206e-05,5.46113e-06,-1.04061e-05
1489,2.08137e-05,5.55271e-06,4.34974e-05,3.64681e-05,2.07407e-05,-4.01972e-07
1490,2.66903e-05,3.98511e-06,4.15685e-05,3.71024e-05,2.80495e-05,1.12352e-05
1491,2.82484e-05,-2.96808e-06,3.87233e-05,4.20135e-05,2.67054e-05,1.74884e-05
1492,2.6289e-05,-1.01186e-05,4.00938e-05,4.18932e-05,1.85308e-05,1.5893e-05
1493,2.42507e-05,-1.12063e-05,4.76709e-05,3.71251e-05,1.09365e-05,7.9287e-06
1494,2.24883e-05,-1.70385e-05,5.50524e-05,3.22313e-05,1.21489e-05,-5.46094e-06
1495,2.18523e-05,-2.70186e-05,5.68899e-05,3.25355e-05,2.04808e-05,-1.70806e-05
1496,2.19583e-05,-2.46533e-05,5.32397e-05,3.83328e-05,2.7739e-05,-2.13802e-05
1497,1.95286e-05,-9.14454e-06,5.02501e-05,4.62389e-05,2.95573e-05,-2.27265e-05
1498,1.55801e-05,1.50499e-06,5.09492e-05,4.86609e-05,2.35307e-05,-2.69852e-05
1499,1.44628e-05,-1.30486e-06,5.04437e-05,4.55497e-05,1.53867e-05,-3.33206e-05
1500,1.74361e-05,-1.28521e-05,4.61861e-05,4.01904e-05,1.14936e-05,-3.75288e-05
1501,2.02086e-05,-2.28346e-05,4.44388e-05,3.41806e-05,1.16791e-05,-3.71255e-05
1502,1.98385e-05,-1.96964e-05,4.65594e-05,3.18994e-05,2.4103e-05,-3.21157e-05
1503,1.6664e-05,-5.1464e-06,5.04484e-05,3.52149e-05,5.45711e-05,-2.50227e-05
1504,1.0435e-05,6.66478e-06,5.53386e-05,4.10065e-05,8.67111e-05,-1.93057e-05
1505,4.56329e-06,6.79832e-06,5.73615e-05,4.23718e-05,9.97797e-05,-1.59293e-05
1506,3.08422e-06,-1.85973e-06,5.56721e-05,3.75967e-05,8.9084e-05,-1.32777e-05
1507,4.47287e-06,-1.38489e-05,5.51626e-05,2.85452e-05,6.65841e-05,-1.25785e-05
1508,4.55275e-06,-1.52512e-05,5.76063e-05,2.56401e-05,4.89516e-05,-1.50947e-05
1509,2.62922e-06,-2.75021e-06,5.86128e-05,3.08936e-05,4.01755e-05,-1.62508e-05
1510,1.80361e-06,6.49085e-06,5.48045e-05,3.77326e-05,2.69586e-05,-1.0641e-05
1511,3.70413e-06,1.44038e-06,4.91368e-05,4.29085e-05,-1.46546e-06,-4.35447e-06
1512,5.43533e-06,-9.47288e-06,4.66342e-05,4.61483e-05,-3.59956e-05,4.48513e-08
1513,5.10387e-06,-2.15015e-05,4.76183e-05,4.15331e-05,-5.59654e-05,7.02883e-06
1514,7.102e-06,-2.29296e-05,4.86293e-05,3.52509e-05,-5.22144e-05,1.22826e-05
1515,1.26807e-05,-8.67569e-06,4.68306e-05,3.61305e-05,-3.60524e-05,1.30721e-05
1516,1.80843e-05,5.49745e-07,4.16492e-05,3.71901e-05,-2.66244e-05,1.31053e-05
1517,2.07836e-05,2.29018e-06,3.5074e-05,4.12301e-05,-3.35159e-05,1.51932e-05
1518,2.20671e-05,8.00534e-06,3.34388e-05,4.66092e-05,-5.06447e-05,1.70707e-05
1519,2.36134e-05,9.74982e-06,4.05795e-05,4.39517e-05,-6.20942e-05,1.40936e-05
1520,2.45127e-05,2.40369e-06,5.08278e-05,4.10783e-05,-5.2793e-05,8.90792e-06
1521,2.23732e-05,-1.34824e-05,5.72688e-05,4.00578e-05,-2.09642e-05,3.86215e-06
1522,1.86816e-05,-2.71252e-05,5.97065e-05,3.64742e-05,1.66988e-05,1.15864e-06
1523,1.65964e-05,-2.23057e-05,5.6484e-05,4.0078e-05,4.08232e-05,7.11904e-07
1524,1.86707e-05,-6.31593e-06,4.93597e-05,4.62951e-05,4.76711e-05,1.96776e-06
1525,2.20344e-05,1.20165e-06,4.57102e-05,4.53355e-05,3.95132e-05,3.48246e-06
1526,2.25539e-05,-2.54385e-06,4.86079e-05,4.16455e-05,2.47507e-05,2.93818e-06
1527,2.21329e-05,-1.50478e-05,5.56288e-05,3.70459e-05,1.27303e-05,2.87631e-06
1528,2.11873e-05,-2.82003e-05,6.16274e-05,2.9526e-05,2.17282e-06,1.39554e-06
1529,2.06499e-05,-2.83045e-05,6.32131e-05,2.47279e-05,-3.90553e-06,-2.16715e-06
1530,1.8879e-05,-1.42402e-05,6.292e-05,2.88214e-05,4.69469e-06,-2.11876e-06
1531,1.52875e-05,-2.81022e-06,5.94065e-05,3.48776e-05,2.30191e-05,3.64609e-06
1532,1.42506e-05,-3.07973e-06,5.26559e-05,3.81005e-05,3.39514e-05,8.31885e-06
1533,1.52118e-05,-9.33205e-06,4.89932e-05,3.8857e-05,3.11977e-05,5.24708e-06
1534,1.24069e-05,-1.83729e-05,5.04415e-05,3.62233e-05,2.04668e-05,-2.38422e-06
1535,8.29803e-06,-1.99581e-05,5.28171e-05,3.37788e-05,1.38305e-05,-7.54871e-06
1536,6.79198e-06,-6.92489e-06,5.32862e-05,3.38393e-05,1.62922e-05,-7.76193e-06
1537,8.02682e-06,6.87213e-06,5.41705e-05,3.42159e-05,2.29577e-05,-5.37073e-06
1538,1.33901e-05,8.17138e-06,5.39264e-05,3.34832e-05,2.91352e-05,-2.97614e-06
1539,1.94901e-05,-4.32665e-08,5.16353e-05,3.29448e-05,3.19066e-05,-1.32483e-06
1540,1.99589e-05,-1.6989e-05,5.05008e-05,3.26715e-05,3.28973e-05,-3.7449e-06
1541,1.52274e-05,-2.32993e-05,5.12814e-05,3.43467e-05,3.65809e-05,-9.82669e-06
1542,1.18981e-05,-3.54357e-06,5.07365e-05,3.93517e-05,4.17438e-05,-1.31338e-05
1543,1.31147e-05,8.70205e-06,4.77872e-05,3.62503e-05,4.05933e-05,-1.24941e-05
1544,1.59525e-05,3.76367e-06,4.37616e-05,2.98212e-05,3.08981e-05,-1.39673e-05
1545,1.54347e-05,2.64395e-06,4.01907e-05,3.01932e-05,1.77549e-05,-1.92364e-05
