Time_Index,DELTOID_Affected,DELTOID_NonAffected,BICEPS_Affected,BICEPS_NonAffected,FOREARM_Affected,FOREARM_NonAffected
1,2.17145e-05,1.02597e-05,5.57788e-05,3.52738e-05,9.19387e-06,-8.63869e-06
2,1.87178e-05,8.24149e-06,6.00796e-05,3.39146e-05,8.81553e-06,-1.14765e-05
3,1.63305e-05,3.17425e-07,5.91136e-05,3.35976e-05,1.43126e-05,-1.21849e-05
4,1.62988e-05,-1.07341e-05,5.4285e-05,3.09946e-05,2.27429e-05,-1.01001e-05
5,1.80117e-05,-1.22088e-05,4.66364e-05,3.01257e-05,3.01626e-05,-7.98356e-06
6,2.01475e-05,-1.05557e-06,4.03575e-05,3.44465e-05,3.09851e-05,-6.02701e-06
7,2.15308e-05,8.26487e-06,3.99272e-05,4.06618e-05,2.60194e-05,-4.62962e-06
8,2.26108e-05,8.13187e-06,4.57918e-05,4.40518e-05,2.11852e-05,-5.20361e-06
9,2.14772e-05,4.20566e-07,5.04298e-05,4.11076e-05,2.07112e-05,-6.50504e-06
10,1.74366e-05,-1.11383e-05,4.92747e-05,3.42604e-05,2.303e-05,-7.90936e-06
11,1.39042e-05,-1.69916e-05,4.41451e-05,3.23818e-05,2.2726e-05,-9.0573e-06
12,1.30692e-05,-1.0518e-05,4.20222e-05,3.78465e-05,1.503e-05,-8.53092e-06
13,1.46153e-05,3.85661e-07,4.70518e-05,4.23556e-05,2.4923e-06,-4.26237e-06
14,1.62592e-05,3.5464e-06,5.51296e-05,4.20094e-05,-3.86394e-06,1.78419e-06
15,1.61066e-05,-5.45656e-06,5.91656e-05,3.86949e-05,1.62972e-06,5.92479e-06
16,1.64654e-05,-2.32117e-05,5.77676e-05,3.2565e-05,1.23448e-05,5.25099e-06
17,1.76567e-05,-3.45802e-05,5.07527e-05,2.94673e-05,1.80646e-05,2.15808e-06
18,1.63277e-05,-2.84037e-05,3.96952e-05,3.43655e-05,1.69901e-05,1.50156e-06
19,1.37231e-05,-1.44805e-05,3.44759e-05,4.03372e-05,1.07009e-05,1.88262e-06
20,1.35018e-05,-7.77791e-06,3.84091e-05,4.14378e-05,7.43621e-06,-2.24682e-06
21,1.73074e-05,-1.28816e-05,4.47096e-05,3.7496e-05,1.04722e-05,-9.2147e-06
22,1.96829e-05,-2.71381e-05,4.45728e-05,2.9526e-05,1.16587e-05,-1.30601e-05
23,1.78577e-05,-3.66357e-05,4.23483e-05,2.57172e-05,1.16222e-05,-1.37634e-05
24,1.27365e-05,-2.63715e-05,4.64941e-05,3.47171e-05,1.58305e-05,-1.24305e-05
25,7.27561e-06,-1.02836e-05,4.95999e-05,4.5368e-05,1.82587e-05,-1.00552e-05
26,7.44642e-06,-4.93849e-06,4.87313e-05,4.67112e-05,1.97903e-05,-6.62194e-06
27,9.56083e-06,-3.63499e-06,4.93035e-05,4.61037e-05,1.91343e-05,-1.50641e-06
28,7.056e-06,-2.61546e-06,5.66314e-05,4.56283e-05,1.70134e-05,4.88585e-07
29,3.92681e-06,-1.7284e-06,6.17853e-05,4.2266e-05,1.72543e-05,-1.69623e-06
30,4.67626e-06,-6.28626e-06,6.21304e-05,3.51182e-05,1.92131e-05,-3.58318e-06
31,5.98497e-06,-1.88221e-05,6.09552e-05,2.86201e-05,1.71187e-05,-3.29177e-06
32,8.14047e-06,-2.47947e-05,5.66281e-05,2.8186e-05,1.14577e-05,-3.43539e-06
33,1.0511e-05,-1.59753e-05,5.12666e-05,3.34234e-05,7.53434e-06,-4.85351e-06
34,1.18663e-05,-5.54433e-06,5.01595e-05,3.87124e-05,5.97434e-06,-5.30333e-06
35,1.33145e-05,-5.29785e-06,5.24991e-05,4.18795e-05,6.75396e-06,-4.70501e-06
36,1.44911e-05,-1.56935e-05,5.44376e-05,4.16209e-05,9.55632e-06,-3.4622e-06
37,1.47594e-05,-2.89006e-05,5.53164e-05,3.77278e-05,1.22617e-05,-2.89917e-06
38,1.65847e-05,-3.15462e-05,5.33466e-05,3.41141e-05,1.08048e-05,-2.87456e-06
39,1.91686e-05,-2.02689e-05,5.15086e-05,3.39658e-05,7.32355e-06,-2.15068e-06
40,1.80298e-05,-7.80801e-06,5.17101e-05,3.62661e-05,3.90323e-06,-2.12236e-06
41,1.35286e-05,-3.70651e-06,5.15515e-05,3.80451e-05,3.69669e-06,-6.05912e-06
42,9.55473e-06,-7.08864e-06,4.87685e-05,3.79163e-05,8.45003e-06,-1.24334e-05
43,8.31746e-06,-1.51693e-05,4.61249e-05,3.51075e-05,1.5008e-05,-1.56048e-05
44,7.53058e-06,-1.90514e-05,4.20692e-05,3.61092e-05,1.78285e-05,-1.37906e-05
45,8.77772e-06,-1.29425e-05,3.8804e-05,4.46619e-05,1.64029e-05,-1.17546e-05
46,1.11278e-05,-5.24599e-06,4.25802e-05,5.19068e-05,8.67873e-06,-1.26125e-05
47,9.51101e-06,-5.37594e-06,5.04441e-05,5.01315e-05,2.89528e-06,-1.5744e-05
48,4.82175e-06,-9.9769e-06,5.10076e-05,4.29224e-05,6.87421e-06,-2.08279e-05
49,3.48882e-06,-1.61988e-05,4.65284e-05,3.38284e-05,9.24882e-06,-2.34535e-05
50,6.57182e-06,-1.80336e-05,4.61326e-05,2.95119e-05,4.94646e-06,-2.05407e-05
51,8.6726e-06,-8.39632e-06,4.77045e-05,3.76463e-05,4.4951e-07,-1.64663e-05
52,9.41912e-06,-2.42835e-06,4.76972e-05,4.71016e-05,-3.54384e-06,-1.5812e-05
53,1.09763e-05,-6.61361e-06,4.63241e-05,4.6327e-05,-7.03529e-06,-1.78962e-05
54,1.15363e-05,-8.32363e-06,4.56373e-05,3.98691e-05,-1.21359e-05,-1.85737e-05
55,1.15581e-05,-3.745e-06,4.97107e-05,3.40113e-05,-1.86917e-05,-1.73172e-05
56,9.55661e-06,2.05486e-06,5.61373e-05,3.27763e-05,-1.67478e-05,-1.51581e-05
57,5.65677e-06,-1.88338e-06,6.15773e-05,3.09115e-05,2.33953e-06,-1.13733e-05
58,3.96591e-06,-1.50837e-05,6.35975e-05,2.44806e-05,3.50478e-05,-5.70916e-06
59,5.67163e-06,-2.10056e-05,5.95336e-05,2.07397e-05,6.37943e-05,-8.63536e-08
60,7.1811e-06,-1.2253e-05,5.29802e-05,2.75812e-05,7.1999e-05,1.89892e-06
61,3.89036e-06,-8.08145e-07,5.22653e-05,3.87573e-05,6.38619e-05,-8.27893e-07
62,9.35466e-07,3.27193e-06,5.68859e-05,4.38824e-05,5.72133e-05,-7.23688e-06
63,1.71798e-06,-3.13742e-06,5.81635e-05,4.01727e-05,5.87646e-05,-1.35684e-05
64,3.62797e-06,-1.55655e-05,5.35948e-05,3.18993e-05,5.86539e-05,-1.55291e-05
65,4.64571e-06,-2.06523e-05,4.6089e-05,2.83307e-05,4.3863e-05,-1.26529e-05
66,5.67925e-06,-1.11393e-05,4.06869e-05,3.27172e-05,1.13244e-05,-8.69461e-06
67,6.53206e-06,3.10191e-06,4.23372e-05,3.93496e-05,-2.7164e-05,-5.14901e-06
68,7.2588e-06,8.83796e-06,5.02319e-05,4.22175e-05,-4.7773e-05,-6.25396e-07
69,7.72046e-06,3.79434e-06,5.56724e-05,4.05045e-05,-4.23354e-05,4.26177e-06
70,7.99534e-06,-6.09778e-06,5.28112e-05,3.37089e-05,-2.66941e-05,6.4304e-06
71,1.01628e-05,-1.02005e-05,4.34209e-05,2.99361e-05,-1.10662e-05,3.10899e-06
72,1.40823e-05,-3.53532e-06,3.62063e-05,3.62464e-05,8.82336e-06,-5.66644e-06
73,1.51542e-05,5.80138e-06,3.94268e-05,4.47399e-05,2.82393e-05,-1.39446e-05
74,1.23869e-05,7.69451e-06,4.8277e-05,4.54583e-05,4.0799e-05,-1.6354e-05
75,1.26497e-05,2.86036e-06,5.67769e-05,3.99276e-05,5.39824e-05,-1.59208e-05
76,1.79598e-05,-8.46744e-06,6.31918e-05,3.49651e-05,5.91351e-05,-1.87384e-05
77,2.21541e-05,-1.86336e-05,6.21759e-05,3.54186e-05,5.27573e-05,-2.54642e-05
78,2.13947e-05,-1.23699e-05,6.02743e-05,4.25516e-05,4.46449e-05,-2.76814e-05
79,1.95566e-05,-5.12804e-07,6.12422e-05,4.65043e-05,3.68189e-05,-2.25243e-05
80,1.97796e-05,3.82874e-06,6.15628e-05,4.22981e-05,3.10194e-05,-1.70271e-05
81,2.24498e-05,5.12386e-06,5.92923e-05,3.77683e-05,2.22009e-05,-1.58874e-05
82,2.37401e-05,4.27245e-06,5.78008e-05,3.79455e-05,1.04412e-05,-1.99844e-05
83,2.22537e-05,1.36171e-06,5.64257e-05,4.04608e-05,1.6027e-06,-2.81559e-05
84,1.89722e-05,-8.6497e-06,5.36189e-05,3.74281e-05,-7.13332e-06,-3.44325e-05
85,1.57406e-05,-2.28706e-05,5.08488e-05,3.01924e-05,-2.82938e-05,-3.40773e-05
86,1.41402e-05,-2.53967e-05,4.98773e-05,2.68331e-05,-5.00134e-05,-2.77243e-05
87,1.29588e-05,-1.20518e-05,5.38721e-05,3.11033e-05,-5.33117e-05,-1.75879e-05
88,1.26812e-05,6.81245e-07,6.062e-05,3.78463e-05,-3.98047e-05,-8.6575e-06
89,1.40333e-05,3.24429e-06,6.35855e-05,4.1659e-05,-2.1874e-05,-5.06629e-06
90,1.47825e-05,-3.81108e-06,6.19448e-05,4.01749e-05,-5.15886e-06,-6.55339e-06
91,1.51883e-05,-1.56078e-05,6.11272e-05,3.4678e-05,9.01749e-06,-1.08392e-05
92,1.81174e-05,-1.9452e-05,6.14887e-05,3.34356e-05,1.89885e-05,-1.49249e-05
93,2.15951e-05,-7.80726e-06,6.23055e-05,3.95717e-05,2.56783e-05,-1.79931e-05
94,2.039e-05,8.72553e-06,6.25601e-05,4.49552e-05,3.11573e-05,-1.98974e-05
95,1.62598e-05,1.45068e-05,6.12135e-05,4.47038e-05,4.06034e-05,-1.97153e-05
96,1.47346e-05,6.00932e-06,5.88929e-05,4.25274e-05,4.98781e-05,-1.87401e-05
97,1.45546e-05,-1.0868e-05,5.89739e-05,3.82559e-05,4.964e-05,-1.94105e-05
98,1.26172e-05,-2.12131e-05,6.07861e-05,3.45764e-05,3.97032e-05,-2.15604e-05
99,1.09171e-05,-1.48838e-05,6.26751e-05,3.68661e-05,2.94291e-05,-2.20393e-05
100,1.15859e-05,-1.30163e-06,6.66356e-05,4.35026e-05,1.86246e-05,-1.83976e-05
101,1.14884e-05,3.23882e-06,6.94268e-05,4.78729e-05,1.08712e-05,-1.31461e-05
102,1.11504e-05,-3.8495e-06,6.54113e-05,4.70162e-05,1.16499e-05,-1.02432e-05
103,1.13047e-05,-1.65804e-05,5.79454e-05,3.97365e-05,1.40894e-05,-1.09472e-05
104,1.16666e-05,-2.21381e-05,5.22411e-05,3.27239e-05,1.45779e-05,-1.34283e-05
105,1.26147e-05,-1.12592e-05,5.38918e-05,3.584e-05,1.61516e-05,-1.23688e-05
106,1.3975e-05,2.00331e-06,5.76754e-05,4.23784e-05,1.72151e-05,-6.79393e-06
107,1.40166e-05,6.51356e-06,5.52158e-05,4.57858e-05,1.80274e-05,3.25681e-07
108,1.27875e-05,8.47143e-06,5.14892e-05,4.86783e-05,1.65893e-05,3.75093e-06
109,1.1945e-05,7.31866e-06,5.3594e-05,5.13513e-05,1.23386e-05,1.02726e-06
110,1.00527e-05,3.73383e-06,5.80203e-05,5.19851e-05,1.21663e-05,-2.77534e-06
111,7.00803e-06,-4.58806e-06,5.82306e-05,4.74379e-05,1.61363e-05,-3.32884e-06
112,6.01581e-06,-1.79765e-05,5.42708e-05,3.9366e-05,1.74374e-05,-1.35022e-06
113,9.50839e-06,-2.26363e-05,4.97518e-05,3.6964e-05,1.07758e-05,-2.48979e-06
114,1.31458e-05,-1.22427e-05,4.99218e-05,4.35749e-05,-3.8207e-06,-5.33188e-06
115,1.0261e-05,8.90436e-07,5.59979e-05,4.86648e-05,-2.07952e-05,-4.70389e-06
116,4.62636e-06,6.25688e-06,6.10795e-05,4.57839e-05,-3.11124e-05,-2.55811e-06
117,2.41607e-06,5.96734e-07,6.01058e-05,3.87414e-05,-2.92565e-05,-1.93084e-06
118,3.15916e-06,-1.07825e-05,5.62678e-05,3.39047e-05,-1.86363e-05,8.9057e-07
119,4.74355e-06,-1.46258e-05,5.26649e-05,3.71572e-05,-5.59042e-06,9.31907e-06
120,7.17704e-06,-6.10366e-06,5.12655e-05,4.65884e-05,2.17936e-06,1.61223e-05
121,9.349e-06,5.51142e-06,5.30992e-05,5.33154e-05,4.70951e-06,1.37096e-05
122,1.00348e-05,1.03488e-05,5.79498e-05,5.23521e-05,1.48494e-05,4.43331e-06
123,9.58147e-06,6.42388e-06,6.15972e-05,4.50871e-05,3.41423e-05,-3.82981e-06
124,1.01202e-05,-4.5168e-06,6.09129e-05,3.49201e-05,4.55519e-05,-5.39582e-06
125,1.62337e-05,-1.24609e-05,5.76991e-05,2.95532e-05,3.76777e-05,-8.57663e-07
126,2.22434e-05,-8.21636e-06,5.4983e-05,3.31984e-05,2.01569e-05,2.03309e-06
127,1.87869e-05,2.22051e-06,5.69772e-05,3.96668e-05,5.41339e-06,-1.58201e-06
128,1.02466e-05,7.08413e-06,6.11111e-05,4.22859e-05,2.34736e-06,-6.96185e-06
129,7.63457e-06,2.81952e-06,6.12832e-05,4.08888e-05,1.27557e-05,-8.2598e-06
130,1.11802e-05,-1.16252e-05,5.75141e-05,3.62658e-05,2.77166e-05,-3.66153e-06
131,1.23775e-05,-2.20813e-05,5.28331e-05,3.34146e-05,4.57559e-05,3.58149e-06
132,1.1453e-05,-1.52205e-05,4.95546e-05,3.78472e-05,5.55208e-05,3.41228e-06
133,1.46697e-05,-6.20677e-06,4.67774e-05,4.0357e-05,4.64817e-05,-3.56658e-06
134,2.16602e-05,-4.21188e-06,4.32784e-05,3.68639e-05,3.82354e-05,-1.04737e-05
135,2.49787e-05,-2.75342e-06,4.19756e-05,3.63981e-05,4.1149e-05,-1.70509e-05
136,1.93768e-05,-1.0209e-06,4.71517e-05,4.15615e-05,4.52471e-05,-2.21533e-05
137,1.26529e-05,1.32725e-07,5.23129e-05,4.52917e-05,4.53318e-05,-2.58489e-05
138,1.11332e-05,-6.06427e-06,5.46851e-05,4.04398e-05,4.06392e-05,-2.61707e-05
139,1.38513e-05,-1.84292e-05,5.56678e-05,3.09222e-05,3.43055e-05,-2.01214e-05
140,1.74592e-05,-2.12251e-05,5.339e-05,2.78445e-05,3.25795e-05,-8.51996e-06
141,1.98209e-05,-9.75988e-06,4.94865e-05,3.43202e-05,3.39644e-05,3.24274e-06
142,2.11862e-05,1.4011e-06,4.89865e-05,4.13442e-05,3.3009e-05,8.64415e-06
143,2.25357e-05,4.23864e-06,5.09079e-05,4.23767e-05,3.11378e-05,7.73917e-06
144,2.18203e-05,1.19978e-06,5.32885e-05,3.78768e-05,3.26592e-05,4.797e-06
145,1.74907e-05,-3.75209e-06,5.58306e-05,3.17972e-05,3.3204e-05,2.04685e-06
146,1.22389e-05,-3.6387e-06,5.30593e-05,3.0515e-05,2.53945e-05,-5.38014e-07
147,9.81752e-06,3.51864e-06,4.40571e-05,3.35076e-05,1.13411e-05,-3.46193e-06
148,9.72115e-06,8.88103e-06,3.7564e-05,3.38404e-05,-2.27756e-06,-6.28229e-06
149,8.23799e-06,7.39063e-06,4.04809e-05,3.17936e-05,-1.16905e-05,-7.15632e-06
150,5.13754e-06,2.82644e-06,4.67618e-05,3.12778e-05,-1.68619e-05,-6.16453e-06
151,2.46221e-06,-4.05071e-06,4.78641e-05,3.10584e-05,-1.95359e-05,-5.62419e-06
152,3.95569e-06,-8.79827e-06,4.2514e-05,3.18662e-05,-1.76085e-05,-6.17778e-06
153,8.97949e-06,-5.80656e-06,3.71472e-05,3.53851e-05,-1.3016e-05,-6.47194e-06
154,9.67066e-06,1.16551e-06,3.93683e-05,3.66324e-05,-9.17308e-06,-5.03844e-06
155,5.55354e-06,4.20754e-06,4.60587e-05,3.22931e-05,-4.28834e-06,-4.02883e-06
156,2.43058e-06,6.67708e-07,4.69519e-05,2.58867e-05,4.0908e-06,-4.47648e-06
157,3.84362e-06,-1.40242e-05,3.97002e-05,2.0504e-05,8.79611e-06,-4.50039e-06
158,6.99972e-06,-2.90189e-05,3.18641e-05,1.89956e-05,7.44289e-06,-4.77227e-06
159,3.28125e-06,-2.20719e-05,3.48944e-05,2.38864e-05,5.18891e-06,-5.6137e-06
160,-2.31633e-06,-5.62791e-06,4.2528e-05,2.84481e-05,2.18836e-06,-7.14904e-06
161,-2.72824e-06,-1.13189e-06,4.42078e-05,2.87442e-05,2.44758e-06,-8.94162e-06
162,-4.01906e-08,-3.98226e-06,4.29741e-05,2.84369e-05,3.40291e-06,-1.03608e-05
163,1.31105e-07,-4.80803e-06,4.50979e-05,2.7365e-05,2.48349e-08,-9.9223e-06
164,-1.84007e-06,-3.11526e-06,5.01627e-05,2.69282e-05,-2.23648e-06,-7.10886e-06
165,-2.28092e-06,-7.48821e-06,5.34586e-05,2.55448e-05,2.35674e-06,-4.71722e-06
166,-3.07238e-07,-2.05473e-05,4.78157e-05,2.26411e-05,7.31168e-06,-5.75105e-06
167,2.57503e-06,-2.7382e-05,3.56766e-05,2.46974e-05,6.47242e-06,-1.12874e-05
168,4.5081e-06,-1.84657e-05,2.91826e-05,3.16303e-05,-6.45206e-07,-1.68187e-05
169,3.39296e-06,-6.79052e-06,3.40946e-05,3.49708e-05,-7.76931e-06,-1.66165e-05
170,6.18641e-07,-3.2865e-06,4.31243e-05,3.24211e-05,-6.60708e-06,-1.12056e-05
171,-8.65854e-07,-1.09395e-05,4.53455e-05,2.74846e-05,3.8859e-06,-6.49939e-06
172,2.18948e-06,-2.50105e-05,4.24209e-05,2.23897e-05,1.29955e-05,-5.85293e-06
173,8.9515e-06,-3.08592e-05,3.86489e-05,2.21628e-05,1.14334e-05,-8.39751e-06
174,1.52937e-05,-2.04625e-05,3.48471e-05,3.04979e-05,1.42003e-06,-1.05516e-05
175,1.80118e-05,-5.25645e-06,3.47925e-05,4.04454e-05,-9.03336e-06,-9.77284e-06
176,1.52284e-05,1.4677e-06,4.11493e-05,4.14195e-05,-1.16544e-05,-7.36833e-06
177,1.03727e-05,-1.99733e-06,4.88009e-05,3.33139e-05,-6.76573e-06,-4.67581e-06
178,6.59579e-06,-1.2676e-05,5.33652e-05,2.61112e-05,-3.39132e-06,-1.54821e-06
179,5.88936e-06,-2.05071e-05,5.07263e-05,2.91699e-05,-6.37672e-06,-3.97122e-07
180,6.59218e-06,-1.54812e-05,4.43545e-05,4.05687e-05,-8.55353e-06,-2.86916e-06
181,5.59214e-06,-4.77233e-06,4.49649e-05,4.99073e-05,-6.0917e-06,-5.81812e-06
182,4.82724e-06,-1.42284e-06,5.30311e-05,5.10509e-05,2.98052e-06,-5.99201e-06
183,1.00824e-05,-6.66317e-06,6.00523e-05,4.46981e-05,2.19687e-05,-3.89467e-06
184,1.63693e-05,-1.99284e-05,6.07009e-05,3.68723e-05,3.70581e-05,-2.51759e-06
185,1.8097e-05,-3.04093e-05,5.80265e-05,3.60618e-05,4.05901e-05,-3.79848e-06
186,1.56644e-05,-2.42076e-05,5.6609e-05,4.39381e-05,3.84048e-05,-7.00714e-06
187,1.51751e-05,-1.23383e-05,5.68142e-05,5.14348e-05,2.79687e-05,-8.78191e-06
188,1.83322e-05,-6.50163e-06,5.47435e-05,5.29052e-05,1.30007e-05,-8.52636e-06
189,2.12104e-05,-4.33696e-06,4.89189e-05,5.22461e-05,-6.93773e-07,-5.72731e-06
190,2.08547e-05,-3.36106e-06,4.98288e-05,5.18654e-05,-6.22118e-06,-1.55404e-06
191,1.75449e-05,-1.77441e-07,5.53986e-05,5.0208e-05,-5.38582e-06,-1.24905e-06
192,1.53643e-05,-3.73133e-06,5.67668e-05,4.30949e-05,-1.41965e-06,-5.15459e-06
193,1.26167e-05,-1.72618e-05,5.12649e-05,3.525e-05,4.84344e-06,-8.63305e-06
194,1.03658e-05,-2.48188e-05,4.27074e-05,3.56543e-05,1.0588e-05,-1.05556e-05
195,1.18249e-05,-1.66889e-05,3.89221e-05,4.32301e-05,1.42956e-05,-1.13175e-05
196,1.67672e-05,-4.13526e-06,4.287e-05,4.83682e-05,1.89673e-05,-8.30599e-06
197,2.23391e-05,1.32232e-06,5.04924e-05,4.715e-05,2.81856e-05,-3.30925e-06
198,2.56792e-05,-3.07778e-06,5.43381e-05,4.26328e-05,3.57868e-05,-2.04187e-06
199,2.53297e-05,-1.34658e-05,5.34442e-05,3.75605e-05,3.71214e-05,-4.80519e-06
200,2.40612e-05,-1.90336e-05,4.92948e-05,3.69425e-05,3.49528e-05,-7.78602e-06
201,2.45343e-05,-1.21514e-05,4.75e-05,4.17864e-05,3.25053e-05,-9.25956e-06
202,2.23912e-05,1.52322e-06,5.22615e-05,4.65095e-05,2.83819e-05,-1.06287e-05
203,1.57752e-05,1.06236e-05,5.87757e-05,4.64439e-05,2.5132e-05,-1.15582e-05
204,1.01316e-05,8.92118e-06,6.057e-05,4.12632e-05,2.72422e-05,-1.06709e-05
205,9.813e-06,-2.56311e-06,5.81485e-05,3.19339e-05,3.42683e-05,-1.02937e-05
206,1.31723e-05,-1.05353e-05,5.35836e-05,2.58712e-05,3.90946e-05,-1.06186e-05
207,1.5154e-05,-3.34948e-06,4.92175e-05,3.03926e-05,3.57801e-05,-9.18599e-06
208,1.26924e-05,1.18764e-05,4.92789e-05,4.04937e-05,2.47902e-05,-6.33435e-06
209,1.14932e-05,1.86992e-05,5.6438e-05,4.65296e-05,1.66841e-05,-4.95864e-06
210,1.29351e-05,1.12911e-05,6.27118e-05,4.63711e-05,1.82963e-05,-6.19417e-06
211,1.3963e-05,-8.87172e-06,6.29313e-05,4.03105e-05,2.1488e-05,-6.77097e-06
212,1.52515e-05,-2.44209e-05,6.11589e-05,3.35413e-05,1.9417e-05,-5.28643e-06
213,1.27852e-05,-1.85751e-05,6.16629e-05,3.53303e-05,1.44972e-05,-1.70224e-06
214,9.41778e-06,-5.41447e-06,6.38136e-05,3.89968e-05,1.02084e-05,1.53514e-06
215,9.08472e-06,-1.5374e-06,6.26119e-05,3.89637e-05,1.05651e-05,7.14704e-07
216,8.82815e-06,-1.50282e-06,5.66424e-05,4.05434e-05,1.03044e-05,-2.12337e-06
217,7.65075e-06,2.35126e-06,5.49819e-05,4.4062e-05,5.5189e-06,-5.98906e-06
218,7.96633e-06,6.48778e-06,6.06076e-05,4.64714e-05,3.95669e-06,-1.07921e-05
219,1.16092e-05,2.72389e-06,6.60004e-05,4.25066e-05,8.27572e-06,-1.32699e-05
220,1.5564e-05,-7.90574e-06,6.58408e-05,3.35673e-05,1.29175e-05,-1.41228e-05
221,1.46325e-05,-1.3025e-05,5.93279e-05,2.97072e-05,1.57562e-05,-1.52406e-05
222,9.27706e-06,-8.61494e-06,5.38517e-05,3.58421e-05,1.48339e-05,-1.56668e-05
223,4.89719e-06,-4.36484e-06,5.57656e-05,4.3318e-05,9.3673e-06,-1.6274e-05
224,6.10762e-06,-4.80699e-06,6.00513e-05,4.49081e-05,5.07351e-06,-1.80207e-05
225,1.05875e-05,-1.01243e-05,5.89335e-05,3.9973e-05,4.94412e-06,-2.16077e-05
226,1.20319e-05,-1.80421e-05,5.4037e-05,3.1858e-05,7.3948e-06,-2.4971e-05
227,1.04906e-05,-1.92712e-05,4.98277e-05,2.91437e-05,1.15597e-05,-2.50387e-05
228,8.83543e-06,-9.58545e-06,4.94591e-05,3.51226e-05,1.59007e-05,-2.26021e-05
229,6.30006e-06,8.83007e-07,5.10241e-05,4.15179e-05,1.64236e-05,-2.12324e-05
230,2.94599e-06,4.10963e-06,5.08186e-05,4.11972e-05,1.7089e-05,-2.26477e-05
231,1.69229e-06,1.22344e-06,5.0682e-05,3.74542e-05,2.24719e-05,-2.59233e-05
232,3.22799e-06,-6.98747e-06,5.34968e-05,3.39732e-05,2.89623e-05,-2.81677e-05
233,4.66287e-06,-1.29588e-05,5.5143e-05,3.38858e-05,3.13797e-05,-2.70021e-05
234,6.25058e-06,-6.61977e-06,5.48017e-05,3.77885e-05,2.9816e-05,-2.46848e-05
235,6.18639e-06,5.93273e-06,5.68878e-05,4.15822e-05,2.47604e-05,-2.1543e-05
236,4.42027e-06,1.15501e-05,6.06359e-05,4.25145e-05,2.14259e-05,-1.77342e-05
237,3.76895e-06,6.91762e-06,6.05706e-05,4.13607e-05,2.4399e-05,-1.59952e-05
238,2.47172e-06,-6.10419e-06,5.96535e-05,3.68768e-05,2.5323e-05,-1.56402e-05
239,4.89688e-06,-1.44297e-05,5.78802e-05,3.31095e-05,2.20906e-05,-1.64288e-05
240,9.435e-06,-7.43135e-06,5.6878e-05,3.67595e-05,2.1183e-05,-1.83011e-05
241,1.11018e-05,5.78817e-07,5.85296e-05,4.24661e-05,2.28196e-05,-1.93284e-05
242,1.13803e-05,1.31362e-06,5.49714e-05,4.42275e-05,2.66603e-05,-1.72065e-05
243,9.93733e-06,3.61847e-06,5.01149e-05,4.23253e-05,2.85002e-05,-1.29553e-05
244,5.62312e-06,7.94517e-06,4.86714e-05,3.82825e-05,2.39327e-05,-9.65433e-06
245,4.08706e-06,7.74385e-06,4.88722e-05,3.61767e-05,1.93102e-05,-8.47302e-06
246,6.95834e-06,-2.57887e-06,4.79819e-05,3.4174e-05,1.91495e-05,-9.16946e-06
247,1.00754e-05,-1.84458e-05,4.66653e-05,2.81518e-05,2.02725e-05,-9.61691e-06
248,1.21304e-05,-2.37897e-05,4.47333e-05,2.35082e-05,2.32651e-05,-9.22813e-06
249,1.3041e-05,-1.33375e-05,4.48179e-05,2.68581e-05,2.52857e-05,-7.6482e-06
250,1.26557e-05,-8.9953e-07,4.93101e-05,3.58088e-05,2.40491e-05,-6.36246e-06
251,1.36429e-05,2.09717e-06,5.48163e-05,4.34595e-05,2.43649e-05,-6.48793e-06
252,1.5085e-05,-6.37148e-06,5.69115e-05,4.3134e-05,2.6773e-05,-8.5203e-06
253,1.48329e-05,-1.92024e-05,5.4253e-05,3.62614e-05,2.54915e-05,-1.19423e-05
254,1.4703e-05,-2.43114e-05,4.84399e-05,3.31031e-05,2.16939e-05,-1.35356e-05
255,1.60496e-05,-1.77668e-05,4.47483e-05,3.83103e-05,2.22734e-05,-1.06471e-05
256,1.83582e-05,-9.6305e-06,4.94156e-05,4.41315e-05,2.53261e-05,-4.21393e-06
257,1.98677e-05,-8.20094e-06,5.67934e-05,4.36719e-05,3.00204e-05,1.77218e-06
258,1.9498e-05,-1.30262e-05,5.66957e-05,3.70911e-05,3.75868e-05,3.17572e-06
259,1.80702e-05,-2.18928e-05,5.20379e-05,2.70525e-05,4.17863e-05,3.6269e-07
260,1.86547e-05,-2.59075e-05,5.02962e-05,2.32559e-05,3.99053e-05,-2.02359e-06
261,2.04599e-05,-1.78066e-05,5.05395e-05,3.26568e-05,3.55827e-05,-4.95861e-07
262,2.02414e-05,-6.28174e-06,5.34717e-05,4.26769e-05,3.07949e-05,4.33284e-06
263,1.56623e-05,-2.84306e-06,5.77647e-05,4.26757e-05,2.58282e-05,7.08046e-06
264,1.12971e-05,-8.75709e-06,6.08495e-05,3.87007e-05,2.17754e-05,5.84603e-06
265,1.1209e-05,-2.14247e-05,5.988e-05,3.20702e-05,2.11329e-05,3.28153e-06
266,1.39676e-05,-2.93606e-05,5.61617e-05,2.75651e-05,2.40836e-05,1.32576e-06
267,1.51967e-05,-1.97564e-05,5.09464e-05,3.25587e-05,2.8102e-05,-1.41602e-06
268,1.70852e-05,-7.31116e-06,4.64092e-05,3.75106e-05,3.07814e-05,-6.19091e-06
269,2.27466e-05,-4.64885e-06,4.39215e-05,3.44828e-05,3.03799e-05,-1.04652e-05
270,2.79024e-05,-1.21593e-06,4.38428e-05,3.05178e-05,2.60413e-05,-1.68449e-05
271,2.82745e-05,2.71367e-06,4.62249e-05,2.86682e-05,2.2941e-05,-2.51141e-05
272,2.48479e-05,3.77168e-06,4.76183e-05,2.69979e-05,2.47841e-05,-3.07334e-05
273,1.92706e-05,-1.1331e-06,5.06757e-05,2.56949e-05,2.75571e-05,-3.42125e-05
274,1.54933e-05,-1.09856e-05,5.38079e-05,2.71842e-05,2.71063e-05,-3.3831e-05
275,1.54274e-05,-1.38584e-05,5.44279e-05,3.44735e-05,2.75411e-05,-3.01441e-05
276,1.43902e-05,-6.03704e-06,5.27803e-05,4.39414e-05,2.68808e-05,-2.49977e-05
277,9.3852e-06,1.62195e-06,5.32746e-05,4.73647e-05,2.27482e-05,-1.95497e-05
278,3.26687e-06,2.20746e-06,5.3134e-05,4.44384e-05,1.89529e-05,-1.60628e-05
279,6.16947e-07,-5.09976e-06,4.98853e-05,4.00447e-05,1.74617e-05,-1.64333e-05
280,2.52613e-06,-1.66757e-05,4.80518e-05,3.55666e-05,1.61155e-05,-1.71304e-05
281,5.80613e-06,-2.12658e-05,4.94593e-05,3.4029e-05,1.53244e-05,-1.40128e-05
282,7.02097e-06,-1.3802e-05,5.26211e-05,3.82325e-05,1.543e-05,-1.0253e-05
283,5.72409e-06,-4.28822e-06,5.53026e-05,4.33188e-05,1.40178e-05,-1.09485e-05
284,3.80728e-06,-2.52621e-06,5.69828e-05,4.35516e-05,1.27292e-05,-1.38454e-05
285,5.45634e-06,-8.02966e-06,5.72268e-05,3.85782e-05,1.42468e-05,-1.26838e-05
286,9.83734e-06,-1.76798e-05,5.51856e-05,3.11716e-05,1.66323e-05,-8.90469e-06
287,1.43494e-05,-2.25705e-05,5.06752e-05,2.8536e-05,1.54217e-05,-8.52805e-06
288,1.58955e-05,-1.50927e-05,4.78539e-05,3.61875e-05,1.11733e-05,-1.28421e-05
289,1.26129e-05,-2.81623e-06,5.01683e-05,4.73838e-05,6.06194e-06,-1.86416e-05
290,8.19968e-06,2.25406e-06,5.35995e-05,5.02885e-05,5.70349e-06,-2.28731e-05
291,8.53203e-06,-2.46229e-06,5.15716e-05,4.36028e-05,1.22402e-05,-2.33243e-05
292,1.25182e-05,-1.53862e-05,4.67338e-05,3.38965e-05,1.70896e-05,-2.08133e-05
293,1.43701e-05,-2.44852e-05,4.55951e-05,2.97459e-05,1.6749e-05,-1.57505e-05
294,1.28053e-05,-1.80366e-05,4.74932e-05,3.3926e-05,1.67247e-05,-1.22225e-05
295,1.10518e-05,-9.78188e-06,4.70806e-05,4.08432e-05,1.61182e-05,-1.01812e-05
296,1.11939e-05,-8.60856e-06,4.17365e-05,4.72613e-05,1.79772e-05,-7.60268e-06
297,1.27469e-05,-8.76257e-06,4.02538e-05,5.04156e-05,1.64891e-05,-4.32646e-06
298,1.28102e-05,-9.63924e-06,5.08764e-05,4.93332e-05,6.08882e-06,5.27852e-06
299,1.312e-05,-8.24984e-06,6.10846e-05,4.81647e-05,-6.6945e-06,2.07865e-05
300,1.45656e-05,-9.28714e-06,6.04075e-05,4.66937e-05,-1.28765e-05,3.15132e-05
301,1.27244e-05,-1.71002e-05,5.18389e-05,4.35408e-05,-1.30162e-05,2.87598e-05
302,8.33713e-06,-2.34974e-05,4.52371e-05,4.36103e-05,-1.55968e-05,1.59149e-05
303,6.28856e-06,-1.99641e-05,4.48905e-05,4.86706e-05,-2.22973e-05,3.13304e-06
304,6.32033e-06,-1.13083e-05,5.11542e-05,5.24055e-05,-2.77215e-05,-4.86647e-07
305,5.21048e-06,-5.62117e-06,5.92274e-05,5.16262e-05,-2.46093e-05,1.66641e-06
306,3.16811e-06,-8.62687e-06,6.2627e-05,4.59715e-05,-1.1501e-05,2.02943e-07
307,4.45877e-06,-1.85906e-05,6.06333e-05,3.62639e-05,5.80252e-06,-8.12635e-06
308,1.06486e-05,-2.2662e-05,5.6394e-05,3.0808e-05,2.07718e-05,-1.63035e-05
309,1.59905e-05,-1.41324e-05,5.21964e-05,3.60779e-05,3.22642e-05,-1.48411e-05
310,1.46558e-05,-2.53736e-06,5.11798e-05,4.49847e-05,3.63746e-05,-4.78289e-06
311,9.47412e-06,1.09741e-06,5.65374e-05,4.77378e-05,3.07813e-05,5.0685e-06
312,7.7752e-06,-4.37728e-06,6.11443e-05,4.39875e-05,2.01899e-05,8.51658e-06
313,1.04865e-05,-1.51976e-05,6.05591e-05,3.82193e-05,1.1806e-05,5.20591e-06
314,1.4738e-05,-1.90098e-05,5.51477e-05,3.71213e-05,4.77099e-06,-1.06172e-06
315,1.53896e-05,-8.80221e-06,4.67988e-05,4.35539e-05,-3.35842e-06,-3.74439e-06
316,1.22953e-05,3.8595e-06,4.2735e-05,4.97649e-05,-1.15379e-05,-2.50225e-06
317,9.13188e-06,7.77197e-06,4.86488e-05,4.6682e-05,-1.32421e-05,-1.42712e-06
318,6.80278e-06,4.36713e-06,5.74475e-05,3.64075e-05,-6.64117e-06,-3.19472e-06
319,7.72589e-06,-7.41392e-06,5.55381e-05,2.83577e-05,-5.00757e-06,-8.62839e-06
320,1.30519e-05,-1.88636e-05,4.82287e-05,2.82054e-05,-6.55272e-06,-1.41536e-05
321,1.83103e-05,-1.4076e-05,4.94731e-05,3.54457e-05,-2.63744e-06,-1.53906e-05
322,1.87292e-05,-3.35438e-06,5.48643e-05,4.25061e-05,3.5028e-06,-1.54561e-05
323,1.62637e-05,-1.24661e-06,5.54921e-05,4.42092e-05,8.46701e-06,-1.75341e-05
324,1.55583e-05,-2.43728e-06,5.13651e-05,4.14924e-05,5.19663e-06,-1.92581e-05
325,1.47241e-05,-2.68954e-06,5.13948e-05,3.84185e-05,-4.90337e-06,-1.55837e-05
326,1.32415e-05,-2.96457e-06,5.34588e-05,3.94227e-05,-1.20507e-05,-8.55487e-06
327,1.3031e-05,-7.87116e-06,5.36496e-05,4.02997e-05,-1.04437e-05,-6.04853e-06
328,1.1512e-05,-1.68308e-05,5.12581e-05,3.79174e-05,-4.06317e-06,-8.24531e-06
329,1.05133e-05,-1.83801e-05,4.75409e-05,3.70063e-05,6.10124e-07,-7.552e-06
330,1.23557e-05,-8.96494e-06,4.41977e-05,4.06264e-05,-7.06606e-07,-5.96297e-07
331,1.45117e-05,4.13893e-07,4.57815e-05,4.47245e-05,-6.57565e-06,6.7581e-06
332,1.35086e-05,3.36846e-06,5.25417e-05,4.5628e-05,-1.29461e-05,9.34681e-06
333,9.2285e-06,2.37721e-07,5.61954e-05,4.24079e-05,-1.6237e-05,6.9145e-06
334,7.37708e-06,-5.53062e-06,5.37432e-05,3.59184e-05,-1.60744e-05,2.45158e-06
335,1.01488e-05,-5.40221e-06,4.9041e-05,3.20908e-05,-1.45045e-05,6.63237e-07
336,1.2918e-05,4.2242e-06,4.68825e-05,3.60108e-05,-1.3032e-05,2.373e-06
337,1.30032e-05,1.42403e-05,4.96273e-05,4.22785e-05,-1.41862e-05,3.42346e-06
338,1.23372e-05,1.6746e-05,5.44167e-05,4.29108e-05,-1.28116e-05,1.14976e-06
339,1.19643e-05,1.2752e-05,5.40476e-05,3.75307e-05,-1.48404e-06,-2.21593e-06
340,1.40224e-05,2.896e-06,5.03912e-05,2.98683e-05,2.02547e-05,-4.73872e-06
341,1.82862e-05,-5.5211e-06,4.78798e-05,2.67696e-05,4.64339e-05,-5.85609e-06
342,1.82575e-05,-1.49437e-06,4.79652e-05,3.06616e-05,6.38376e-05,-6.28568e-06
343,1.20788e-05,1.00224e-05,4.97302e-05,3.43867e-05,6.41371e-05,-7.24773e-06
344,6.16349e-06,1.67771e-05,5.18379e-05,3.24843e-05,5.67272e-05,-7.15993e-06
345,6.12202e-06,1.41597e-05,5.3415e-05,2.79997e-05,5.11691e-05,-6.12308e-06
346,1.25739e-05,3.5203e-07,5.28659e-05,2.48742e-05,4.49461e-05,-4.96927e-06
347,1.91715e-05,-1.09538e-05,4.92403e-05,2.68453e-05,3.4929e-05,-5.94818e-06
348,2.03726e-05,-4.00226e-06,4.7108e-05,3.16262e-05,2.4846e-05,-9.37199e-06
349,1.86056e-05,6.28775e-06,4.85203e-05,3.3752e-05,1.76261e-05,-1.11322e-05
350,1.97876e-05,5.54075e-06,5.259e-05,3.65175e-05,1.7159e-05,-9.12972e-06
351,2.38881e-05,1.86339e-06,5.35027e-05,4.05459e-05,1.72257e-05,-5.61328e-06
352,2.78471e-05,-1.68201e-06,5.26634e-05,4.27898e-05,1.36539e-05,-1.75515e-06
353,3.03231e-05,-5.15646e-06,5.13994e-05,4.26561e-05,1.15884e-05,-5.99765e-07
354,2.81682e-05,-1.04985e-05,5.12007e-05,4.1454e-05,1.55283e-05,-5.8078e-06
355,2.28653e-05,-1.82287e-05,5.21767e-05,3.9225e-05,2.5086e-05,-1.40642e-05
356,1.96574e-05,-2.03555e-05,5.09846e-05,3.84459e-05,3.06387e-05,-1.9755e-05
357,1.94841e-05,-1.27192e-05,4.89188e-05,4.12817e-05,1.9723e-05,-2.13094e-05
358,1.83085e-05,-4.03069e-06,4.87869e-05,4.30981e-05,-5.29537e-07,-2.07791e-05
359,1.55728e-05,-2.27875e-06,4.80258e-05,4.16871e-05,-9.95792e-06,-1.94406e-05
360,1.2446e-05,-8.85519e-06,4.45007e-05,3.83863e-05,-3.65933e-06,-1.81016e-05
361,1.02116e-05,-1.95283e-05,4.44638e-05,3.46771e-05,5.35482e-06,-1.74919e-05
362,1.06296e-05,-2.50276e-05,4.83354e-05,3.28144e-05,6.51799e-06,-1.80222e-05
363,1.34654e-05,-2.0476e-05,5.21001e-05,3.52935e-05,1.77505e-06,-1.83459e-05
364,1.42172e-05,-1.12975e-05,5.35486e-05,3.93196e-05,-2.5629e-06,-1.63767e-05
365,1.06624e-05,-5.4297e-06,5.33409e-05,4.11693e-05,-1.57493e-06,-1.19752e-05
366,5.08698e-06,-7.36991e-06,5.23795e-05,3.8161e-05,1.19362e-06,-7.97669e-06
367,1.75086e-06,-1.84374e-05,5.29757e-05,3.00792e-05,1.58606e-06,-7.90269e-06
368,2.01962e-06,-2.70152e-05,5.14775e-05,2.48265e-05,2.9536e-06,-1.11189e-05
369,4.09746e-06,-2.26654e-05,4.53055e-05,3.10516e-05,7.17878e-06,-1.3292e-05
370,3.30496e-06,-1.2092e-05,4.04207e-05,4.25011e-05,1.054e-05,-1.32348e-05
371,-3.0848e-06,-5.53768e-06,4.53508e-05,4.6358e-05,1.375e-05,-1.24401e-05
372,-8.86718e-06,-7.05125e-06,5.51615e-05,4.20204e-05,1.96409e-05,-1.06194e-05
373,-6.05712e-06,-1.97758e-05,5.82321e-05,3.25943e-05,2.64087e-05,-8.76549e-06
374,1.71115e-06,-3.03198e-05,5.75964e-05,2.50503e-05,2.90201e-05,-9.44388e-06
375,5.1239e-06,-2.14527e-05,6.02999e-05,3.02999e-05,2.52474e-05,-1.14028e-05
376,6.31451e-06,-5.65023e-06,5.97872e-05,3.91136e-05,1.94168e-05,-1.13629e-05
377,7.09785e-06,5.03027e-07,5.30548e-05,3.98952e-05,1.80113e-05,-9.51884e-06
378,9.29019e-06,1.8093e-06,4.77045e-05,3.6038e-05,1.73566e-05,-9.09801e-06
379,9.26025e-06,3.76471e-06,4.77877e-05,3.20898e-05,1.5895e-05,-1.25911e-05
380,7.34262e-06,3.99273e-06,4.96161e-05,3.15144e-05,1.60034e-05,-1.54863e-05
381,7.18874e-06,-2.39029e-06,5.19037e-05,3.07884e-05,1.87258e-05,-1.31024e-05
382,8.83376e-06,-1.53655e-05,5.47905e-05,2.58418e-05,1.96611e-05,-8.44681e-06
383,1.23186e-05,-2.13277e-05,5.3921e-05,2.43529e-05,1.70316e-05,-5.94398e-06
384,1.64797e-05,-1.21256e-05,4.86639e-05,3.37447e-05,1.16396e-05,-5.93528e-06
385,1.96726e-05,1.38974e-06,4.64016e-05,4.40699e-05,5.31542e-06,-7.45181e-06
386,2.00568e-05,7.89269e-06,4.88701e-05,4.52183e-05,3.4726e-06,-9.69443e-06
387,1.86093e-05,3.83943e-06,5.06873e-05,3.83995e-05,9.19377e-06,-1.14618e-05
388,1.62028e-05,-6.53467e-06,4.93277e-05,3.15737e-05,1.717e-05,-1.23501e-05
389,1.48391e-05,-1.12397e-05,4.46381e-05,3.27596e-05,1.97594e-05,-1.20098e-05
390,1.50843e-05,-3.68835e-06,3.90049e-05,4.19322e-05,1.52645e-05,-1.15009e-05
391,1.48366e-05,7.17862e-06,3.78091e-05,5.05075e-05,5.17079e-06,-1.02203e-05
392,1.3961e-05,1.03408e-05,4.16683e-05,5.15978e-05,-9.02638e-07,-7.94141e-06
393,1.66004e-05,2.61608e-06,4.42986e-05,4.60154e-05,1.87061e-06,-6.51516e-06
394,2.01266e-05,-1.17905e-05,4.50035e-05,3.82951e-05,5.39578e-06,-6.90403e-06
395,1.9904e-05,-1.99039e-05,4.49021e-05,3.56392e-05,3.76713e-06,-8.26732e-06
396,1.87539e-05,-1.22154e-05,4.31504e-05,4.22312e-05,-2.22262e-06,-8.04444e-06
397,1.64216e-05,8.334e-07,4.36866e-05,5.13375e-05,-6.94561e-06,-5.126e-06
398,1.1428e-05,5.96736e-06,4.8794e-05,5.33318e-05,-3.56303e-06,-3.03934e-06
399,1.1024e-05,2.96703e-06,5.26277e-05,4.85229e-05,5.19733e-06,-4.81388e-06
400,1.32321e-05,-9.53569e-06,5.34918e-05,4.05676e-05,1.22799e-05,-9.1151e-06
401,1.30883e-05,-2.15474e-05,5.68769e-05,3.57962e-05,1.31044e-05,-1.25559e-05
402,1.01084e-05,-1.5096e-05,6.19166e-05,3.68134e-05,1.31144e-05,-1.24783e-05
403,7.3768e-06,-6.41462e-07,6.18995e-05,3.59773e-05,1.2262e-05,-1.18944e-05
404,7.81374e-06,5.35409e-06,5.6706e-05,3.50432e-05,9.13342e-06,-1.29816e-05
405,8.92983e-06,7.04794e-06,5.19727e-05,4.01573e-05,4.94903e-06,-1.60472e-05
406,9.02371e-06,8.5998e-06,5.328e-05,4.57496e-05,9.55252e-07,-1.91379e-05
407,8.7108e-06,7.83561e-06,5.45402e-05,4.65784e-05,-1.9229e-07,-1.80207e-05
408,8.93537e-06,9.98511e-08,5.47047e-05,4.21263e-05,1.95396e-06,-1.22906e-05
409,7.93983e-06,-1.21498e-05,5.50544e-05,3.42211e-05,3.8219e-06,-5.67709e-06
410,7.87431e-06,-1.53237e-05,5.3875e-05,2.96204e-05,4.58092e-06,-1.90128e-06
411,8.23625e-06,-4.23645e-06,5.22967e-05,3.26897e-05,4.35265e-06,-1.38857e-06
412,5.61881e-06,6.99252e-06,5.37628e-05,3.77831e-05,2.43594e-06,-2.98494e-06
413,2.58475e-06,8.74065e-06,5.79813e-05,4.02176e-05,3.42295e-06,-4.53899e-06
414,2.05213e-06,-1.00978e-07,5.89643e-05,3.79227e-05,1.10123e-05,-7.56729e-06
415,3.16639e-06,-1.50321e-05,5.16473e-05,3.15353e-05,2.10778e-05,-1.39096e-05
416,5.43602e-06,-2.24812e-05,3.94642e-05,2.83175e-05,2.5749e-05,-2.07571e-05
417,8.2884e-06,-1.5455e-05,3.44342e-05,3.27419e-05,2.37316e-05,-2.47904e-05
418,9.59508e-06,-4.82013e-06,4.1334e-05,3.9744e-05,1.91874e-05,-2.63261e-05
419,8.62855e-06,-2.51021e-06,5.22061e-05,4.31764e-05,1.87741e-05,-2.53837e-05
420,7.21761e-06,-9.41676e-06,5.67231e-05,4.17549e-05,2.20941e-05,-2.24944e-05
421,7.0953e-06,-2.16714e-05,5.63602e-05,3.58066e-05,2.3914e-05,-2.0102e-05
422,1.08828e-05,-2.84977e-05,5.31307e-05,3.14145e-05,2.40703e-05,-1.78422e-05
423,1.72102e-05,-2.13446e-05,5.03772e-05,3.42285e-05,2.29336e-05,-1.36524e-05
424,2.00158e-05,-7.01639e-06,5.36752e-05,4.04227e-05,1.87432e-05,-7.85628e-06
425,1.7393e-05,1.32842e-06,5.94023e-05,4.38731e-05,1.71392e-05,-3.78706e-06
426,1.32972e-05,-6.45981e-07,6.21867e-05,4.28289e-05,2.06163e-05,-3.92867e-06
427,1.08702e-05,-1.17219e-05,6.0102e-05,3.33072e-05,2.35436e-05,-8.00421e-06
428,1.10646e-05,-1.96404e-05,5.42845e-05,2.18333e-05,2.34893e-05,-1.15312e-05
429,1.43159e-05,-1.11788e-05,5.22812e-05,2.26221e-05,2.52969e-05,-1.12997e-05
430,1.7339e-05,-2.48137e-07,5.35256e-05,2.96278e-05,2.83359e-05,-9.26853e-06
431,1.70427e-05,2.46981e-06,5.54167e-05,3.3525e-05,3.1316e-05,-6.34087e-06
432,1.56868e-05,5.28225e-06,5.63941e-05,3.45484e-05,3.48355e-05,-1.23771e-06
433,1.51519e-05,9.25483e-06,5.78021e-05,3.48644e-05,3.83237e-05,1.9495e-06
434,1.47679e-05,1.08071e-05,5.99302e-05,3.49455e-05,4.25995e-05,-1.06857e-06
435,1.41227e-05,3.27628e-06,6.27592e-05,3.19628e-05,4.59508e-05,-7.46909e-06
436,1.44191e-05,-1.17745e-05,6.29804e-05,2.62682e-05,4.27178e-05,-1.28315e-05
437,1.57628e-05,-1.82776e-05,5.59874e-05,2.61647e-05,3.52232e-05,-1.56373e-05
438,1.62541e-05,-8.70489e-06,4.69192e-05,3.54487e-05,2.8275e-05,-1.6607e-05
439,1.67447e-05,3.50078e-06,4.29182e-05,4.41033e-05,2.14621e-05,-1.79811e-05
440,1.89703e-05,6.87497e-06,4.47972e-05,4.61553e-05,1.72022e-05,-1.91866e-05
441,2.19398e-05,7.49243e-07,4.7138e-05,4.30022e-05,1.57816e-05,-1.78865e-05
442,2.36339e-05,-8.30942e-06,4.56116e-05,3.69342e-05,1.59802e-05,-1.46034e-05
443,2.20929e-05,-9.75413e-06,3.87651e-05,3.34478e-05,1.87084e-05,-1.12607e-05
444,1.89342e-05,-1.78004e-06,3.46209e-05,3.68649e-05,2.29974e-05,-8.80167e-06
445,1.74116e-05,5.00294e-06,4.07699e-05,4.14653e-05,2.39791e-05,-8.51609e-06
446,1.95073e-05,3.24267e-06,5.21921e-05,4.14764e-05,2.24945e-05,-1.08978e-05
447,2.30274e-05,-5.37007e-06,5.86256e-05,3.75084e-05,2.14918e-05,-1.24668e-05
448,2.21917e-05,-1.70432e-05,5.99277e-05,3.18763e-05,2.39931e-05,-9.97351e-06
449,1.5795e-05,-2.2225e-05,5.93244e-05,3.01926e-05,3.02698e-05,-4.86925e-06
450,1.17758e-05,-1.46418e-05,5.78272e-05,3.63082e-05,3.49314e-05,-2.07984e-06
451,1.48227e-05,-3.9481e-06,5.73034e-05,4.33377e-05,3.3586e-05,-2.96679e-06
452,1.94097e-05,-2.82609e-06,5.74881e-05,4.52747e-05,3.19125e-05,-5.30318e-06
453,2.16578e-05,-1.09079e-05,5.80681e-05,4.31584e-05,3.59136e-05,-7.71087e-06
454,1.89445e-05,-2.48712e-05,5.83129e-05,3.62017e-05,3.19677e-05,-1.0053e-05
455,1.39456e-05,-3.32067e-05,5.77176e-05,2.92215e-05,1.88824e-05,-1.11175e-05
456,1.23429e-05,-2.39989e-05,5.8478e-05,3.22534e-05,9.42499e-06,-9.17158e-06
457,1.44109e-05,-1.18943e-05,5.85206e-05,3.99661e-05,3.51027e-06,-6.55997e-06
458,1.56335e-05,-1.01753e-05,5.46179e-05,4.23139e-05,-2.84401e-08,-6.09319e-06
459,1.38222e-05,-1.04737e-05,4.96856e-05,4.45098e-05,-3.45489e-06,-8.2039e-06
460,9.20441e-06,-8.03755e-06,4.96614e-05,4.81414e-05,-5.46884e-06,-9.82177e-06
461,4.62872e-06,-5.57676e-06,5.37182e-05,4.99747e-05,-1.89668e-06,-6.93094e-06
462,4.02888e-06,-1.14204e-05,5.78289e-05,4.81432e-05,7.05143e-06,-2.34145e-06
463,7.39179e-06,-2.54504e-05,5.75518e-05,4.26289e-05,1.41414e-05,-1.46789e-07
464,1.17007e-05,-3.19541e-05,5.23021e-05,3.94751e-05,1.76107e-05,-1.17261e-06
465,1.34119e-05,-2.32051e-05,4.88654e-05,4.07495e-05,1.9057e-05,-3.92894e-06
466,1.34378e-05,-1.08727e-05,5.44364e-05,4.24974e-05,2.35415e-05,-6.76388e-06
467,1.34542e-05,-5.13835e-06,6.44322e-05,4.27698e-05,3.366e-05,-8.15952e-06
468,1.14456e-05,-9.11565e-06,7.06879e-05,4.0087e-05,4.44646e-05,-7.01142e-06
469,7.52347e-06,-2.0147e-05,7.14819e-05,3.58732e-05,4.95354e-05,-4.25541e-06
470,6.40657e-06,-2.59055e-05,6.7591e-05,3.65232e-05,4.72879e-05,-1.7475e-06
471,8.97139e-06,-1.99233e-05,6.25669e-05,4.22556e-05,4.08695e-05,6.38664e-07
472,1.11685e-05,-9.89138e-06,6.09077e-05,4.46812e-05,3.29304e-05,3.94738e-06
473,1.21607e-05,-4.17417e-06,6.55539e-05,4.15431e-05,2.67452e-05,6.81456e-06
474,1.25545e-05,-4.76296e-06,7.21051e-05,3.53896e-05,2.12419e-05,7.48973e-06
475,1.26693e-05,-1.11684e-05,7.28065e-05,2.60665e-05,1.23588e-05,6.6867e-06
476,1.28775e-05,-1.53658e-05,6.69001e-05,2.00974e-05,-2.30782e-06,5.94861e-06
477,1.12668e-05,-1.00727e-05,6.01948e-05,2.51756e-05,-1.70575e-05,5.08093e-06
478,8.86113e-06,-1.50194e-06,5.78171e-05,3.63425e-05,-3.20962e-05,4.98231e-06
479,7.28387e-06,2.08375e-06,5.65089e-05,4.21127e-05,-4.05016e-05,8.06988e-06
480,8.00897e-06,-1.06059e-06,5.14955e-05,3.83944e-05,-3.18732e-05,1.2706e-05
481,1.22708e-05,-1.2994e-05,4.78438e-05,2.88053e-05,-1.40138e-05,1.29025e-05
482,1.60545e-05,-2.19546e-05,4.75887e-05,2.298e-05,1.42476e-06,8.20142e-06
483,1.51921e-05,-1.19461e-05,5.0526e-05,2.86106e-05,1.1142e-05,4.86923e-06
484,1.18724e-05,1.45287e-06,5.3186e-05,3.85248e-05,1.37396e-05,4.03517e-06
485,1.13864e-05,1.10973e-06,5.32222e-05,4.48151e-05,1.50396e-05,3.31013e-06
486,1.23951e-05,-2.8475e-06,5.17196e-05,4.77594e-05,1.98437e-05,3.39482e-06
487,9.57579e-06,-2.67744e-06,5.21632e-05,4.82685e-05,2.08931e-05,4.14185e-06
488,4.45072e-06,-2.03931e-07,5.23531e-05,4.55976e-05,1.88962e-05,5.11697e-06
489,1.56271e-06,-3.40413e-06,5.09952e-05,3.94398e-05,1.734e-05,6.21863e-06
490,4.6352e-06,-1.35437e-05,5.06684e-05,3.47024e-05,1.30427e-05,8.33423e-06
491,1.11626e-05,-1.74992e-05,4.88679e-05,3.68264e-05,6.80437e-06,1.04817e-05
492,1.47111e-05,-8.39524e-06,4.69809e-05,4.42413e-05,1.45378e-06,1.01501e-05
493,1.2268e-05,2.44938e-06,4.89052e-05,5.02278e-05,-1.84879e-06,5.48498e-06
494,7.16659e-06,5.21892e-06,5.39512e-05,4.9961e-05,-4.00931e-06,-2.97676e-06
495,4.4114e-06,-1.94164e-07,5.69977e-05,4.17201e-05,-3.98584e-06,-1.11794e-05
496,5.88045e-06,-8.79782e-06,5.5319e-05,3.01397e-05,-2.02083e-06,-1.6059e-05
497,9.22874e-06,-1.1653e-05,4.92002e-05,2.52991e-05,2.31686e-07,-1.66819e-05
498,1.16907e-05,-4.40683e-06,4.33377e-05,3.01779e-05,5.25193e-07,-1.49136e-05
499,1.26043e-05,7.03509e-06,4.31561e-05,3.51154e-05,-5.87835e-07,-1.42534e-05
500,1.33479e-05,1.34742e-05,4.69805e-05,3.33014e-05,2.15691e-06,-1.70519e-05
501,1.478e-05,9.44e-06,4.73603e-05,2.75059e-05,8.08117e-06,-2.29115e-05
502,1.32564e-05,-3.51052e-06,4.63029e-05,2.01711e-05,1.10786e-05,-2.57787e-05
503,1.02957e-05,-1.0682e-05,4.69531e-05,1.62834e-05,8.42294e-06,-1.54005e-05
504,1.22158e-05,-2.3775e-06,4.60551e-05,2.31649e-05,4.29384e-06,5.93169e-06
505,1.49418e-05,1.08866e-05,4.33114e-05,3.45281e-05,2.12997e-06,1.83614e-05
506,1.41762e-05,1.64363e-05,4.25096e-05,4.06504e-05,2.64363e-06,9.42931e-06
507,1.41697e-05,1.33132e-05,4.517e-05,4.07575e-05,6.55116e-06,-9.40554e-06
508,1.47486e-05,8.92526e-07,4.61786e-05,3.52049e-05,9.17886e-06,-2.16238e-05
509,1.40874e-05,-1.06072e-05,4.47068e-05,3.1752e-05,1.0844e-05,-2.53305e-05
510,1.04377e-05,-5.87446e-06,4.32694e-05,3.7249e-05,1.3281e-05,-2.45489e-05
511,8.21186e-06,3.76885e-06,4.5039e-05,4.32761e-05,1.40388e-05,-2.32414e-05
512,1.29372e-05,6.86245e-06,4.60764e-05,4.34968e-05,1.25544e-05,-2.0796e-05
513,1.91979e-05,9.63286e-06,4.50429e-05,3.98666e-05,7.71442e-06,-1.51216e-05
514,1.86845e-05,1.13918e-05,4.61173e-05,3.65823e-05,5.57001e-06,-8.68278e-06
515,1.34822e-05,1.08267e-05,4.59429e-05,3.78898e-05,1.3273e-05,-8.93462e-07
516,9.9804e-06,4.17352e-06,4.62829e-05,3.79065e-05,2.68906e-05,4.3305e-06
517,1.1984e-05,-9.2726e-06,4.63911e-05,3.23324e-05,3.17217e-05,3.32672e-06
518,1.68646e-05,-1.54056e-05,4.38013e-05,2.95638e-05,2.16749e-05,-4.42344e-07
519,1.88988e-05,-7.24158e-06,3.90107e-05,3.64521e-05,-4.13682e-07,-3.62946e-06
520,1.43693e-05,2.59616e-06,3.94129e-05,4.6294e-05,-1.99921e-05,-5.34525e-06
521,9.31939e-06,3.58008e-06,4.38623e-05,5.14236e-05,-2.34299e-05,-4.82265e-06
522,8.93417e-06,-4.99537e-06,4.54597e-05,4.77802e-05,-1.36281e-05,-3.86755e-06
523,1.18497e-05,-1.6301e-05,4.29457e-05,3.63995e-05,-2.65278e-06,-5.78743e-06
524,1.494e-05,-1.868e-05,3.83536e-05,2.88027e-05,6.69217e-06,-9.55297e-06
525,1.5232e-05,-9.42244e-06,3.51633e-05,3.3774e-05,1.83023e-05,-1.17763e-05
526,1.21723e-05,1.69197e-06,3.55911e-05,4.36677e-05,3.16941e-05,-1.20396e-05
527,6.74026e-06,4.16635e-06,3.66883e-05,4.61419e-05,4.79406e-05,-1.24059e-05
528,4.01024e-06,-4.65859e-06,3.69656e-05,3.96418e-05,6.41678e-05,-1.34636e-05
529,6.06491e-06,-1.95742e-05,4.02483e-05,3.02662e-05,7.14721e-05,-1.59879e-05
530,1.05879e-05,-2.60067e-05,4.48603e-05,2.67436e-05,6.63843e-05,-1.8835e-05
531,1.35063e-05,-1.64217e-05,4.71609e-05,3.14204e-05,5.11534e-05,-1.78865e-05
532,1.18931e-05,-9.20977e-07,4.77454e-05,3.71589e-05,3.22864e-05,-1.19435e-05
533,9.23409e-06,5.33454e-06,5.07591e-05,3.95425e-05,2.49163e-05,-6.4389e-06
534,9.68867e-06,-3.4189e-06,5.28612e-05,4.02835e-05,2.88491e-05,-6.78437e-06
535,1.0142e-05,-2.2644e-05,5.39674e-05,3.76034e-05,2.88648e-05,-1.33355e-05
536,1.1175e-05,-3.54654e-05,5.71434e-05,3.44728e-05,2.43094e-05,-2.1353e-05
537,1.07434e-05,-2.75712e-05,6.03318e-05,3.73239e-05,2.00205e-05,-2.81495e-05
538,1.03671e-05,-1.29044e-05,5.89056e-05,4.22411e-05,1.52063e-05,-3.18944e-05
539,1.36283e-05,-8.44911e-06,5.37679e-05,4.5297e-05,1.05496e-05,-3.02417e-05
540,1.71274e-05,-9.53314e-06,4.91067e-05,4.66485e-05,6.064e-06,-2.57699e-05
541,1.59878e-05,-9.08763e-06,5.29265e-05,4.69257e-05,6.36834e-06,-2.14278e-05
542,1.38413e-05,-7.35175e-06,5.94416e-05,5.03943e-05,1.01929e-05,-1.98e-05
543,1.41751e-05,-1.22077e-05,6.17786e-05,5.17228e-05,1.24273e-05,-2.02576e-05
544,1.57519e-05,-2.42538e-05,6.09222e-05,4.48317e-05,9.74108e-06,-1.83385e-05
545,1.82886e-05,-2.84499e-05,5.65052e-05,3.82646e-05,5.08215e-06,-1.44917e-05
546,2.14161e-05,-1.81866e-05,5.15327e-05,3.94453e-05,-2.27183e-06,-1.28132e-05
547,2.21437e-05,-6.73172e-06,5.28021e-05,4.41797e-05,-1.02351e-05,-1.40396e-05
548,1.89743e-05,-4.73321e-06,5.91959e-05,4.5598e-05,-1.18111e-05,-1.43156e-05
549,1.52304e-05,-1.28247e-05,6.28661e-05,4.14517e-05,-8.65232e-06,-1.193e-05
550,1.38932e-05,-2.47806e-05,6.27351e-05,3.54412e-05,-9.26059e-06,-9.48779e-06
551,1.50529e-05,-2.79335e-05,6.05845e-05,3.44986e-05,-1.41059e-05,-9.23728e-06
552,1.48003e-05,-1.75793e-05,5.92668e-05,3.91808e-05,-1.62134e-05,-1.05046e-05
553,1.17468e-05,-6.07093e-06,5.85125e-05,4.38128e-05,-1.60348e-05,-9.71169e-06
554,7.82903e-06,-5.33526e-06,5.7404e-05,4.5235e-05,-1.34953e-05,-5.78891e-06
555,5.86343e-06,-1.40656e-05,5.56135e-05,4.2601e-05,-8.5903e-06,-2.10365e-06
556,7.15555e-06,-2.5795e-05,5.66499e-05,3.53536e-05,-6.07061e-06,-8.47432e-07
557,9.49594e-06,-2.92427e-05,5.57876e-05,2.95843e-05,-6.69307e-06,-2.08036e-06
558,9.90249e-06,-1.87101e-05,5.05399e-05,3.216e-05,-3.67831e-06,-6.41232e-06
559,7.363e-06,-6.27182e-06,4.84336e-05,3.83906e-05,4.42823e-07,-1.16124e-05
560,5.56125e-06,-3.05143e-06,5.28982e-05,4.05508e-05,6.50454e-06,-1.19637e-05
561,9.31189e-06,-5.78453e-06,6.05472e-05,3.80927e-05,2.39128e-05,-7.92176e-06
562,1.29471e-05,-1.28965e-05,5.83691e-05,3.17828e-05,4.16743e-05,-7.78702e-06
563,1.47068e-05,-1.87631e-05,4.88212e-05,2.69992e-05,4.51149e-05,-1.2799e-05
564,1.46968e-05,-1.26265e-05,4.55861e-05,3.18508e-05,3.73153e-05,-1.64609e-05
565,1.43686e-05,-1.88319e-06,4.68041e-05,3.97374e-05,2.75082e-05,-1.60206e-05
566,1.6679e-05,1.69121e-06,4.8921e-05,4.13035e-05,2.37726e-05,-1.71746e-05
567,1.67953e-05,1.19207e-06,4.88277e-05,3.9994e-05,2.07284e-05,-2.11369e-05
568,1.17409e-05,1.3313e-06,5.01787e-05,3.94798e-05,1.52414e-05,-1.93006e-05
569,7.09713e-06,1.51951e-06,5.33558e-05,4.03711e-05,1.10818e-05,-1.04445e-05
570,7.00233e-06,-5.36103e-06,5.71462e-05,3.82751e-05,1.26602e-05,-1.58493e-06
571,8.56067e-06,-1.74471e-05,5.89412e-05,3.18866e-05,1.66918e-05,2.43756e-06
572,8.85355e-06,-1.79555e-05,5.52624e-05,2.96468e-05,1.75655e-05,3.70829e-07
573,7.81798e-06,-3.71885e-06,4.91515e-05,3.48172e-05,1.40439e-05,-5.91945e-06
574,5.5618e-06,8.85213e-06,4.87309e-05,4.16928e-05,1.0847e-05,-1.23204e-05
575,2.88448e-06,1.11728e-05,5.59427e-05,4.32821e-05,1.35888e-05,-1.69633e-05
576,6.71438e-07,4.8168e-06,6.37025e-05,3.76211e-05,1.98707e-05,-2.17117e-05
577,1.39506e-07,-6.35475e-06,6.83093e-05,3.11575e-05,2.11796e-05,-2.85263e-05
578,1.93189e-06,-1.21468e-05,6.67642e-05,3.23531e-05,1.43824e-05,-3.6166e-05
579,5.41592e-06,-6.30382e-06,6.03491e-05,3.99106e-05,8.78704e-06,-4.11025e-05
580,8.53572e-06,4.02762e-06,5.59466e-05,4.49451e-05,1.43828e-05,-4.03052e-05
581,9.15239e-06,9.07802e-06,5.69823e-05,4.41773e-05,2.93115e-05,-3.41156e-05
582,9.91229e-06,5.78093e-06,5.70894e-05,4.16205e-05,4.30827e-05,-2.654e-05
583,1.31439e-05,-3.67219e-06,5.49794e-05,3.96208e-05,5.28367e-05,-2.16505e-05
584,1.79642e-05,-8.67459e-06,5.12111e-05,3.9442e-05,5.92407e-05,-2.09753e-05
585,2.03356e-05,-1.25434e-06,4.49357e-05,4.4039e-05,5.88766e-05,-2.1252e-05
586,1.8846e-05,8.0377e-06,4.28971e-05,5.02348e-05,4.5719e-05,-1.40689e-05
587,1.6064e-05,7.57079e-06,4.94233e-05,5.12049e-05,3.17338e-05,7.62162e-07
588,1.51103e-05,9.90809e-07,5.41716e-05,4.83315e-05,2.80218e-05,1.19221e-05
589,1.32888e-05,-9.63757e-06,4.9766e-05,4.15039e-05,2.60771e-05,1.19914e-05
590,1.22047e-05,-1.67617e-05,4.54561e-05,3.25498e-05,2.20171e-05,4.10259e-06
591,1.39035e-05,-8.1569e-06,4.8884e-05,2.9917e-05,1.62863e-05,-2.56176e-06
592,1.31248e-05,3.82756e-06,5.28155e-05,3.385e-05,-2.68472e-07,-4.19598e-06
593,1.27809e-05,7.53792e-06,5.27961e-05,3.93622e-05,-2.26326e-05,-3.32558e-06
594,1.46873e-05,9.26554e-06,5.04889e-05,4.13501e-05,-3.1067e-05,-5.1931e-06
595,1.67552e-05,1.02956e-05,5.01447e-05,3.95083e-05,-2.07189e-05,-9.52349e-06
596,1.94621e-05,8.88856e-06,5.29198e-05,3.872e-05,-2.20931e-06,-9.80821e-06
597,2.03591e-05,1.88444e-06,5.67995e-05,3.7171e-05,1.13864e-05,-6.26448e-06
598,1.78509e-05,-9.48805e-06,5.81308e-05,3.3121e-05,1.41041e-05,-2.50953e-06
599,1.4714e-05,-1.38842e-05,5.45713e-05,3.46295e-05,9.21031e-06,-1.56408e-06
600,1.27319e-05,-7.45009e-06,5.06721e-05,4.23796e-05,2.51873e-06,-5.54017e-06
601,1.22289e-05,2.24962e-06,5.14401e-05,4.65204e-05,-4.71384e-08,-1.29007e-05
602,1.39517e-05,8.16889e-06,5.4946e-05,4.35486e-05,5.25026e-06,-1.96475e-05
603,1.68049e-05,4.18263e-06,5.66177e-05,3.74679e-05,1.40909e-05,-2.20689e-05
604,1.90501e-05,-7.00644e-06,5.71576e-05,3.29649e-05,1.77688e-05,-1.89634e-05
605,2.00752e-05,-1.28716e-05,5.66182e-05,3.31404e-05,1.50107e-05,-1.40241e-05
606,1.87302e-05,-8.57789e-06,5.49822e-05,3.68605e-05,1.06494e-05,-1.15884e-05
607,1.43092e-05,-2.20736e-06,5.47004e-05,3.90866e-05,7.84616e-06,-1.08796e-05
608,9.43241e-06,-5.65124e-07,5.62979e-05,3.67358e-05,1.08373e-05,-9.42642e-06
609,6.82229e-06,-4.86279e-06,5.52736e-05,3.07108e-05,2.02273e-05,-7.47879e-06
610,6.94002e-06,-1.39476e-05,5.2633e-05,2.48425e-05,2.72237e-05,-6.04919e-06
611,8.9912e-06,-1.986e-05,5.05701e-05,2.56313e-05,2.81664e-05,-5.06202e-06
612,1.19353e-05,-1.58938e-05,4.77689e-05,3.3058e-05,3.42274e-05,-5.2995e-06
613,1.18053e-05,-8.42047e-06,4.91021e-05,3.89343e-05,4.35025e-05,-5.85822e-06
614,7.05596e-06,-4.66266e-06,5.48063e-05,4.17596e-05,5.0748e-05,-5.37434e-06
615,3.26026e-06,-5.9875e-06,5.78997e-05,4.30437e-05,5.85108e-05,-5.40517e-06
616,5.23158e-06,-1.63387e-05,5.47465e-05,4.07619e-05,5.51619e-05,-8.90382e-06
617,1.02272e-05,-2.55519e-05,4.6805e-05,3.62226e-05,4.62058e-05,-1.39849e-05
618,1.28723e-05,-1.77627e-05,4.3994e-05,3.62328e-05,4.26126e-05,-1.33655e-05
619,1.23633e-05,-6.79899e-06,4.66308e-05,3.93406e-05,3.88312e-05,-8.77101e-06
620,1.09154e-05,-5.99153e-06,4.71738e-05,4.1736e-05,2.95915e-05,-6.60225e-06
621,7.26378e-06,-5.91347e-06,4.54642e-05,4.51541e-05,1.07115e-05,-6.88485e-06
622,2.18021e-06,-2.75225e-06,4.70652e-05,4.71293e-05,-1.17732e-05,-4.82542e-06
623,6.00678e-07,1.15077e-06,5.23649e-05,4.56791e-05,-2.00277e-05,-7.03184e-07
624,2.40255e-06,-1.28048e-06,5.58979e-05,3.9788e-05,-1.08633e-05,-1.12725e-06
625,5.59019e-06,-1.19873e-05,5.36084e-05,3.29703e-05,-9.37935e-07,-5.47675e-06
626,8.45411e-06,-1.71072e-05,4.66525e-05,3.18224e-05,4.77586e-06,-8.52275e-06
627,1.08863e-05,-8.65675e-06,4.2222e-05,3.8086e-05,7.8261e-06,-7.79912e-06
628,1.2683e-05,1.09698e-06,4.59097e-05,4.65013e-05,9.79966e-06,-6.62826e-06
629,1.47358e-05,2.29947e-06,5.4287e-05,5.18055e-05,1.12626e-05,-8.73476e-06
630,1.65302e-05,-5.27891e-06,5.78228e-05,4.88227e-05,1.19466e-05,-1.1905e-05
631,1.75413e-05,-1.69118e-05,5.34421e-05,3.86698e-05,8.99343e-06,-1.20674e-05
632,1.87697e-05,-2.17091e-05,4.69863e-05,3.28724e-05,2.92815e-06,-9.23819e-06
633,2.02547e-05,-1.34622e-05,4.63113e-05,3.59374e-05,-4.08095e-06,-6.56882e-06
634,1.93965e-05,-1.57186e-06,5.18097e-05,4.04988e-05,-8.02681e-06,-7.18469e-06
635,1.56235e-05,1.85946e-06,5.54445e-05,4.13019e-05,-2.05187e-06,-1.0258e-05
636,1.19882e-05,-4.69086e-06,5.56799e-05,3.85403e-05,1.28615e-05,-1.1386e-05
637,1.11115e-05,-1.71147e-05,5.89067e-05,3.33244e-05,2.71706e-05,-8.84625e-06
638,1.46669e-05,-2.46299e-05,5.96944e-05,3.17754e-05,3.19888e-05,-6.98167e-06
639,1.87788e-05,-1.92051e-05,5.25653e-05,3.67868e-05,2.75954e-05,-9.68148e-06
640,1.79925e-05,-9.47786e-06,4.77509e-05,4.15735e-05,1.72785e-05,-1.37401e-05
641,1.20486e-05,-7.18819e-06,4.87713e-05,4.1853e-05,9.62945e-06,-1.54596e-05
642,1.00854e-05,-1.1663e-05,5.01877e-05,3.76005e-05,1.2175e-05,-1.49449e-05
643,1.20707e-05,-2.1174e-05,4.94496e-05,2.83507e-05,1.93897e-05,-1.46105e-05
644,1.144e-05,-2.41578e-05,4.70773e-05,2.25004e-05,1.92003e-05,-1.45918e-05
645,8.91333e-06,-8.30548e-06,4.78446e-05,2.72871e-05,1.12125e-05,-1.25528e-05
646,7.0048e-06,6.39779e-06,4.97928e-05,3.44535e-05,3.02474e-06,-1.11801e-05
647,8.39606e-06,7.54419e-06,4.95209e-05,3.95708e-05,-1.5086e-06,-1.40632e-05
648,9.94002e-06,7.23209e-06,4.89744e-05,4.46051e-05,-2.24781e-06,-1.76773e-05
649,9.26813e-06,7.2794e-06,5.16036e-05,4.65857e-05,-3.49471e-07,-1.68022e-05
650,6.06541e-06,5.62218e-06,5.25442e-05,4.50482e-05,3.93344e-06,-1.12951e-05
651,3.84847e-06,-1.78787e-06,5.10525e-05,3.85326e-05,1.0282e-05,-4.38601e-06
652,4.84799e-06,-1.29868e-05,5.11005e-05,2.96928e-05,1.59293e-05,2.34126e-06
653,7.126e-06,-1.72919e-05,5.13022e-05,2.80918e-05,2.57638e-05,6.44948e-06
654,7.962e-06,-1.0946e-05,5.08108e-05,3.49607e-05,4.06509e-05,7.08971e-06
655,5.21806e-06,-3.63517e-06,5.25398e-05,3.93007e-05,5.09794e-05,5.39496e-06
656,2.34335e-06,-1.86082e-06,5.61065e-05,3.82985e-05,5.19262e-05,1.53037e-06
657,1.95208e-06,-6.62519e-06,5.75863e-05,3.41678e-05,5.07409e-05,-4.48233e-06
658,3.99444e-06,-1.63208e-05,5.7044e-05,2.84165e-05,5.3177e-05,-1.02838e-05
659,5.98781e-06,-2.12459e-05,5.4547e-05,2.68662e-05,5.98648e-05,-1.23236e-05
660,8.09475e-06,-1.35362e-05,5.06512e-05,3.25927e-05,6.79362e-05,-1.07746e-05
661,9.65161e-06,-2.29378e-07,4.85736e-05,3.91878e-05,7.172e-05,-7.58569e-06
662,8.38246e-06,6.13063e-06,5.1572e-05,3.86042e-05,7.01371e-05,-4.29667e-06
663,5.51834e-06,1.48937e-06,5.61563e-05,3.12818e-05,6.5206e-05,-2.69169e-06
664,4.64769e-06,-1.0721e-05,6.01907e-05,2.33609e-05,5.54685e-05,-4.53053e-06
665,6.11301e-06,-1.72505e-05,5.95136e-05,2.31131e-05,3.72614e-05,-9.07342e-06
666,9.11121e-06,-8.99968e-06,5.55441e-05,3.06347e-05,9.52826e-06,-1.38608e-05
667,1.15462e-05,3.06283e-06,5.4824e-05,3.85659e-05,-2.1703e-05,-1.70446e-05
668,1.32303e-05,5.55589e-06,5.72895e-05,4.11144e-05,-4.42351e-05,-1.88375e-05
669,1.58614e-05,1.08772e-07,5.70398e-05,3.7506e-05,-5.36696e-05,-2.06068e-05
670,1.74614e-05,-1.1831e-05,5.16882e-05,2.8836e-05,-5.42037e-05,-2.33272e-05
671,1.87141e-05,-2.13871e-05,4.66787e-05,2.39696e-05,-4.41748e-05,-2.61347e-05
672,1.83161e-05,-1.73167e-05,4.46297e-05,2.98743e-05,-2.51463e-05,-2.33183e-05
673,1.72758e-05,-1.23348e-05,4.60076e-05,3.98008e-05,-9.35657e-06,-1.36702e-05
674,1.87877e-05,-1.67572e-05,4.82386e-05,4.69849e-05,-2.10185e-06,-2.26217e-06
675,2.01652e-05,-1.95771e-05,4.93052e-05,4.81107e-05,-6.95242e-06,5.31396e-06
676,1.79024e-05,-1.64847e-05,5.02366e-05,4.14451e-05,-1.41589e-05,6.04483e-06
677,1.46777e-05,-1.20202e-05,5.14929e-05,3.37606e-05,-1.27214e-05,5.18318e-06
678,1.4724e-05,-1.46578e-05,5.2812e-05,2.84306e-05,-6.4003e-06,3.88342e-06
679,1.62674e-05,-2.4432e-05,5.11608e-05,2.40883e-05,-4.92924e-06,-7.47381e-07
680,1.78879e-05,-2.57803e-05,4.57826e-05,2.46047e-05,-6.63673e-06,-6.59364e-06
681,1.87387e-05,-1.18738e-05,4.15545e-05,3.13449e-05,-5.64336e-06,-1.01584e-05
682,1.93733e-05,2.32047e-06,4.26952e-05,3.85595e-05,-1.09835e-06,-1.33902e-05
683,2.17829e-05,6.76751e-06,4.66512e-05,4.24973e-05,9.50808e-06,-1.96261e-05
684,2.36977e-05,4.01848e-06,4.96639e-05,4.03114e-05,2.6086e-05,-3.00267e-05
685,2.38156e-05,-1.42576e-06,4.98501e-05,3.22733e-05,4.00136e-05,-4.11851e-05
686,2.32354e-05,-2.11528e-06,4.62504e-05,2.6965e-05,4.37013e-05,-4.60603e-05
687,2.13737e-05,5.12483e-06,4.38837e-05,3.12843e-05,4.03814e-05,-4.32173e-05
688,1.64217e-05,1.29162e-05,4.7941e-05,3.90383e-05,3.44928e-05,-3.70843e-05
689,1.05929e-05,1.37516e-05,5.35634e-05,4.17434e-05,2.94027e-05,-3.0659e-05
690,7.83825e-06,7.6649e-06,5.51778e-05,3.9889e-05,2.59265e-05,-2.34661e-05
691,9.51152e-06,-4.00387e-06,5.47818e-05,3.66924e-05,2.08337e-05,-1.88689e-05
692,1.31322e-05,-1.21386e-05,5.38332e-05,3.62179e-05,1.13828e-05,-1.91632e-05
693,1.48462e-05,-7.74048e-06,4.99044e-05,4.10281e-05,2.14182e-06,-2.03474e-05
694,1.21101e-05,2.29883e-06,4.82653e-05,4.71036e-05,-5.88117e-06,-1.86113e-05
695,1.08057e-05,4.89878e-06,5.4262e-05,4.6315e-05,-1.06923e-05,-1.55161e-05
696,1.54188e-05,-9.6533e-07,5.90881e-05,4.06436e-05,-6.36729e-06,-1.22818e-05
697,1.79838e-05,-1.23381e-05,5.57826e-05,3.39799e-05,1.81886e-06,-9.17855e-06
698,1.64251e-05,-1.91516e-05,5.1886e-05,2.75358e-05,7.09517e-06,-5.22136e-06
699,1.64014e-05,-8.9239e-06,5.54266e-05,2.90334e-05,1.51425e-05,-1.60673e-06
700,1.74894e-05,3.47668e-06,6.12281e-05,3.65687e-05,2.56563e-05,-2.12955e-06
701,1.8123e-05,4.74824e-06,5.9463e-05,4.10361e-05,3.41866e-05,-4.73686e-06
702,1.81258e-05,3.99693e-06,4.99635e-05,4.17832e-05,3.9386e-05,-5.8176e-06
703,1.59504e-05,4.29281e-06,4.54998e-05,4.12738e-05,3.7961e-05,-3.48638e-06
704,1.21606e-05,6.0565e-06,4.81671e-05,4.19461e-05,3.35846e-05,4.3765e-07
705,8.77716e-06,3.18595e-06,4.88111e-05,4.12155e-05,3.13736e-05,8.17531e-07
706,8.91898e-06,-9.28587e-06,4.33427e-05,3.76598e-05,3.05093e-05,-3.60576e-06
707,1.22385e-05,-1.69946e-05,3.6953e-05,3.54359e-05,3.27898e-05,-9.16912e-06
708,1.47649e-05,-8.85389e-06,3.56069e-05,3.7238e-05,3.35564e-05,-1.15723e-05
709,1.33444e-05,4.08203e-06,4.0974e-05,4.03278e-05,2.76493e-05,-1.0122e-05
710,9.56693e-06,8.90581e-06,4.93596e-05,4.21196e-05,2.00187e-05,-7.35472e-06
711,7.8418e-06,3.13468e-06,5.45529e-05,3.92622e-05,2.09841e-05,-4.45307e-06
712,1.02381e-05,-8.54225e-06,5.55619e-05,3.29167e-05,2.9191e-05,-1.43213e-06
713,1.48269e-05,-1.46798e-05,5.29025e-05,3.30384e-05,3.14181e-05,2.89272e-07
714,1.79658e-05,-8.67976e-06,4.9521e-05,4.27829e-05,2.14549e-05,3.66039e-07
715,1.60973e-05,5.91609e-07,4.90524e-05,5.26236e-05,9.16994e-06,1.28315e-06
716,1.14319e-05,1.91244e-06,5.02097e-05,5.63975e-05,9.33708e-06,2.20382e-06
717,1.07619e-05,-5.3225e-06,5.16954e-05,5.54903e-05,1.89199e-05,-4.73472e-07
718,1.34234e-05,-1.64228e-05,5.49152e-05,5.09061e-05,2.31651e-05,-5.58693e-06
719,1.66739e-05,-2.2102e-05,5.64196e-05,4.80241e-05,2.05976e-05,-9.04849e-06
720,1.92106e-05,-1.54951e-05,5.44555e-05,5.11431e-05,1.89856e-05,-9.7765e-06
721,1.82076e-05,-4.30796e-06,5.57977e-05,5.39607e-05,1.53417e-05,-7.83087e-06
722,1.29761e-05,-7.53617e-07,6.15291e-05,5.17359e-05,1.19326e-05,-4.67595e-06
723,7.20455e-06,-7.5187e-06,6.26711e-05,4.7594e-05,1.45484e-05,-3.71861e-06
724,4.27287e-06,-2.20165e-05,5.92684e-05,4.07923e-05,1.79935e-05,-3.47059e-06
725,2.76491e-06,-2.98448e-05,5.61282e-05,3.55375e-05,2.08025e-05,-7.56039e-07
726,3.60477e-06,-1.7657e-05,5.23951e-05,3.79659e-05,2.37226e-05,4.04288e-06
727,7.16345e-06,-1.22703e-07,4.78606e-05,4.27015e-05,2.35686e-05,4.8623e-06
728,1.20459e-05,5.9825e-06,4.54308e-05,4.39043e-05,2.28102e-05,-2.05655e-06
729,1.55586e-05,3.7524e-06,4.61651e-05,4.21728e-05,1.73881e-05,-7.66984e-06
730,1.52139e-05,-7.56895e-07,5.23652e-05,3.91271e-05,6.70232e-06,-7.01067e-06
731,1.36778e-05,-3.05523e-06,5.92201e-05,3.83572e-05,-1.46472e-06,-6.32227e-06
732,1.29688e-05,-7.11533e-06,6.01543e-05,3.93126e-05,-1.46936e-06,-8.39459e-06
733,1.38706e-05,-1.68635e-05,5.69526e-05,3.9136e-05,1.04872e-06,-9.15554e-06
734,1.70823e-05,-2.23213e-05,5.24859e-05,4.05527e-05,5.90839e-07,-6.05404e-06
735,2.11676e-05,-1.61001e-05,5.10784e-05,4.54711e-05,-2.36455e-06,-1.30676e-06
736,2.16587e-05,-7.02773e-06,5.40462e-05,5.14418e-05,-4.74294e-06,3.34698e-06
737,1.96772e-05,-3.92837e-06,5.59778e-05,5.44049e-05,-3.24697e-06,6.00646e-06
738,1.95476e-05,-9.93297e-06,5.54795e-05,5.11393e-05,5.91381e-07,4.8665e-06
739,2.10264e-05,-2.07677e-05,5.65227e-05,4.35497e-05,3.34426e-06,2.85428e-07
740,2.05245e-05,-2.39989e-05,5.68328e-05,3.92612e-05,3.8342e-06,-5.82447e-06
741,1.78434e-05,-1.453e-05,5.33766e-05,4.20577e-05,3.25848e-06,-1.00617e-05
742,1.39175e-05,-2.79079e-06,5.21549e-05,4.66464e-05,-3.21984e-07,-1.12688e-05
743,9.13753e-06,4.68099e-07,5.59063e-05,4.68723e-05,-3.67849e-06,-1.12944e-05
744,5.47852e-06,-5.47407e-06,5.65535e-05,4.22821e-05,-2.56218e-06,-1.18154e-05
745,4.05187e-06,-1.73066e-05,5.24495e-05,3.40387e-05,1.81931e-06,-1.30359e-05
746,4.90583e-06,-2.46532e-05,4.78813e-05,2.83884e-05,4.99299e-06,-1.47839e-05
747,5.75238e-06,-1.77766e-05,4.38435e-05,3.2684e-05,6.16957e-06,-1.60715e-05
748,2.5422e-06,-3.04819e-06,4.40316e-05,3.93284e-05,3.95687e-06,-1.48272e-05
749,-2.90585e-06,4.54624e-06,4.96192e-05,3.82861e-05,3.01693e-06,-1.31912e-05
750,-3.42077e-06,-1.0394e-06,5.29269e-05,3.17514e-05,1.03406e-05,-1.36908e-05
751,-5.76149e-08,-1.63937e-05,5.33799e-05,2.48491e-05,1.67979e-05,-1.29404e-05
752,-2.14031e-07,-2.66347e-05,5.5832e-05,2.20849e-05,1.69835e-05,-1.08464e-05
753,-2.95055e-06,-1.94089e-05,5.89732e-05,2.49898e-05,1.44614e-05,-9.5178e-06
754,-2.35303e-06,-6.89957e-06,5.94584e-05,2.76374e-05,1.0057e-05,-6.36161e-06
755,1.67343e-06,-2.02594e-06,5.55031e-05,2.83097e-05,5.71574e-06,-2.36351e-07
756,4.41398e-06,-3.27182e-07,5.05628e-05,3.15388e-05,-8.13505e-07,3.54568e-06
757,2.03006e-06,7.17704e-07,5.08729e-05,3.70432e-05,-7.07813e-06,2.52008e-06
758,8.63815e-09,8.65399e-07,5.39546e-05,4.08989e-05,-8.98375e-06,2.8195e-07
759,3.65386e-07,-4.23085e-06,5.59106e-05,3.7222e-05,-8.90608e-06,-3.46824e-06
760,7.60623e-07,-1.40584e-05,5.52553e-05,2.92104e-05,-9.68363e-06,-9.568e-06
761,2.27631e-06,-1.56269e-05,5.30718e-05,2.82063e-05,-9.02656e-06,-1.31531e-05
762,5.43722e-06,-3.24131e-06,5.05979e-05,3.30685e-05,-7.71876e-06,-1.24766e-05
763,6.81779e-06,1.08529e-05,5.13565e-05,3.38015e-05,-8.47515e-06,-1.21908e-05
764,6.07722e-06,1.55582e-05,5.5202e-05,2.99713e-05,-7.30839e-06,-1.25158e-05
765,8.10608e-06,7.84229e-06,5.77748e-05,2.50981e-05,-3.35834e-07,-1.05916e-05
766,1.47341e-05,-7.2779e-06,5.72457e-05,2.03662e-05,9.22254e-06,-7.34527e-06
767,2.12159e-05,-1.50711e-05,5.38043e-05,2.10563e-05,1.72776e-05,-5.35041e-06
768,2.16262e-05,-9.99516e-06,5.06827e-05,2.87497e-05,2.42997e-05,-6.17171e-06
769,1.5726e-05,-3.4205e-06,4.95658e-05,3.66648e-05,2.58222e-05,-1.02538e-05
770,7.6577e-06,-3.9064e-06,4.99523e-05,3.98902e-05,2.08644e-05,-1.44421e-05
771,1.22236e-06,-9.07869e-06,5.01009e-05,3.78181e-05,1.85025e-05,-1.52927e-05
772,-1.51729e-06,-1.67767e-05,5.08497e-05,3.23891e-05,1.95329e-05,-1.39762e-05
773,-2.79842e-07,-2.02127e-05,5.22392e-05,3.08096e-05,1.72489e-05,-1.37229e-05
774,2.34403e-06,-1.24709e-05,5.2365e-05,3.68215e-05,1.04622e-05,-1.43302e-05
775,3.83618e-06,-1.31175e-06,5.04044e-05,4.22e-05,-4.57457e-06,-1.23282e-05
776,5.59828e-06,4.86061e-07,4.89666e-05,4.15768e-05,-2.16008e-05,-6.5886e-06
777,6.63761e-06,-7.02381e-06,4.5982e-05,3.9528e-05,-2.65955e-05,-3.99084e-07
778,2.92382e-06,-1.82973e-05,4.17224e-05,3.51344e-05,-1.88309e-05,1.01387e-06
779,6.50654e-07,-2.32749e-05,4.07654e-05,3.1873e-05,-5.95612e-06,-1.2754e-07
780,8.43436e-07,-1.26931e-05,4.17052e-05,3.62644e-05,3.51586e-06,7.5012e-08
781,7.70358e-07,-5.9526e-07,4.02681e-05,3.90108e-05,8.19423e-06,-2.88145e-06
782,3.23088e-06,1.43015e-06,3.4926e-05,3.66258e-05,1.01674e-05,-1.12291e-05
783,9.56614e-06,2.59678e-06,3.4147e-05,3.636e-05,8.42606e-06,-1.78881e-05
784,1.43474e-05,6.10133e-06,4.18165e-05,3.71855e-05,9.79576e-06,-1.81986e-05
785,1.42342e-05,9.26325e-06,4.95838e-05,3.60428e-05,2.34039e-05,-1.55889e-05
786,1.29026e-05,5.07796e-06,5.39215e-05,3.40371e-05,4.01515e-05,-1.32543e-05
787,1.14002e-05,-6.87013e-06,5.32266e-05,3.26416e-05,4.02765e-05,-1.10038e-05
788,1.02104e-05,-1.31163e-05,4.84689e-05,3.27723e-05,2.58062e-05,-8.71141e-06
789,9.95219e-06,-7.19397e-06,4.50452e-05,3.41724e-05,1.19386e-05,-6.73645e-06
790,9.50841e-06,2.57011e-06,4.89671e-05,3.59857e-05,4.53851e-06,-3.2492e-06
791,9.58881e-06,8.31829e-06,5.68517e-05,3.79727e-05,3.52208e-06,9.06915e-08
792,1.00527e-05,5.68339e-06,6.22333e-05,3.71958e-05,8.52671e-06,-3.46687e-08
793,1.04058e-05,-5.16484e-06,6.27879e-05,3.2341e-05,1.4163e-05,-1.52361e-06
794,1.20047e-05,-1.30694e-05,5.94512e-05,2.95723e-05,1.35117e-05,-1.02621e-06
795,1.28604e-05,-9.1976e-06,5.54529e-05,3.28302e-05,8.44648e-06,6.08128e-07
796,1.15388e-05,-9.74552e-07,5.28377e-05,3.57491e-05,3.56587e-06,3.32925e-07
797,1.09092e-05,5.34291e-07,5.44135e-05,3.4515e-05,4.87199e-06,-1.83372e-06
798,1.07398e-05,-6.51062e-06,5.95289e-05,3.17309e-05,1.39099e-05,-3.5944e-06
799,9.75534e-06,-1.83866e-05,6.18283e-05,2.91584e-05,2.36986e-05,-3.858e-06
800,9.81418e-06,-2.42881e-05,5.75772e-05,3.05138e-05,3.32419e-05,-2.90666e-06
801,1.33465e-05,-1.73707e-05,5.06763e-05,3.73473e-05,4.12747e-05,-3.52891e-07
802,1.68999e-05,-6.26441e-06,4.81708e-05,4.47146e-05,4.31962e-05,2.99061e-06
803,1.79849e-05,-1.35045e-06,5.17124e-05,4.88288e-05,4.27707e-05,2.34795e-06
804,1.91412e-05,-4.18881e-06,5.6206e-05,4.80963e-05,4.31e-05,-3.54621e-06
805,1.67166e-05,-1.61171e-05,5.83533e-05,4.11526e-05,4.49879e-05,-1.12889e-05
806,1.25222e-05,-2.64528e-05,5.64857e-05,3.49515e-05,4.62025e-05,-1.83063e-05
807,1.07683e-05,-2.06832e-05,5.59126e-05,3.65589e-05,4.54054e-05,-2.14051e-05
808,1.33117e-05,-1.18241e-05,5.818e-05,4.01237e-05,4.19112e-05,-2.11023e-05
809,1.53808e-05,-1.09627e-05,5.78661e-05,4.12189e-05,3.02561e-05,-1.91075e-05
810,1.65984e-05,-9.81261e-06,5.47481e-05,4.0675e-05,8.5649e-06,-1.55352e-05
811,1.91295e-05,-6.9646e-06,5.55093e-05,4.04085e-05,-1.27973e-05,-1.27825e-05
812,2.06416e-05,-4.88351e-06,5.95282e-05,4.24859e-05,-1.79722e-05,-1.21722e-05
813,1.95563e-05,-1.0475e-05,6.34633e-05,4.05797e-05,-5.27999e-06,-1.10644e-05
814,1.80395e-05,-2.36126e-05,6.33259e-05,3.4191e-05,1.04877e-05,-8.83725e-06
815,2.12011e-05,-2.91482e-05,5.6029e-05,3.28466e-05,1.57399e-05,-2.91911e-06
816,2.60636e-05,-2.15856e-05,4.7099e-05,3.85817e-05,9.72734e-06,9.44899e-06
817,2.72268e-05,-1.27567e-05,4.54389e-05,4.33505e-05,5.22138e-06,2.00053e-05
818,2.38773e-05,-1.12443e-05,5.23907e-05,4.31723e-05,1.32551e-05,1.98325e-05
819,2.01566e-05,-1.75123e-05,6.14778e-05,3.94864e-05,2.72667e-05,1.06461e-05
820,1.82606e-05,-2.67368e-05,6.60801e-05,3.54127e-05,3.56091e-05,-1.35573e-06
821,1.92711e-05,-2.7973e-05,6.07824e-05,3.39182e-05,3.61358e-05,-1.05795e-05
822,2.10025e-05,-1.7621e-05,5.05034e-05,3.53901e-05,3.16619e-05,-1.37874e-05
823,1.91391e-05,-6.01289e-06,4.64687e-05,3.67741e-05,2.48531e-05,-1.21688e-05
824,1.3208e-05,-3.02024e-06,4.79874e-05,3.57816e-05,2.25107e-05,-9.12702e-06
825,9.03284e-06,-8.93904e-06,4.60084e-05,3.21981e-05,2.8227e-05,-7.34981e-06
826,8.90929e-06,-1.90618e-05,4.17863e-05,2.56983e-05,3.65279e-05,-6.58484e-06
827,1.21265e-05,-2.30201e-05,4.00971e-05,2.29836e-05,3.81614e-05,-5.45674e-06
828,1.66996e-05,-1.45845e-05,4.0985e-05,3.08612e-05,2.98015e-05,-3.52152e-06
829,1.71199e-05,-2.14317e-06,4.52348e-05,4.06916e-05,2.05003e-05,-1.75549e-06
830,1.27288e-05,3.39472e-06,5.11814e-05,4.33147e-05,2.02539e-05,-1.41375e-06
831,7.55218e-06,7.48004e-07,5.48739e-05,4.23115e-05,2.58252e-05,-1.72932e-06
832,5.73934e-06,-1.08056e-05,5.42793e-05,3.82013e-05,2.506e-05,-1.92377e-06
833,7.14295e-06,-2.30971e-05,5.24176e-05,3.26738e-05,1.99039e-05,-3.02298e-06
834,1.07358e-05,-2.11232e-05,5.4487e-05,3.47577e-05,2.06517e-05,-3.52522e-06
835,1.33692e-05,-1.36788e-05,5.57737e-05,4.0825e-05,2.76975e-05,-3.07223e-07
836,1.26313e-05,-1.26188e-05,5.32945e-05,4.28207e-05,3.32239e-05,5.8058e-06
837,1.19694e-05,-1.03632e-05,5.17018e-05,4.27105e-05,3.06197e-05,1.05539e-05
838,1.15702e-05,-5.38588e-06,5.60981e-05,4.06751e-05,2.38684e-05,1.19725e-05
839,1.09176e-05,-2.64045e-06,6.28859e-05,3.7352e-05,2.07614e-05,1.16123e-05
840,1.12488e-05,-7.55339e-06,6.64768e-05,3.28461e-05,2.39163e-05,1.03049e-05
841,1.3077e-05,-1.83907e-05,6.37204e-05,2.93466e-05,2.71444e-05,5.23507e-06
842,1.51315e-05,-2.081e-05,5.70846e-05,2.97205e-05,2.46438e-05,-2.15785e-06
843,1.72272e-05,-9.7472e-06,5.31973e-05,3.37113e-05,1.70272e-05,-7.87471e-06
844,1.86112e-05,1.93787e-06,5.71052e-05,3.74313e-05,1.188e-05,-1.05904e-05
845,2.00534e-05,5.97336e-06,6.22315e-05,3.89154e-05,1.41264e-05,-1.18209e-05
846,2.18935e-05,2.86985e-06,5.9514e-05,3.69425e-05,1.84024e-05,-1.65462e-05
847,1.97625e-05,-5.29663e-06,5.36663e-05,3.2986e-05,1.7648e-05,-2.66357e-05
848,1.55198e-05,-8.90736e-06,5.11909e-05,3.32993e-05,9.43073e-06,-3.71712e-05
849,1.53819e-05,-1.25913e-06,5.23366e-05,3.97364e-05,-1.49583e-06,-4.17154e-05
850,1.74231e-05,9.33049e-06,5.47504e-05,4.63142e-05,-1.06094e-05,-3.99673e-05
851,1.64533e-05,1.24772e-05,5.73128e-05,4.79966e-05,-1.43375e-05,-3.50682e-05
852,1.38745e-05,6.11664e-06,5.84674e-05,4.47269e-05,-1.04622e-05,-2.95604e-05
853,1.17113e-05,-7.10281e-06,5.90492e-05,3.65843e-05,-4.44369e-06,-2.60014e-05
854,1.24024e-05,-1.57234e-05,5.93856e-05,3.1166e-05,-1.32357e-06,-2.54779e-05
855,1.4372e-05,-1.0919e-05,5.59196e-05,3.45295e-05,8.78409e-07,-2.67702e-05
856,1.06227e-05,3.75732e-07,5.16079e-05,4.17147e-05,6.92598e-06,-2.81398e-05
857,4.22046e-06,7.04568e-06,4.97835e-05,4.49529e-05,2.37032e-05,-2.65821e-05
858,3.44077e-06,4.9014e-06,4.75236e-05,4.17764e-05,4.43973e-05,-2.50538e-05
859,7.72512e-06,-6.5699e-06,4.78959e-05,3.34547e-05,5.26354e-05,-2.85014e-05
860,1.21164e-05,-1.57304e-05,5.13066e-05,2.86749e-05,5.04713e-05,-3.4961e-05
861,1.45146e-05,-6.4678e-06,5.52217e-05,3.34279e-05,4.37746e-05,-3.71109e-05
862,1.73749e-05,6.86409e-06,5.34613e-05,3.86656e-05,3.30162e-05,-3.2753e-05
863,2.11587e-05,8.26746e-06,4.57372e-05,4.0184e-05,2.07902e-05,-2.82137e-05
864,2.3911e-05,7.50619e-06,4.02093e-05,4.28094e-05,4.75723e-06,-3.00381e-05
865,2.11748e-05,8.47815e-06,4.31024e-05,4.4477e-05,-1.22019e-05,-3.70219e-05
866,1.47347e-05,7.20266e-06,4.9122e-05,4.37434e-05,-2.28719e-05,-3.87157e-05
867,1.03097e-05,-8.85468e-07,5.65584e-05,3.91761e-05,-2.82577e-05,-3.28538e-05
868,1.13008e-05,-1.32624e-05,6.0105e-05,3.15099e-05,-3.14398e-05,-2.58228e-05
869,1.71881e-05,-1.7117e-05,5.4566e-05,2.95982e-05,-2.82873e-05,-2.1475e-05
870,2.31445e-05,-8.17979e-06,4.84317e-05,3.70698e-05,-1.6211e-05,-1.92672e-05
871,2.38334e-05,3.37304e-06,4.9064e-05,4.51718e-05,1.24544e-06,-1.91169e-05
872,1.97384e-05,8.16694e-06,5.2271e-05,4.5513e-05,2.02734e-05,-2.10114e-05
873,1.61687e-05,2.90652e-06,5.14243e-05,3.83267e-05,3.94369e-05,-2.16665e-05
874,1.50275e-05,-7.92238e-06,4.87062e-05,3.08774e-05,5.4054e-05,-1.93915e-05
875,1.5314e-05,-1.18741e-05,4.42855e-05,3.23161e-05,5.82511e-05,-1.66723e-05
876,1.58172e-05,-4.35911e-06,3.95006e-05,4.27678e-05,5.48909e-05,-1.60903e-05
877,1.47155e-05,5.27205e-06,3.79144e-05,5.15119e-05,5.17109e-05,-1.71905e-05
878,1.22813e-05,8.34017e-06,4.11557e-05,5.19011e-05,5.43364e-05,-1.79533e-05
879,1.22791e-05,4.11698e-06,4.49016e-05,4.59157e-05,5.99371e-05,-1.66775e-05
880,1.34815e-05,-5.1172e-06,4.71077e-05,3.70074e-05,5.82144e-05,-1.40831e-05
881,1.41261e-05,-1.01399e-05,4.54932e-05,3.41419e-05,4.66008e-05,-1.38022e-05
882,1.41322e-05,-3.26027e-06,3.9623e-05,4.25476e-05,3.42449e-05,-1.70382e-05
883,1.24839e-05,6.61629e-06,3.68816e-05,5.26901e-05,2.03209e-05,-1.74172e-05
884,8.6634e-06,8.35013e-06,4.18087e-05,5.50516e-05,2.87464e-06,-1.13451e-05
885,7.10449e-06,2.42222e-06,5.05025e-05,5.00905e-05,-1.32661e-05,-2.65609e-06
886,8.03748e-06,-9.22889e-06,5.38091e-05,4.07061e-05,-2.67732e-05,1.37006e-06
887,5.98395e-06,-1.72926e-05,4.83024e-05,3.21356e-05,-2.76249e-05,-3.15721e-06
888,4.05571e-06,-9.14023e-06,4.50244e-05,3.19128e-05,-1.25307e-05,-9.80869e-06
889,7.08079e-06,2.76684e-06,4.57878e-05,3.63777e-05,2.68706e-06,-1.10436e-05
890,1.08393e-05,4.62013e-06,4.31867e-05,3.86698e-05,3.38363e-06,-9.86254e-06
891,1.05053e-05,3.14269e-06,4.03031e-05,4.25942e-05,-5.66853e-06,-1.1105e-05
892,6.35717e-06,7.93454e-07,4.3568e-05,4.77846e-05,-8.57787e-06,-8.38633e-06
893,4.43177e-06,-2.32642e-06,4.94117e-05,4.96686e-05,-1.27476e-07,2.07313e-06
894,6.29478e-06,-8.57327e-06,5.53576e-05,4.42121e-05,1.28646e-05,1.19608e-05
895,8.92993e-06,-1.89795e-05,5.66982e-05,3.60894e-05,1.88965e-05,1.30257e-05
896,1.07988e-05,-2.22457e-05,5.1877e-05,3.6519e-05,1.83092e-05,7.35678e-06
897,1.12685e-05,-1.29524e-05,4.82549e-05,4.52663e-05,1.65079e-05,3.84192e-06
898,9.93286e-06,-5.32023e-07,5.2549e-05,5.18947e-05,1.57484e-05,4.73306e-06
899,9.45516e-06,7.32642e-06,5.92495e-05,5.07362e-05,2.11827e-05,6.19113e-06
900,1.0768e-05,6.62845e-06,6.20879e-05,4.34167e-05,3.27877e-05,5.20546e-06
901,1.11837e-05,-1.96584e-06,5.97364e-05,3.52305e-05,4.10743e-05,8.04708e-07
902,1.02797e-05,-7.2656e-06,5.14687e-05,3.22629e-05,4.01524e-05,-5.21849e-06
903,1.11706e-05,-9.93613e-07,4.3953e-05,3.55157e-05,3.4372e-05,-6.82944e-06
904,1.37287e-05,9.28366e-06,4.43921e-05,3.98101e-05,2.80385e-05,-1.4141e-06
905,1.32919e-05,1.26819e-05,5.06299e-05,3.99461e-05,2.02361e-05,3.61603e-06
906,1.11714e-05,5.90265e-06,5.52606e-05,3.62621e-05,1.26569e-05,2.38898e-06
907,1.14966e-05,-8.14818e-06,5.64546e-05,3.23327e-05,8.09234e-06,-2.14925e-06
908,1.43393e-05,-1.64267e-05,5.1401e-05,3.16159e-05,4.19382e-06,-6.01435e-06
909,1.75554e-05,-9.23144e-06,4.60911e-05,3.50123e-05,-2.16219e-06,-7.04452e-06
910,1.84905e-05,3.25545e-06,4.74837e-05,3.88847e-05,-1.08614e-05,-2.33736e-06
911,1.58079e-05,5.04816e-06,5.48023e-05,3.94854e-05,-1.19269e-05,5.8643e-06
912,1.52633e-05,-4.4707e-06,6.03782e-05,3.59466e-05,3.28776e-07,1.08679e-05
913,1.8071e-05,-1.98189e-05,5.87858e-05,2.76689e-05,7.75092e-06,1.23411e-05
914,1.68541e-05,-2.86368e-05,5.3288e-05,2.41957e-05,4.70305e-06,1.27905e-05
915,1.10707e-05,-1.92713e-05,5.1514e-05,3.12373e-05,1.31866e-05,1.19915e-05
916,6.70375e-06,-8.77245e-06,5.09938e-05,3.85524e-05,3.2797e-05,1.08692e-05
917,5.96974e-06,-8.31242e-06,4.75257e-05,4.20729e-05,4.23078e-05,1.07492e-05
918,7.40954e-06,-8.25126e-06,4.71891e-05,4.42751e-05,3.06375e-05,1.04286e-05
919,5.96984e-06,-7.04734e-06,5.41196e-05,4.48895e-05,9.27667e-06,9.75005e-06
920,5.67431e-06,-6.23175e-06,5.83531e-05,4.30564e-05,-2.60041e-06,9.32293e-06
921,7.79084e-06,-1.05588e-05,5.57692e-05,3.80091e-05,-6.00639e-07,5.89711e-06
922,1.00917e-05,-1.95296e-05,5.12704e-05,3.34145e-05,4.87353e-06,5.36855e-07
923,1.21709e-05,-2.12769e-05,4.75009e-05,3.35798e-05,2.12678e-06,-1.31586e-06
924,1.28286e-05,-1.20822e-05,4.70742e-05,3.72005e-05,-1.25144e-05,2.23443e-06
925,1.18088e-05,-4.22261e-06,5.10178e-05,3.93515e-05,-3.01673e-05,7.01776e-06
926,1.07869e-05,-4.76247e-06,5.59475e-05,3.98848e-05,-3.65231e-05,8.21618e-06
927,1.21085e-05,-1.25656e-05,5.77153e-05,3.79247e-05,-2.86456e-05,5.52233e-06
928,1.43625e-05,-2.33478e-05,5.49982e-05,3.31159e-05,-1.48385e-05,1.68847e-06
929,1.5504e-05,-2.67286e-05,4.82776e-05,3.20993e-05,-3.6458e-06,-2.2265e-06
930,1.4833e-05,-1.66817e-05,4.22337e-05,3.71318e-05,-1.47151e-06,-7.76277e-06
931,1.43792e-05,-2.56034e-06,4.22629e-05,4.09936e-05,-8.10586e-06,-1.53612e-05
932,1.55575e-05,3.88242e-06,4.75148e-05,4.00658e-05,-8.14377e-06,-2.34012e-05
933,1.80031e-05,1.24314e-07,5.06094e-05,3.78049e-05,6.96394e-06,-2.85293e-05
934,1.93672e-05,-1.14762e-05,4.96831e-05,3.37072e-05,2.4415e-05,-2.99476e-05
935,1.89397e-05,-2.10592e-05,4.60216e-05,2.96984e-05,2.44601e-05,-2.97126e-05
936,1.57074e-05,-1.8621e-05,4.60334e-05,3.28732e-05,4.16163e-06,-2.79337e-05
937,1.24984e-05,-9.27783e-06,5.49157e-05,4.05484e-05,-1.91734e-05,-2.45313e-05
938,9.28994e-06,-6.31981e-06,6.29868e-05,4.60267e-05,-2.34574e-05,-2.11186e-05
939,7.48515e-06,-1.2535e-05,6.16559e-05,4.72579e-05,-8.2911e-06,-1.67479e-05
940,8.61736e-06,-2.49846e-05,5.68836e-05,4.10957e-05,1.26767e-06,-1.08533e-05
941,7.99737e-06,-3.18191e-05,5.47744e-05,3.37789e-05,-1.69634e-07,-1.16067e-06
942,5.77232e-06,-2.19767e-05,5.93171e-05,3.2105e-05,-4.34947e-06,1.60353e-05
943,5.48235e-06,-8.96029e-06,6.21247e-05,3.36556e-05,-8.00019e-06,3.08455e-05
944,8.06788e-06,-5.24255e-06,5.52378e-05,3.7643e-05,-4.43762e-06,2.89137e-05
945,1.12183e-05,-5.14669e-06,4.81868e-05,4.05428e-05,1.37584e-07,1.7076e-05
946,1.07006e-05,-3.36248e-06,4.98114e-05,3.92756e-05,1.12418e-06,8.11817e-06
947,7.61071e-06,2.13595e-06,5.68932e-05,3.84215e-05,4.42824e-06,7.76799e-07
948,6.85955e-06,2.39694e-06,6.22928e-05,3.59731e-05,1.06665e-05,-9.36138e-06
949,8.8447e-06,-6.52507e-06,6.03155e-05,3.00387e-05,1.22087e-05,-2.02989e-05
950,1.27556e-05,-1.05699e-05,5.31481e-05,2.81735e-05,7.79101e-06,-2.51213e-05
951,1.36244e-05,-2.30668e-06,4.86765e-05,3.18277e-05,3.18698e-06,-2.38122e-05
952,7.42533e-06,8.01056e-06,5.02079e-05,3.37008e-05,3.19749e-06,-2.26771e-05
953,7.02676e-07,1.16518e-05,5.54272e-05,3.31877e-05,1.08134e-05,-2.44754e-05
954,-1.3641e-06,6.32739e-06,5.79429e-05,3.30325e-05,2.35302e-05,-2.71799e-05
955,2.87163e-06,-5.43803e-06,5.32767e-05,3.25615e-05,3.35609e-05,-2.82192e-05
956,1.13482e-05,-1.22655e-05,4.41973e-05,3.35323e-05,3.37327e-05,-2.81195e-05
957,1.82585e-05,-7.74584e-06,3.98521e-05,3.79736e-05,2.57364e-05,-2.69121e-05
958,2.03555e-05,1.49852e-07,4.46228e-05,4.22753e-05,1.90958e-05,-2.57746e-05
959,2.04232e-05,3.3414e-06,5.18872e-05,4.29694e-05,2.37328e-05,-2.66285e-05
960,2.04249e-05,1.01078e-06,5.49537e-05,4.23895e-05,3.80669e-05,-2.86057e-05
961,2.00709e-05,-8.52608e-06,5.4897e-05,4.14068e-05,4.83632e-05,-3.00222e-05
962,2.10116e-05,-1.69094e-05,5.15864e-05,4.03628e-05,5.07866e-05,-3.13556e-05
963,2.18531e-05,-1.20805e-05,4.65056e-05,4.12569e-05,5.35751e-05,-3.2212e-05
964,1.88236e-05,-5.48817e-07,4.49443e-05,4.42889e-05,5.64802e-05,-3.12548e-05
965,1.49874e-05,4.50916e-06,4.92233e-05,4.58136e-05,5.76402e-05,-2.83239e-05
966,1.52025e-05,7.08696e-07,5.69528e-05,4.20485e-05,5.46271e-05,-2.47093e-05
967,1.82277e-05,-1.13068e-05,6.10762e-05,3.37468e-05,4.61695e-05,-2.40876e-05
968,2.03585e-05,-2.11901e-05,6.03763e-05,2.9999e-05,4.07379e-05,-2.65093e-05
969,2.0527e-05,-1.4802e-05,6.05734e-05,3.56393e-05,3.97203e-05,-2.53315e-05
970,2.01325e-05,-2.95798e-06,5.99464e-05,3.97466e-05,3.46734e-05,-2.05298e-05
971,2.01078e-05,1.32541e-06,5.43277e-05,3.746e-05,2.50557e-05,-1.92329e-05
972,2.15212e-05,1.88164e-06,4.79123e-05,3.71828e-05,7.11384e-06,-1.9456e-05
973,2.13055e-05,2.89021e-06,4.80576e-05,4.14928e-05,-1.4439e-05,-1.81977e-05
974,1.99055e-05,5.63208e-06,5.17446e-05,4.59965e-05,-2.03533e-05,-1.64893e-05
975,1.88294e-05,4.15908e-07,5.52518e-05,4.3051e-05,-7.281e-06,-1.65526e-05
976,2.00796e-05,-1.63598e-05,5.51124e-05,3.30604e-05,1.10825e-05,-1.92533e-05
977,2.25243e-05,-2.72643e-05,4.85783e-05,2.79987e-05,2.34315e-05,-2.28047e-05
978,2.28584e-05,-2.09806e-05,4.20684e-05,3.20544e-05,2.87986e-05,-2.58176e-05
979,1.76341e-05,-8.79186e-06,4.45589e-05,3.8523e-05,3.08508e-05,-2.71162e-05
980,1.02121e-05,-2.92212e-06,5.22167e-05,4.19527e-05,3.36057e-05,-2.48596e-05
981,5.17598e-06,-5.73074e-06,5.4357e-05,4.09001e-05,3.70638e-05,-1.77846e-05
982,4.32919e-06,-1.38842e-05,5.08192e-05,3.59942e-05,3.84946e-05,-9.56989e-06
983,6.19492e-06,-1.79886e-05,4.47386e-05,3.38856e-05,3.76878e-05,-3.45329e-06
984,6.91115e-06,-1.12831e-05,3.80652e-05,4.11053e-05,3.35787e-05,1.68822e-06
985,3.9566e-06,-4.67626e-07,3.37961e-05,5.14321e-05,2.61891e-05,6.40044e-06
986,9.66027e-08,3.22687e-06,3.65143e-05,5.43943e-05,2.16415e-05,8.35198e-06
987,-2.86667e-07,-3.41978e-06,4.6848e-05,4.92186e-05,2.24864e-05,7.75991e-06
988,2.1772e-06,-1.62725e-05,5.69645e-05,4.07407e-05,2.46397e-05,9.12872e-06
989,6.51932e-06,-2.25582e-05,5.67467e-05,3.52705e-05,2.37653e-05,1.37922e-05
990,9.10863e-06,-1.32334e-05,5.05573e-05,3.7526e-05,1.63839e-05,1.57108e-05
991,9.4146e-06,2.43775e-06,4.70432e-05,4.26297e-05,1.62387e-06,1.26373e-05
992,6.55235e-06,1.0671e-05,4.80089e-05,4.32587e-05,-7.92277e-06,1.02648e-05
993,5.0953e-06,7.74959e-06,5.22011e-05,3.85988e-05,1.08348e-07,8.67859e-06
994,6.47158e-06,-6.07306e-06,5.17413e-05,3.12518e-05,1.21159e-05,6.63704e-06
995,7.56507e-06,-1.71832e-05,4.85946e-05,2.77671e-05,1.49614e-05,6.0698e-06
996,5.77675e-06,-7.64823e-06,4.98578e-05,3.19754e-05,1.27491e-05,6.57253e-06
997,3.20003e-06,7.76919e-06,5.21068e-05,3.55518e-05,1.11074e-05,9.38393e-06
998,8.74705e-07,9.59721e-06,4.97439e-05,3.56518e-05,1.00585e-05,1.39643e-05
999,-7.3258e-07,4.26344e-06,4.5942e-05,3.61575e-05,5.80021e-06,1.56855e-05
1000,8.64123e-07,-8.39068e-07,4.55982e-05,3.5086e-05,1.95593e-06,1.10498e-05
1001,3.55776e-06,-3.96443e-06,4.53549e-05,3.28637e-05,1.6334e-06,3.83409e-06
1002,3.00915e-06,-9.68081e-06,4.52407e-05,3.09616e-05,3.73398e-06,-3.24406e-06
1003,-1.08147e-06,-1.93705e-05,4.51125e-05,3.0459e-05,5.32092e-06,-9.90358e-06
1004,-1.23825e-06,-2.24686e-05,4.37714e-05,3.37313e-05,5.8353e-06,-1.37981e-05
1005,4.1472e-06,-1.41437e-05,4.22872e-05,3.90609e-05,3.49063e-06,-1.44095e-05
1006,9.50489e-06,-3.98669e-06,4.45335e-05,4.012e-05,-1.60971e-06,-1.13044e-05
1007,1.19015e-05,-2.08748e-07,4.83806e-05,3.58506e-05,-4.18611e-06,-6.26512e-06
1008,1.15429e-05,-6.03151e-06,4.97507e-05,2.92438e-05,-2.13839e-07,-3.47385e-07
1009,9.88292e-06,-1.58694e-05,4.86809e-05,2.52881e-05,7.38661e-06,6.30338e-06
1010,9.21293e-06,-1.73173e-05,4.60655e-05,2.72025e-05,1.11097e-05,1.12273e-05
1011,9.60004e-06,-7.83679e-06,4.16268e-05,3.34927e-05,9.06355e-06,1.02221e-05
1012,1.10782e-05,7.68665e-07,3.99724e-05,3.77474e-05,5.01222e-06,3.33766e-06
1013,1.35444e-05,8.84902e-07,4.49692e-05,3.50904e-05,4.89839e-06,-3.2147e-06
1014,1.39006e-05,-3.9152e-06,5.02405e-05,2.91325e-05,7.61873e-06,-3.60402e-06
1015,1.49196e-05,-1.17944e-05,5.18697e-05,2.68447e-05,8.94174e-06,-2.0586e-07
1016,2.01477e-05,-1.83756e-05,4.87312e-05,3.14431e-05,7.21966e-06,-1.5646e-06
1017,2.51123e-05,-1.52523e-05,4.61854e-05,3.9122e-05,1.84201e-06,-1.0894e-05
1018,2.40489e-05,-5.2884e-06,4.949e-05,4.37788e-05,-9.50015e-06,-2.02784e-05
1019,1.79986e-05,4.71452e-07,5.2991e-05,4.42549e-05,-1.82479e-05,-2.27914e-05
1020,1.41085e-05,-2.21681e-06,5.42262e-05,4.28224e-05,-1.3934e-05,-1.98318e-05
1021,1.31421e-05,-1.63282e-05,5.94826e-05,3.75712e-05,-4.57734e-06,-1.39948e-05
1022,1.31155e-05,-2.91202e-05,6.52176e-05,3.19276e-05,9.36219e-06,-8.99793e-06
1023,1.39235e-05,-2.04348e-05,6.5958e-05,3.16734e-05,3.07508e-05,-4.97634e-06
1024,1.50969e-05,-3.03613e-06,6.29191e-05,3.31496e-05,5.09695e-05,2.42888e-07
1025,1.86886e-05,3.94408e-06,5.99147e-05,3.41923e-05,6.3687e-05,2.14899e-06
1026,2.47125e-05,4.39322e-06,5.88032e-05,3.75521e-05,6.32527e-05,-1.6301e-06
1027,2.46369e-05,3.68322e-06,5.94853e-05,3.94361e-05,5.57209e-05,-5.39175e-06
1028,1.92083e-05,3.44835e-06,5.93707e-05,3.92877e-05,5.22678e-05,-5.39503e-06
1029,1.71246e-05,-2.10241e-06,5.87711e-05,3.7025e-05,5.06469e-05,-2.48819e-06
1030,1.99403e-05,-1.41583e-05,5.84987e-05,3.05176e-05,4.2506e-05,-1.58004e-06
1031,2.40451e-05,-2.10211e-05,5.46926e-05,2.78327e-05,2.46931e-05,-6.09102e-06
1032,2.44889e-05,-1.67888e-05,5.19828e-05,3.40144e-05,-2.07372e-06,-1.17891e-05
1033,2.02136e-05,-9.91632e-06,5.66638e-05,4.17554e-05,-2.38459e-05,-1.31835e-05
1034,1.62974e-05,-7.06313e-06,6.33765e-05,4.41653e-05,-2.50308e-05,-1.18213e-05
1035,1.68456e-05,-9.78717e-06,6.5887e-05,4.03846e-05,-8.87883e-06,-1.11443e-05
1036,2.00186e-05,-1.68671e-05,6.40908e-05,3.35851e-05,1.16842e-05,-1.06909e-05
1037,2.21757e-05,-1.99335e-05,5.96755e-05,2.97207e-05,2.8169e-05,-1.03704e-05
1038,2.24046e-05,-1.19726e-05,5.50123e-05,3.28451e-05,3.65235e-05,-1.13401e-05
1039,2.22934e-05,5.29521e-07,5.47668e-05,3.90905e-05,3.4611e-05,-1.30216e-05
1040,2.26554e-05,5.38179e-06,6.07671e-05,4.13369e-05,2.89069e-05,-1.27068e-05
1041,2.3602e-05,-4.34146e-07,6.73234e-05,3.8132e-05,2.97603e-05,-8.45053e-06
1042,2.33758e-05,-1.24229e-05,6.96866e-05,3.29687e-05,3.81187e-05,-2.48762e-06
1043,2.04232e-05,-1.9788e-05,6.55179e-05,3.17505e-05,4.38638e-05,1.32816e-06
1044,1.59489e-05,-1.4918e-05,5.66632e-05,3.67876e-05,3.76914e-05,1.87901e-06
1045,1.31777e-05,-5.60454e-06,5.38052e-05,4.33762e-05,1.92727e-05,-1.24011e-06
1046,1.22339e-05,-4.50028e-06,6.1536e-05,4.71548e-05,2.39781e-06,-7.6902e-06
1047,1.13538e-05,-9.89607e-06,6.74497e-05,4.68718e-05,-1.51062e-07,-1.06878e-05
1048,1.05596e-05,-1.86123e-05,6.46217e-05,4.01791e-05,7.71088e-06,-5.7541e-06
1049,1.17349e-05,-2.23304e-05,5.9794e-05,3.37871e-05,1.63904e-05,3.33024e-07
1050,1.0828e-05,-1.02e-05,5.60954e-05,3.74493e-05,1.71639e-05,3.50608e-07
1051,5.49048e-06,-2.41657e-07,4.97875e-05,4.30844e-05,7.74953e-06,-4.518e-06
1052,3.09224e-06,-4.42058e-06,4.1207e-05,4.57407e-05,-3.09996e-06,-8.38218e-06
1053,3.87115e-06,-8.12694e-06,3.88983e-05,4.83663e-05,-9.01481e-06,-9.18226e-06
1054,3.2074e-06,-7.28078e-06,4.55473e-05,4.76056e-05,-7.04896e-06,-8.26111e-06
1055,5.8578e-07,-6.29829e-06,5.22685e-05,4.49726e-05,2.81718e-06,-8.85084e-06
1056,-1.03524e-06,-1.07242e-05,5.43213e-05,4.11642e-05,1.69084e-05,-1.0796e-05
1057,8.27239e-08,-2.03284e-05,5.33296e-05,3.57569e-05,2.41454e-05,-1.23081e-05
1058,1.85075e-06,-2.22315e-05,5.17966e-05,3.37763e-05,1.94112e-05,-1.43132e-05
1059,1.19632e-06,-1.07682e-05,5.05497e-05,3.87465e-05,8.92846e-06,-1.65469e-05
1060,-1.84118e-06,2.37472e-06,5.03336e-05,4.44758e-05,1.26683e-06,-1.73773e-05
1061,-2.74874e-06,6.95986e-06,5.15335e-05,4.5117e-05,2.427e-06,-1.55608e-05
1062,-1.08625e-06,-1.4459e-07,5.35954e-05,4.04268e-05,1.00155e-05,-1.1277e-05
1063,1.85075e-06,-1.44337e-05,5.52514e-05,3.47496e-05,1.58247e-05,-7.40424e-06
1064,5.09398e-06,-2.20755e-05,5.55875e-05,3.5664e-05,1.40755e-05,-5.73712e-06
1065,6.52178e-06,-1.49398e-05,5.52381e-05,4.24508e-05,4.88912e-06,-4.67569e-06
1066,5.16721e-06,-2.4575e-06,5.81517e-05,4.58775e-05,-9.06091e-06,-2.06649e-06
1067,3.97622e-06,2.26118e-06,6.37397e-05,4.20401e-05,-1.6839e-05,2.52033e-06
1068,4.57863e-06,-3.52614e-06,6.68999e-05,3.62224e-05,-1.02775e-05,5.95327e-06
1069,6.4777e-06,-1.52559e-05,6.54247e-05,3.13791e-05,5.78267e-06,5.48381e-06
1070,1.01256e-05,-2.13411e-05,5.85177e-05,2.99557e-05,1.71852e-05,8.79397e-07
1071,1.42279e-05,-1.57713e-05,5.2133e-05,3.39242e-05,1.53448e-05,-4.71987e-06
1072,1.40882e-05,-7.55899e-06,5.22653e-05,3.78316e-05,9.63175e-06,-8.84852e-06
1073,9.56286e-06,-5.04294e-06,5.53835e-05,3.76719e-05,9.83417e-06,-1.1787e-05
1074,7.78065e-06,-8.71221e-06,5.80002e-05,3.55027e-05,1.05702e-05,-1.1976e-05
1075,8.69986e-06,-1.99802e-05,5.61752e-05,3.02341e-05,4.78811e-06,-1.02501e-05
1076,9.75176e-06,-2.86232e-05,5.38889e-05,2.56565e-05,-1.63905e-08,-8.56535e-06
1077,1.17741e-05,-1.97269e-05,5.85788e-05,3.10348e-05,5.46212e-06,-6.91723e-06
1078,1.38338e-05,-8.30509e-06,6.47916e-05,4.01066e-05,1.27447e-05,-6.92642e-06
1079,1.4365e-05,-7.86665e-06,6.40112e-05,4.3514e-05,1.9745e-05,-7.55901e-06
1080,1.22356e-05,-1.11965e-05,5.67899e-05,4.06893e-05,3.31561e-05,-7.53801e-06
1081,7.61107e-06,-1.51336e-05,5.44831e-05,3.48767e-05,4.84375e-05,-8.19186e-06
1082,5.27732e-06,-1.54705e-05,5.50098e-05,3.25543e-05,5.54566e-05,-9.44386e-06
1083,7.60379e-06,-1.53478e-05,5.37462e-05,3.04814e-05,5.10015e-05,-9.411e-06
1084,1.22076e-05,-1.77694e-05,4.99876e-05,2.6307e-05,4.03031e-05,-8.28528e-06
1085,1.64494e-05,-1.62471e-05,4.45044e-05,2.65407e-05,2.84795e-05,-6.87638e-06
1086,1.86891e-05,-7.87502e-06,3.96668e-05,3.29239e-05,1.86471e-05,-4.78154e-06
1087,1.77112e-05,-1.70897e-06,3.93464e-05,3.83233e-05,1.1837e-05,-3.91434e-06
1088,1.42628e-05,-3.22679e-06,4.42256e-05,3.85103e-05,9.34521e-06,-4.90946e-06
1089,9.86087e-06,-1.13835e-05,4.89215e-05,3.37205e-05,8.88203e-06,-4.55614e-06
1090,6.56593e-06,-2.059e-05,4.90722e-05,2.66938e-05,9.11712e-06,-2.77612e-06
1091,5.24515e-06,-2.06338e-05,4.35505e-05,2.52824e-05,1.26362e-05,-3.60093e-06
1092,5.9055e-06,-9.82109e-06,3.75251e-05,3.34205e-05,1.9011e-05,-7.90918e-06
1093,6.66983e-06,4.72683e-07,3.77371e-05,4.23092e-05,2.422e-05,-1.14231e-05
1094,5.21467e-06,1.40701e-06,4.33502e-05,4.09068e-05,2.6817e-05,-1.18209e-05
1095,3.57149e-06,-5.08581e-06,4.79417e-05,3.12672e-05,2.70862e-05,-1.07436e-05
1096,2.01916e-06,-1.4757e-05,5.1922e-05,2.31884e-05,2.57319e-05,-9.13862e-06
1097,1.35114e-06,-1.87234e-05,5.28373e-05,2.47826e-05,2.67937e-05,-5.67226e-06
1098,3.08682e-06,-1.13118e-05,4.98003e-05,3.49178e-05,2.61649e-05,-1.27213e-06
1099,3.71015e-06,-3.84294e-07,4.9083e-05,4.20918e-05,1.34749e-05,-1.25387e-06
1100,2.10801e-06,3.47574e-06,5.12954e-05,4.08711e-05,-4.24272e-06,-7.76067e-06
1101,4.5578e-07,5.7161e-07,4.74058e-05,3.7332e-05,-1.2686e-05,-1.41232e-05
1102,-1.91847e-06,-9.59312e-06,4.0209e-05,3.28556e-05,-7.36527e-06,-1.54176e-05
1103,-1.67421e-06,-1.80808e-05,3.88367e-05,2.98533e-05,3.6511e-06,-1.63036e-05
1104,1.26248e-06,-1.17234e-05,4.19699e-05,3.25776e-05,1.06389e-05,-1.86467e-05
1105,3.11302e-06,-3.98688e-07,4.4501e-05,3.62685e-05,1.66202e-05,-1.94899e-05
1106,6.77293e-06,4.93124e-06,4.7218e-05,3.99615e-05,2.12516e-05,-1.65101e-05
1107,1.25685e-05,5.20055e-06,4.83082e-05,4.65849e-05,1.95615e-05,-1.3014e-05
1108,1.66196e-05,1.02259e-06,4.78989e-05,5.22803e-05,1.3481e-05,-1.07657e-05
1109,1.61858e-05,-3.51735e-06,5.12844e-05,5.14691e-05,1.25607e-05,-8.57119e-06
1110,1.32727e-05,-8.36698e-06,5.48533e-05,4.30289e-05,1.79588e-05,-7.70177e-06
1111,1.34723e-05,-1.51965e-05,5.32432e-05,3.56798e-05,2.11985e-05,-9.6091e-06
1112,1.65412e-05,-1.48026e-05,4.85872e-05,3.74504e-05,1.85358e-05,-1.1855e-05
1113,1.77702e-05,-2.85399e-06,4.72275e-05,4.41259e-05,1.0672e-05,-1.02081e-05
1114,1.43413e-05,9.07247e-06,5.19415e-05,4.67608e-05,4.23796e-07,-7.04563e-06
1115,9.49158e-06,1.29054e-05,5.8561e-05,4.41607e-05,-5.79461e-06,-5.21654e-06
1116,7.93441e-06,7.31723e-06,5.95054e-05,3.99952e-05,-4.16553e-06,-5.17974e-06
1117,1.17961e-05,-4.21548e-06,5.45022e-05,3.70633e-05,3.53249e-06,-7.23799e-06
1118,1.86671e-05,-9.76996e-06,4.80248e-05,3.8575e-05,1.40623e-05,-1.02532e-05
1119,2.50448e-05,-3.47642e-06,4.32186e-05,4.44982e-05,2.21177e-05,-1.09497e-05
1120,2.876e-05,5.07724e-06,4.3245e-05,4.78577e-05,2.29175e-05,-1.07495e-05
1121,2.95312e-05,7.03275e-06,4.95459e-05,4.43037e-05,1.61161e-05,-1.33962e-05
1122,2.80728e-05,1.57301e-06,5.42806e-05,3.77208e-05,6.72444e-06,-1.6369e-05
1123,2.43803e-05,-9.3821e-06,5.11063e-05,3.2223e-05,-1.38706e-06,-1.64207e-05
1124,2.12744e-05,-1.54647e-05,4.64804e-05,3.11178e-05,-5.5181e-06,-1.62206e-05
1125,2.01745e-05,-7.79025e-06,4.8962e-05,3.56302e-05,-6.22296e-06,-1.74065e-05
1126,1.91106e-05,5.91242e-06,5.67263e-05,4.12836e-05,-7.97847e-06,-1.84179e-05
1127,1.84797e-05,1.36861e-05,6.00417e-05,4.28317e-05,-7.647e-06,-1.8495e-05
1128,1.94519e-05,1.26267e-05,5.80258e-05,4.18623e-05,-1.85277e-06,-1.73519e-05
1129,1.96405e-05,-4.84692e-07,5.59815e-05,3.87066e-05,7.86003e-07,-1.44781e-05
1130,1.98384e-05,-1.33387e-05,5.46622e-05,3.6469e-05,-5.4672e-10,-1.02371e-05
1131,1.89711e-05,-6.49549e-06,5.46152e-05,3.96643e-05,2.88512e-06,-6.86166e-06
1132,1.47614e-05,5.68134e-06,5.31186e-05,4.09622e-05,8.82302e-06,-6.02514e-06
1133,1.26125e-05,6.42467e-06,4.73426e-05,4.0551e-05,1.3897e-05,-7.79476e-06
1134,1.21544e-05,4.48517e-06,4.07508e-05,4.40229e-05,1.37876e-05,-9.83167e-06
1135,8.70237e-06,6.59896e-06,4.0616e-05,4.70578e-05,9.1303e-06,-9.57206e-06
1136,5.58895e-06,8.70028e-06,4.65646e-05,4.49114e-05,8.08883e-06,-5.45129e-06
1137,7.3423e-06,4.06083e-06,5.15033e-05,3.79196e-05,1.31894e-05,-1.11071e-06
1138,1.08196e-05,-7.18888e-06,5.30582e-05,3.18224e-05,1.74606e-05,-5.31705e-07
1139,1.19256e-05,-1.38618e-05,5.19261e-05,3.35605e-05,2.07311e-05,-2.21947e-06
1140,1.13069e-05,-9.09538e-06,5.11033e-05,4.29284e-05,2.06913e-05,-3.95706e-06
1141,1.03823e-05,-9.68106e-07,5.25566e-05,4.94337e-05,1.61031e-05,-5.78375e-06
1142,9.78677e-06,3.07697e-06,5.39905e-05,4.79713e-05,1.33798e-05,-7.10824e-06
1143,9.16269e-06,-9.02171e-07,5.68228e-05,3.92725e-05,1.7561e-05,-5.90663e-06
1144,9.26352e-06,-1.17001e-05,6.33525e-05,2.6919e-05,2.43179e-05,-2.13358e-06
1145,9.98257e-06,-1.90852e-05,6.55308e-05,2.163e-05,2.69857e-05,1.6421e-06
1146,1.10376e-05,-1.48881e-05,5.80416e-05,3.01977e-05,2.50662e-05,1.79215e-06
1147,1.20739e-05,-5.45522e-06,4.96762e-05,4.27175e-05,2.06211e-05,-1.93379e-06
1148,1.33882e-05,-1.4514e-06,4.86225e-05,4.82678e-05,1.83696e-05,-6.56068e-06
1149,1.34668e-05,-5.80949e-06,5.06954e-05,4.78451e-05,1.89206e-05,-8.65911e-06
1150,1.18122e-05,-1.58109e-05,4.79816e-05,4.34686e-05,1.90187e-05,-8.75049e-06
1151,1.16621e-05,-2.10507e-05,4.17091e-05,3.91553e-05,1.66998e-05,-1.0856e-05
1152,1.52297e-05,-1.3915e-05,3.83321e-05,4.10128e-05,1.4809e-05,-1.52822e-05
1153,1.6942e-05,-2.82447e-06,4.1635e-05,4.65018e-05,1.3249e-05,-1.80987e-05
1154,1.30067e-05,9.53075e-07,4.88796e-05,4.83592e-05,1.18799e-05,-1.74448e-05
1155,9.43448e-06,-4.68468e-06,5.18582e-05,4.58256e-05,1.67522e-05,-1.65023e-05
1156,1.0255e-05,-1.74284e-05,4.7171e-05,4.1121e-05,2.08829e-05,-1.57345e-05
1157,1.10546e-05,-2.44572e-05,4.26658e-05,3.64577e-05,1.91289e-05,-1.38446e-05
1158,7.61521e-06,-1.43162e-05,4.40427e-05,3.63611e-05,1.85476e-05,-1.1433e-05
1159,5.44126e-06,-1.18318e-06,4.55724e-05,3.91595e-05,2.14461e-05,-1.08743e-05
1160,7.22559e-06,4.0851e-07,4.38416e-05,4.0358e-05,2.47732e-05,-1.57867e-05
1161,8.7078e-06,-2.07438e-06,4.28371e-05,4.05121e-05,2.12643e-05,-2.18e-05
1162,7.40846e-06,-2.16351e-06,4.86596e-05,3.92772e-05,1.33957e-05,-2.30341e-05
1163,7.16701e-06,-4.70999e-08,5.50274e-05,3.93319e-05,9.25841e-06,-1.95026e-05
1164,7.68228e-06,-3.14975e-06,5.31513e-05,3.82542e-05,1.29362e-05,-1.62422e-05
1165,6.78679e-06,-1.41529e-05,4.50379e-05,3.39293e-05,1.94586e-05,-1.31904e-05
1166,5.87551e-06,-1.7676e-05,3.89527e-05,3.28868e-05,2.24632e-05,-3.08956e-06
1167,6.73863e-06,-6.72228e-06,3.95513e-05,3.89587e-05,1.79334e-05,1.05376e-05
1168,1.07367e-05,4.39863e-06,4.54016e-05,4.5092e-05,1.06123e-05,1.58656e-05
1169,1.59303e-05,4.15506e-06,5.27193e-05,4.51291e-05,1.24968e-05,1.02772e-05
1170,1.82245e-05,-5.08263e-06,5.70394e-05,3.90209e-05,2.45342e-05,1.11715e-06
1171,1.67977e-05,-1.35233e-05,5.76627e-05,3.05826e-05,3.44317e-05,-2.44762e-06
1172,1.43448e-05,-1.04231e-05,5.56679e-05,2.72609e-05,3.33864e-05,-3.80611e-07
1173,1.25308e-05,4.52938e-06,5.48953e-05,3.2963e-05,2.56951e-05,-6.7825e-07
1174,1.21458e-05,1.73991e-05,5.90199e-05,4.24923e-05,2.02214e-05,-6.53146e-06
1175,1.33079e-05,1.74132e-05,6.58458e-05,4.64307e-05,2.17822e-05,-1.31269e-05
1176,1.58806e-05,6.19106e-06,6.85133e-05,4.11017e-05,2.41586e-05,-1.54414e-05
1177,1.92932e-05,-9.34729e-06,6.51359e-05,3.12763e-05,2.26157e-05,-1.40424e-05
1178,2.33098e-05,-1.67032e-05,5.59814e-05,2.7173e-05,2.03489e-05,-1.25038e-05
1179,2.6646e-05,-6.75951e-06,4.64759e-05,3.31357e-05,1.72326e-05,-1.32967e-05
1180,2.86567e-05,7.84622e-06,4.72818e-05,4.16305e-05,9.66405e-06,-1.44504e-05
1181,2.75354e-05,1.07337e-05,5.60366e-05,4.23194e-05,7.24761e-06,-1.38605e-05
1182,1.96e-05,2.65124e-06,6.08399e-05,3.56572e-05,1.20664e-05,-1.34554e-05
1183,1.23387e-05,-1.35857e-05,5.82207e-05,2.68638e-05,1.153e-05,-1.55915e-05
1184,1.40598e-05,-2.53226e-05,5.60457e-05,2.2859e-05,7.48267e-06,-1.8001e-05
1185,1.93339e-05,-1.66654e-05,5.73139e-05,3.05e-05,5.42197e-06,-1.65974e-05
1186,2.21193e-05,-2.29603e-06,6.02466e-05,3.99347e-05,5.22387e-06,-1.03662e-05
1187,2.21795e-05,1.61654e-06,6.03126e-05,3.8156e-05,5.63012e-06,-3.48083e-06
1188,2.1672e-05,1.22942e-06,5.559e-05,3.2422e-05,3.41935e-06,6.80994e-07
1189,2.04245e-05,1.31599e-06,5.54504e-05,3.07054e-05,9.27755e-07,-7.73892e-07
1190,1.92261e-05,4.5918e-07,5.82652e-05,3.29831e-05,2.06148e-06,-6.31523e-06
1191,1.71008e-05,-7.19807e-06,6.05318e-05,3.42595e-05,3.13052e-06,-8.15307e-06
1192,1.41291e-05,-1.97798e-05,6.01766e-05,3.25662e-05,-3.17926e-06,-4.50121e-06
1193,1.33205e-05,-2.2491e-05,5.58136e-05,3.41924e-05,-1.24833e-05,-2.20596e-06
1194,1.4507e-05,-1.2011e-05,5.16186e-05,4.14051e-05,-2.00999e-05,-5.00011e-06
1195,1.55339e-05,-1.91211e-06,5.21268e-05,4.66192e-05,-2.45505e-05,-9.39478e-06
1196,1.70895e-05,-1.14148e-06,5.58476e-05,4.45151e-05,-2.30506e-05,-1.23589e-05
1197,1.78114e-05,-9.39565e-06,5.77531e-05,3.74634e-05,-1.42313e-05,-1.23943e-05
1198,1.60805e-05,-2.15971e-05,5.62107e-05,2.81634e-05,-4.07209e-06,-8.93936e-06
1199,1.52131e-05,-2.79634e-05,5.08359e-05,2.23486e-05,-3.80973e-07,-3.81304e-06
1200,1.65186e-05,-2.22963e-05,4.36903e-05,2.42317e-05,-1.11271e-06,5.35916e-07
1201,1.53511e-05,-1.2522e-05,4.14046e-05,2.91495e-05,3.31511e-06,4.00117e-06
1202,9.91904e-06,-8.55434e-06,4.57407e-05,3.0678e-05,1.87238e-05,6.46496e-06
1203,6.96622e-06,-1.16382e-05,4.95882e-05,2.8013e-05,3.359e-05,5.68286e-06
1204,7.46014e-06,-1.82835e-05,5.16564e-05,2.28156e-05,3.71872e-05,-6.44604e-09
1205,7.90022e-06,-1.93836e-05,5.12523e-05,2.04895e-05,3.28985e-05,-7.03574e-06
1206,8.69882e-06,-9.75306e-06,4.79255e-05,2.55476e-05,2.24662e-05,-1.09621e-05
1207,8.91052e-06,5.96418e-07,4.71446e-05,3.41544e-05,8.04256e-06,-1.21415e-05
1208,5.30125e-06,2.72982e-06,5.1015e-05,3.97736e-05,1.05685e-06,-1.36021e-05
1209,2.37414e-06,-2.11422e-06,5.35346e-05,4.09112e-05,5.14429e-06,-1.74974e-05
1210,5.23714e-06,-1.53283e-05,5.0719e-05,3.71702e-05,3.84112e-06,-2.298e-05
1211,9.34982e-06,-2.69355e-05,4.80052e-05,3.38598e-05,-3.13079e-06,-2.68122e-05
1212,8.46329e-06,-1.78126e-05,5.12039e-05,3.5683e-05,4.05817e-07,-2.69524e-05
1213,3.88538e-06,-1.48449e-06,5.60601e-05,3.7831e-05,1.49318e-05,-2.31047e-05
1214,3.05223e-06,1.16791e-06,5.40462e-05,3.87624e-05,3.73248e-05,-1.67073e-05
1215,4.5269e-06,-1.52985e-06,4.60974e-05,3.99296e-05,5.66539e-05,-1.15909e-05
1216,3.46434e-06,-8.91339e-07,4.45024e-05,4.07191e-05,6.35158e-05,-1.02086e-05
1217,1.20428e-06,2.06898e-06,4.83445e-05,3.95829e-05,5.66963e-05,-9.47314e-06
1218,-1.84676e-06,-8.45005e-07,5.28252e-05,3.52442e-05,4.45569e-05,-5.92069e-06
1219,-2.67571e-06,-1.28224e-05,5.34573e-05,3.08335e-05,3.55443e-05,-2.63136e-07
1220,6.19868e-07,-2.0651e-05,5.02762e-05,3.29075e-05,3.18543e-05,3.3738e-06
1221,5.89688e-06,-1.43261e-05,4.86583e-05,4.11735e-05,2.69425e-05,3.2601e-06
1222,7.983e-06,-2.52916e-06,5.31101e-05,4.7749e-05,1.75046e-05,2.88577e-06
1223,8.40768e-06,4.54994e-06,6.00633e-05,4.78409e-05,1.16083e-05,5.07422e-06
1224,1.03446e-05,1.63163e-06,6.30999e-05,4.25278e-05,1.29794e-05,9.21951e-06
1225,1.34652e-05,-8.98602e-06,6.11317e-05,3.62714e-05,1.67008e-05,1.1508e-05
1226,1.58997e-05,-1.45392e-05,5.43261e-05,3.5015e-05,1.7658e-05,1.02471e-05
1227,1.65159e-05,-7.51853e-06,4.737e-05,4.17279e-05,1.70012e-05,7.89247e-06
1228,1.5495e-05,4.74211e-06,4.65871e-05,5.16225e-05,1.77234e-05,5.5392e-06
1229,1.28821e-05,1.22871e-05,5.28038e-05,5.74554e-05,2.14242e-05,2.55762e-06
1230,1.17575e-05,1.08436e-05,5.82183e-05,5.52418e-05,2.62859e-05,-8.39995e-08
1231,1.26067e-05,1.78748e-07,6.01201e-05,4.67691e-05,3.19688e-05,-2.53173e-06
1232,1.37289e-05,-1.05861e-05,5.73465e-05,4.19859e-05,3.28637e-05,-5.905e-06
1233,1.46134e-05,-1.15784e-05,5.16447e-05,4.87671e-05,2.53912e-05,-7.79249e-06
1234,1.35945e-05,-6.1002e-06,4.91479e-05,5.98688e-05,1.53587e-05,-4.78308e-06
1235,1.14297e-05,-4.28899e-06,5.19071e-05,6.31708e-05,9.05207e-06,1.07457e-06
1236,9.70976e-06,-9.50802e-06,5.48805e-05,5.68061e-05,6.60616e-06,3.07765e-06
1237,6.39221e-06,-2.35411e-05,5.38585e-05,4.50756e-05,4.84241e-06,-1.63061e-06
1238,4.21876e-06,-3.40876e-05,5.02147e-05,3.76564e-05,1.89544e-06,-8.40942e-06
1239,3.69503e-06,-2.45485e-05,5.09306e-05,4.18381e-05,-4.34068e-07,-1.09533e-05
1240,4.9124e-06,-9.15805e-06,5.55257e-05,4.61765e-05,-1.58849e-06,-9.44174e-06
1241,8.21451e-06,-3.74545e-06,5.6771e-05,4.31057e-05,1.26234e-06,-9.10078e-06
1242,1.0931e-05,-3.97622e-06,5.11504e-05,3.9153e-05,4.61387e-06,-1.08805e-05
1243,1.05922e-05,-5.4994e-06,4.72728e-05,3.79765e-05,2.92061e-06,-1.24609e-05
1244,8.98235e-06,-6.08166e-06,4.90875e-05,3.90516e-05,3.65936e-06,-1.33373e-05
1245,6.43302e-06,-1.06925e-05,5.55117e-05,3.50457e-05,1.01522e-05,-1.45759e-05
1246,4.55692e-06,-1.98554e-05,6.11091e-05,2.52858e-05,1.40184e-05,-1.64341e-05
1247,6.64998e-06,-2.08206e-05,5.98974e-05,1.98587e-05,1.47313e-05,-1.73167e-05
1248,9.51993e-06,-9.53137e-06,5.50066e-05,2.48279e-05,1.97644e-05,-1.71958e-05
1249,1.05986e-05,1.34792e-06,5.40093e-05,3.34754e-05,3.41953e-05,-1.64307e-05
1250,1.13319e-05,3.93675e-06,5.77955e-05,3.77115e-05,5.48713e-05,-1.38756e-05
1251,1.1772e-05,-1.64416e-06,5.90223e-05,3.52548e-05,7.31687e-05,-9.56883e-06
1252,1.21645e-05,-1.08822e-05,5.58236e-05,2.81604e-05,8.29767e-05,-5.65218e-06
1253,1.49805e-05,-1.43705e-05,5.08093e-05,2.55099e-05,8.53733e-05,-3.78784e-06
1254,1.94139e-05,-7.96518e-06,4.73683e-05,3.18615e-05,8.20274e-05,-3.08741e-06
1255,2.09496e-05,1.21402e-06,4.72907e-05,3.95158e-05,6.64578e-05,-3.58846e-06
1256,1.78619e-05,4.44237e-06,5.1188e-05,4.17786e-05,3.94996e-05,-6.38831e-06
1257,1.49862e-05,-1.3596e-06,5.41091e-05,4.01085e-05,1.10073e-05,-1.12864e-05
1258,1.67676e-05,-1.47413e-05,5.31358e-05,3.62447e-05,-1.73939e-05,-1.8334e-05
1259,1.97224e-05,-2.27822e-05,4.88887e-05,3.41385e-05,-4.69051e-05,-2.59278e-05
1260,1.88434e-05,-1.53826e-05,4.65102e-05,3.85669e-05,-6.82746e-05,-2.9358e-05
1261,1.53008e-05,-9.34617e-07,4.75879e-05,4.47776e-05,-7.54724e-05,-2.79316e-05
1262,1.48728e-05,6.27036e-06,4.95865e-05,4.42379e-05,-6.85103e-05,-2.48569e-05
1263,1.68687e-05,1.12577e-06,5.00481e-05,3.74729e-05,-5.1666e-05,-1.92059e-05
1264,1.34216e-05,-1.54897e-05,4.84134e-05,2.96853e-05,-3.56744e-05,-9.77766e-06
1265,8.02423e-06,-2.72101e-05,4.86371e-05,2.76269e-05,-2.54908e-05,-4.63845e-07
1266,5.75822e-06,-1.74693e-05,4.74519e-05,3.23255e-05,-2.23498e-05,2.73399e-06
1267,4.80454e-06,-3.73652e-06,4.29136e-05,3.49851e-05,-2.19311e-05,-1.81671e-06
1268,3.96022e-06,-2.35767e-07,4.01634e-05,3.4155e-05,-1.17616e-05,-7.42077e-06
1269,4.46071e-06,-7.35204e-07,3.83457e-05,3.49668e-05,6.30381e-06,-7.78956e-06
1270,6.23153e-06,-2.01689e-06,3.99596e-05,3.83347e-05,1.93058e-05,-5.52487e-06
1271,6.46358e-06,-3.73965e-06,4.33108e-05,4.15034e-05,2.3012e-05,-5.84644e-06
1272,5.2773e-06,-9.28007e-06,4.60409e-05,3.95828e-05,2.49595e-05,-7.6246e-06
1273,5.83632e-06,-1.69348e-05,4.63424e-05,3.3364e-05,2.85426e-05,-8.82243e-06
1274,9.37484e-06,-1.70058e-05,4.20719e-05,3.0404e-05,3.16117e-05,-1.18272e-05
1275,1.20765e-05,-4.13904e-06,3.79771e-05,3.55726e-05,2.90752e-05,-1.5497e-05
1276,1.00306e-05,1.00851e-05,4.03995e-05,4.28217e-05,2.02749e-05,-1.63556e-05
1277,6.70231e-06,1.42451e-05,4.72318e-05,4.61689e-05,1.26172e-05,-1.54659e-05
1278,5.63475e-06,5.61699e-06,5.31485e-05,4.39717e-05,1.3728e-05,-1.58264e-05
1279,6.48029e-06,-9.25757e-06,5.79428e-05,3.87236e-05,2.21396e-05,-1.73999e-05
1280,8.65138e-06,-1.61724e-05,5.94399e-05,3.76319e-05,3.01964e-05,-1.91473e-05
1281,1.25736e-05,-9.76198e-06,5.62424e-05,4.29249e-05,3.45401e-05,-2.15322e-05
1282,1.53156e-05,-1.01563e-06,5.37844e-05,4.72217e-05,3.50559e-05,-2.44905e-05
1283,1.49814e-05,-7.96357e-07,5.59336e-05,4.53446e-05,3.38799e-05,-2.59213e-05
1284,1.29672e-05,-9.60442e-06,5.77044e-05,3.96167e-05,3.13352e-05,-2.34078e-05
1285,1.07052e-05,-2.29865e-05,5.62109e-05,3.22602e-05,2.85608e-05,-1.79191e-05
1286,1.01427e-05,-2.84988e-05,5.03779e-05,2.81383e-05,2.64252e-05,-1.3521e-05
1287,1.16733e-05,-1.69435e-05,4.56016e-05,3.29355e-05,2.28935e-05,-1.20452e-05
1288,1.4111e-05,2.57655e-07,4.95073e-05,4.2931e-05,1.69808e-05,-1.2389e-05
1289,1.30874e-05,5.78896e-06,5.71128e-05,4.777e-05,1.70432e-05,-1.39373e-05
1290,9.20979e-06,-2.4556e-06,5.74277e-05,4.34424e-05,2.69556e-05,-1.64287e-05
1291,6.30207e-06,-1.99763e-05,5.29056e-05,3.1711e-05,3.25682e-05,-2.04565e-05
1292,3.76545e-06,-3.1169e-05,5.12329e-05,2.12927e-05,3.47564e-05,-2.61564e-05
1293,4.01582e-06,-1.95486e-05,5.0671e-05,2.15914e-05,4.47592e-05,-2.78553e-05
1294,1.00351e-05,-1.82787e-06,4.70734e-05,2.91256e-05,5.3973e-05,-2.24811e-05
1295,1.68231e-05,2.70332e-06,4.15744e-05,3.5536e-05,5.36588e-05,-1.42365e-05
1296,1.89474e-05,6.50396e-07,4.02973e-05,3.86712e-05,4.43658e-05,-4.83016e-06
1297,1.50761e-05,-3.43895e-07,4.69642e-05,3.79356e-05,3.27519e-05,2.32877e-06
1298,1.0225e-05,5.16771e-07,5.17209e-05,3.74894e-05,2.66838e-05,2.95304e-06
1299,8.74196e-06,-5.30774e-06,5.07028e-05,3.78984e-05,2.75805e-05,-1.01717e-06
1300,9.77694e-06,-1.74967e-05,4.807e-05,3.66575e-05,2.87856e-05,-5.52748e-06
1301,1.19664e-05,-2.07631e-05,4.70714e-05,3.79806e-05,2.7798e-05,-7.19487e-06
1302,1.54204e-05,-7.66299e-06,4.67962e-05,4.34436e-05,2.39331e-05,-5.49534e-06
1303,1.70896e-05,7.60916e-06,4.6799e-05,4.84029e-05,1.7742e-05,-4.13045e-06
1304,1.64452e-05,1.31441e-05,4.89639e-05,5.01471e-05,1.40255e-05,-4.42974e-06
1305,1.59235e-05,7.37859e-06,5.02845e-05,4.69809e-05,1.64082e-05,-5.22257e-06
1306,1.7239e-05,-5.16383e-06,4.83602e-05,3.88727e-05,2.08327e-05,-7.00333e-06
1307,2.00417e-05,-1.22634e-05,4.53436e-05,3.38312e-05,2.19813e-05,-9.32999e-06
1308,2.23774e-05,-8.16721e-06,4.73458e-05,3.686e-05,2.08148e-05,-9.03847e-06
1309,2.29622e-05,-2.47821e-06,5.52751e-05,4.22231e-05,2.13598e-05,-5.56329e-06
1310,2.02525e-05,-3.52174e-06,6.20453e-05,4.34286e-05,2.58273e-05,-2.25511e-06
1311,1.6137e-05,-7.93554e-06,6.1423e-05,3.91742e-05,2.99837e-05,-9.39455e-07
1312,1.30892e-05,-1.34949e-05,5.87022e-05,3.12812e-05,3.33997e-05,-1.77374e-06
1313,1.28765e-05,-1.56808e-05,5.80231e-05,2.7482e-05,3.8536e-05,-3.91732e-06
1314,1.45724e-05,-9.80191e-06,5.81213e-05,3.22827e-05,4.35131e-05,-5.76975e-06
1315,1.52484e-05,-1.02685e-06,5.80374e-05,3.90327e-05,4.19123e-05,-8.65951e-06
1316,1.57558e-05,1.62216e-06,5.81076e-05,4.1835e-05,3.46684e-05,-1.53825e-05
1317,1.62474e-05,-3.3439e-06,5.85179e-05,4.05954e-05,2.94542e-05,-2.18628e-05
1318,1.66747e-05,-1.67913e-05,5.74654e-05,3.41299e-05,2.60269e-05,-2.52564e-05
1319,1.74913e-05,-2.85969e-05,5.35318e-05,2.94691e-05,1.70768e-05,-2.83945e-05
1320,1.5053e-05,-2.30723e-05,4.90691e-05,3.59197e-05,4.24059e-06,-3.02815e-05
1321,1.29449e-05,-1.13263e-05,4.77026e-05,4.32852e-05,-8.61919e-06,-2.78836e-05
1322,1.34478e-05,-7.6165e-06,4.96529e-05,4.31298e-05,-2.45233e-05,-2.53158e-05
1323,1.46189e-05,-6.97472e-06,5.23998e-05,4.20729e-05,-4.0473e-05,-2.51024e-05
1324,1.47182e-05,-7.43503e-06,5.71164e-05,4.41318e-05,-4.65803e-05,-2.18218e-05
1325,1.47705e-05,-7.63863e-06,6.08367e-05,4.73578e-05,-3.81703e-05,-2.05946e-05
1326,1.44878e-05,-1.20254e-05,6.13093e-05,4.51975e-05,-2.0844e-05,-2.62878e-05
1327,1.40851e-05,-2.17251e-05,5.82281e-05,3.90228e-05,-5.69471e-06,-3.3481e-05
1328,1.61128e-05,-2.37588e-05,4.98417e-05,3.65626e-05,2.22058e-06,-3.73206e-05
1329,1.78166e-05,-1.27906e-05,4.11411e-05,3.86415e-05,1.6282e-06,-3.61807e-05
1330,1.64301e-05,-1.48471e-06,4.12776e-05,4.0881e-05,-4.92483e-06,-3.18201e-05
1331,1.33898e-05,9.07438e-07,5.07911e-05,4.20168e-05,-8.91551e-06,-2.64745e-05
1332,1.22305e-05,-5.63129e-06,5.88766e-05,3.91683e-05,-5.76652e-06,-2.25265e-05
1333,1.43564e-05,-1.64955e-05,5.92853e-05,3.09517e-05,2.04891e-06,-2.09708e-05
1334,1.87399e-05,-2.00029e-05,5.6373e-05,2.68415e-05,7.93981e-06,-2.02264e-05
1335,2.14179e-05,-1.01812e-05,5.63857e-05,3.34691e-05,8.04308e-06,-1.4149e-05
1336,2.01228e-05,3.02379e-06,6.0965e-05,4.29765e-05,4.45462e-06,1.48878e-06
1337,1.70967e-05,6.69122e-06,6.70596e-05,4.5409e-05,1.81035e-06,1.85699e-05
1338,1.53609e-05,-1.55325e-06,6.65521e-05,4.13087e-05,1.93093e-06,2.30465e-05
1339,1.52908e-05,-1.61283e-05,5.98058e-05,3.50098e-05,1.5627e-06,1.28557e-05
1340,1.80225e-05,-2.36482e-05,5.41983e-05,3.11696e-05,-6.12059e-07,-1.11711e-06
1341,2.15554e-05,-1.53601e-05,5.206e-05,3.15441e-05,-2.11747e-06,-8.00055e-06
1342,2.12271e-05,4.62217e-07,5.40419e-05,3.37835e-05,-2.66478e-06,-7.96545e-06
1343,1.61535e-05,8.26935e-06,5.86023e-05,3.49268e-05,-1.24564e-07,-8.00515e-06
1344,1.31949e-05,4.98151e-06,5.77674e-05,3.29899e-05,6.18213e-06,-9.20767e-06
1345,1.50502e-05,-6.0063e-06,5.23652e-05,2.88506e-05,9.69278e-06,-9.43159e-06
1346,1.47243e-05,-1.21076e-05,4.90883e-05,3.01843e-05,7.35407e-06,-1.04127e-05
1347,1.08646e-05,-2.57043e-06,4.8143e-05,3.80349e-05,2.83314e-06,-1.12987e-05
1348,8.23814e-06,6.217e-06,4.70229e-05,4.09894e-05,-2.59446e-06,-1.11894e-05
1349,1.0107e-05,3.43695e-06,4.42004e-05,3.96875e-05,-1.07306e-05,-1.38499e-05
1350,1.20787e-05,5.41701e-07,4.23317e-05,4.00419e-05,-2.06156e-05,-1.61843e-05
1351,1.09194e-05,2.53083e-06,4.51575e-05,3.87839e-05,-2.79314e-05,-1.32657e-05
1352,9.21715e-06,5.11671e-06,5.0115e-05,3.54998e-05,-2.9304e-05,-1.06685e-05
1353,8.76556e-06,-9.62257e-07,5.11504e-05,3.2324e-05,-2.59378e-05,-1.43459e-05
1354,9.49109e-06,-1.56673e-05,4.7665e-05,3.02734e-05,-2.29209e-05,-1.85173e-05
1355,1.14968e-05,-2.39585e-05,4.45966e-05,3.20308e-05,-2.16527e-05,-1.72223e-05
1356,1.42559e-05,-1.84873e-05,4.5851e-05,3.81635e-05,-1.86052e-05,-1.17378e-05
1357,1.55535e-05,-1.0084e-05,4.89345e-05,4.26892e-05,-8.9056e-06,-6.59954e-06
1358,1.44511e-05,-8.01621e-06,5.00324e-05,4.38411e-05,1.10551e-05,-4.82037e-06
1359,1.05668e-05,-1.19732e-05,4.868e-05,4.16379e-05,3.95015e-05,-7.29796e-06
1360,6.32944e-06,-1.80522e-05,4.50216e-05,3.68643e-05,6.69722e-05,-1.08015e-05
1361,5.605e-06,-1.86429e-05,3.96972e-05,3.53911e-05,8.52353e-05,-9.95424e-06
1362,9.42988e-06,-1.09504e-05,3.70438e-05,4.07878e-05,9.31471e-05,-4.39993e-06
1363,1.11931e-05,-2.07606e-06,3.95143e-05,4.55358e-05,9.03849e-05,1.57197e-06
1364,7.49734e-06,1.26803e-06,4.49443e-05,4.22698e-05,7.74299e-05,3.12141e-06
1365,4.4464e-06,-1.59712e-06,4.93137e-05,3.42176e-05,5.98934e-05,-5.30326e-07
1366,5.12269e-06,-1.01723e-05,5.04118e-05,2.65615e-05,4.49549e-05,-5.98211e-06
1367,7.82824e-06,-1.65343e-05,4.95858e-05,2.42497e-05,3.7579e-05,-1.06017e-05
1368,1.1093e-05,-1.05476e-05,4.95125e-05,3.07659e-05,3.70881e-05,-1.50843e-05
1369,1.11214e-05,2.59876e-06,5.61722e-05,4.05633e-05,3.35375e-05,-1.89423e-05
1370,5.79883e-06,9.02624e-06,6.63812e-05,4.45749e-05,2.46404e-05,-2.2794e-05
1371,2.33827e-06,5.62934e-06,7.04442e-05,4.25439e-05,1.94994e-05,-2.69539e-05
1372,4.80623e-06,-6.04346e-06,6.53942e-05,3.47167e-05,1.74822e-05,-3.04596e-05
1373,6.84774e-06,-1.62081e-05,5.93228e-05,2.82739e-05,1.62087e-05,-3.23421e-05
1374,7.14062e-06,-1.06778e-05,5.74471e-05,3.20374e-05,1.78766e-05,-2.7946e-05
1375,9.06933e-06,-5.34985e-07,5.6e-05,3.89084e-05,1.8407e-05,-1.85065e-05
1376,1.13604e-05,2.15657e-06,5.12802e-05,4.10271e-05,1.67253e-05,-1.18016e-05
1377,8.93979e-06,2.7473e-06,4.41448e-05,4.12934e-05,1.18605e-05,-9.19526e-06
1378,2.78423e-06,4.48171e-07,4.51439e-05,4.11377e-05,2.96674e-06,-9.69074e-06
1379,1.21136e-06,-5.65807e-06,5.38501e-05,4.08059e-05,-7.12723e-07,-1.09673e-05
1380,3.76292e-06,-1.46924e-05,6.11896e-05,3.86742e-05,4.82994e-06,-9.03631e-06
1381,5.64519e-06,-2.58663e-05,5.78725e-05,3.369e-05,1.14774e-05,-7.20159e-06
1382,5.97516e-06,-2.86793e-05,4.46154e-05,3.2963e-05,1.16169e-05,-1.04035e-05
1383,6.21675e-06,-1.68366e-05,3.33586e-05,3.95382e-05,7.85198e-06,-1.753e-05
1384,5.21214e-06,-8.67306e-07,3.46417e-05,4.66123e-05,7.44847e-06,-2.47514e-05
1385,4.18088e-06,8.32743e-06,4.37658e-05,4.68035e-05,1.08447e-05,-2.96989e-05
1386,4.68985e-06,5.93813e-06,4.98708e-05,3.9313e-05,1.42984e-05,-3.23318e-05
1387,6.28596e-06,-4.71474e-06,5.19142e-05,3.04791e-05,1.53251e-05,-3.39689e-05
1388,8.78415e-06,-1.15313e-05,5.34354e-05,2.99934e-05,1.50101e-05,-3.53278e-05
1389,1.06272e-05,-6.27689e-06,5.48042e-05,3.76662e-05,1.44131e-05,-3.62088e-05
1390,9.60745e-06,4.3836e-06,5.49952e-05,4.20822e-05,1.25071e-05,-3.66413e-05
1391,6.88174e-06,1.04647e-05,5.68189e-05,3.87344e-05,1.1917e-05,-3.83961e-05
1392,5.70186e-06,8.67716e-06,6.09346e-05,3.382e-05,1.64058e-05,-4.22935e-05
1393,5.36141e-06,-2.20559e-07,6.44375e-05,3.10174e-05,2.06851e-05,-4.49821e-05
1394,6.65552e-06,-7.89464e-06,6.26014e-05,3.06976e-05,2.077e-05,-4.31119e-05
1395,1.12554e-05,-4.78217e-06,5.69443e-05,3.50722e-05,1.89766e-05,-3.69708e-05
1396,1.4938e-05,5.38689e-06,5.5743e-05,4.05848e-05,1.34751e-05,-2.96422e-05
1397,1.28457e-05,1.14986e-05,6.00201e-05,4.14344e-05,9.45418e-06,-2.27689e-05
1398,8.25763e-06,7.9887e-06,5.76513e-05,3.93194e-05,1.40841e-05,-1.60219e-05
1399,5.78081e-06,-6.56098e-06,5.11686e-05,3.34246e-05,1.9881e-05,-9.89857e-06
1400,5.61559e-06,-1.90091e-05,5.01655e-05,2.6567e-05,2.36886e-05,-5.11929e-06
1401,7.98465e-06,-1.37012e-05,5.5799e-05,2.82012e-05,2.72228e-05,-2.58123e-06
1402,1.24815e-05,-2.67264e-06,6.18317e-05,3.31266e-05,2.70915e-05,-1.13588e-06
1403,1.492e-05,1.30992e-06,5.96189e-05,3.56679e-05,2.1591e-05,1.86444e-08
1404,1.44702e-05,4.67859e-06,5.16626e-05,3.92143e-05,8.0415e-06,-2.79519e-06
1405,1.19084e-05,9.01775e-06,4.83736e-05,4.04914e-05,-6.22984e-06,-1.02111e-05
1406,9.05316e-06,1.03308e-05,5.33266e-05,3.77486e-05,-8.32352e-06,-1.43296e-05
1407,7.1086e-06,2.49709e-06,5.94416e-05,3.28661e-05,2.45184e-06,-1.0709e-05
1408,5.68505e-06,-1.14597e-05,6.10589e-05,2.84584e-05,1.3585e-05,-4.59595e-06
1409,6.65644e-06,-1.80165e-05,5.86165e-05,2.96372e-05,1.56777e-05,-3.35511e-07
1410,9.44178e-06,-1.27263e-05,5.56122e-05,3.53374e-05,1.01986e-05,2.35906e-06
1411,1.17507e-05,-6.01064e-06,5.65747e-05,3.97334e-05,4.00357e-06,3.30943e-06
1412,1.31329e-05,-5.04331e-06,6.05814e-05,3.99404e-05,2.17353e-06,-6.36148e-08
1413,1.35821e-05,-1.04126e-05,6.32513e-05,3.50774e-05,3.14469e-06,-5.30899e-06
1414,1.35689e-05,-1.88033e-05,6.34764e-05,2.74516e-05,3.11986e-06,-6.42645e-06
1415,1.45718e-05,-2.08303e-05,6.07603e-05,2.45026e-05,2.03701e-06,-2.46103e-06
1416,1.66469e-05,-1.28021e-05,5.77744e-05,3.01617e-05,1.79807e-06,2.18747e-06
1417,1.63649e-05,-3.54706e-06,6.02732e-05,3.80387e-05,9.22429e-07,4.27616e-06
1418,1.24729e-05,-1.89895e-06,6.39307e-05,4.00656e-05,-6.17698e-08,4.72654e-06
1419,9.40083e-06,-8.36024e-06,6.14186e-05,3.59231e-05,2.87084e-06,3.9434e-06
1420,9.66369e-06,-1.82479e-05,5.72572e-05,3.06492e-05,7.93782e-06,1.55786e-06
1421,1.28003e-05,-2.05878e-05,5.66061e-05,3.1354e-05,1.15778e-05,-7.72686e-07
1422,1.88958e-05,-1.09403e-05,5.62572e-05,3.92464e-05,1.26399e-05,-8.28983e-07
1423,2.30211e-05,-4.48141e-07,5.38057e-05,4.57751e-05,8.75042e-06,1.29444e-06
1424,2.36579e-05,1.08679e-06,5.19157e-05,4.82335e-05,6.4076e-06,2.48722e-06
1425,2.34583e-05,-2.20175e-06,4.93871e-05,4.82612e-05,1.28072e-05,-1.20096e-06
1426,2.30434e-05,-1.0982e-05,4.72318e-05,4.26363e-05,2.0218e-05,-7.61676e-06
1427,2.19681e-05,-1.92444e-05,4.92189e-05,3.62466e-05,2.47669e-05,-1.20649e-05
1428,1.89193e-05,-1.11917e-05,5.52362e-05,3.71735e-05,2.59042e-05,-1.29138e-05
1429,1.62664e-05,3.85457e-06,5.55481e-05,3.86619e-05,2.07463e-05,-9.90503e-06
1430,1.75555e-05,9.54429e-06,4.85456e-05,3.7004e-05,1.73163e-05,-4.85087e-06
1431,2.22651e-05,7.44913e-06,4.36412e-05,3.78202e-05,1.85288e-05,-2.45534e-06
1432,2.38893e-05,4.86653e-06,4.62193e-05,4.10198e-05,2.07541e-05,-5.36297e-06
1433,2.25515e-05,3.5662e-06,5.19297e-05,4.41454e-05,2.56256e-05,-9.12292e-06
1434,2.03516e-05,-4.3839e-06,5.33987e-05,4.21964e-05,3.28165e-05,-8.56144e-06
1435,1.94168e-05,-2.01066e-05,4.84746e-05,3.50475e-05,3.47442e-05,-4.40369e-06
1436,2.23632e-05,-2.81695e-05,3.95985e-05,3.22118e-05,2.92634e-05,-7.77252e-07
1437,2.57715e-05,-1.97927e-05,3.58623e-05,3.78536e-05,1.64626e-05,1.00067e-06
1438,2.34421e-05,-7.96046e-06,4.15636e-05,4.40543e-05,2.05774e-06,8.97212e-07
1439,1.81916e-05,-4.86905e-06,4.85927e-05,4.34823e-05,-5.31881e-06,-1.2242e-06
1440,1.6347e-05,-1.11507e-05,4.7019e-05,3.72463e-05,-5.11409e-06,-3.78933e-06
1441,1.78584e-05,-2.02585e-05,4.12415e-05,3.04797e-05,-2.27218e-06,-5.69276e-06
1442,2.0234e-05,-2.32043e-05,3.86685e-05,3.01178e-05,3.16847e-07,-8.01696e-06
1443,2.19614e-05,-1.73498e-05,4.12037e-05,3.75788e-05,-1.53232e-07,-1.0197e-05
1444,2.03352e-05,-8.49434e-06,4.5526e-05,4.40826e-05,-4.93646e-06,-1.00256e-05
1445,1.63397e-05,-3.47012e-06,4.84708e-05,4.37272e-05,-4.15327e-06,-8.68672e-06
1446,1.471e-05,-5.47704e-06,4.95516e-05,3.91653e-05,7.92001e-06,-7.47504e-06
1447,1.40418e-05,-1.45296e-05,4.99115e-05,3.34879e-05,2.19503e-05,-5.63363e-06
1448,1.21222e-05,-2.21378e-05,4.76815e-05,3.17746e-05,2.69288e-05,-3.12381e-06
1449,9.27063e-06,-1.79208e-05,4.31972e-05,3.83131e-05,2.4925e-05,-3.9253e-07
1450,8.39023e-06,-5.09367e-06,4.33805e-05,4.58995e-05,2.02914e-05,3.15703e-06
1451,1.04512e-05,4.72595e-06,4.74238e-05,4.58974e-05,1.75213e-05,7.63222e-06
1452,1.51274e-05,3.98812e-06,5.02522e-05,3.99038e-05,1.80613e-05,1.22115e-05
1453,1.63994e-05,-9.01646e-06,4.86672e-05,3.31209e-05,1.81047e-05,1.57844e-05
1454,1.3792e-05,-2.02083e-05,4.51329e-05,3.01091e-05,1.63861e-05,1.67638e-05
1455,1.00685e-05,-1.32559e-05,4.48033e-05,3.44831e-05,1.70295e-05,1.36612e-05
1456,7.71501e-06,-3.9875e-08,4.69953e-05,3.98749e-05,1.76732e-05,9.37471e-06
1457,1.01828e-05,4.14289e-06,4.64268e-05,3.87838e-05,1.4879e-05,8.7895e-06
1458,1.2903e-05,2.78305e-06,4.60165e-05,3.50808e-05,7.7658e-06,1.07005e-05
1459,1.10697e-05,9.07164e-07,5.22701e-05,3.63072e-05,1.15348e-07,1.25906e-05
1460,7.73936e-06,2.5567e-06,6.14014e-05,4.2064e-05,-3.17606e-07,1.3673e-05
1461,7.67032e-06,-1.68613e-07,6.57779e-05,4.14296e-05,5.15543e-06,1.48767e-05
1462,7.97122e-06,-1.34756e-05,6.14163e-05,3.4683e-05,1.24574e-05,1.70682e-05
1463,8.02611e-06,-2.282e-05,5.23178e-05,3.27798e-05,1.76347e-05,1.91247e-05
1464,8.76317e-06,-1.61703e-05,4.80141e-05,3.92306e-05,1.77572e-05,2.18986e-05
1465,8.16581e-06,-2.77033e-06,5.28092e-05,4.56821e-05,1.29096e-05,2.27163e-05
1466,6.20728e-06,4.44976e-06,5.89392e-05,4.67941e-05,1.2127e-05,1.74592e-05
1467,4.74123e-06,3.90646e-08,5.73947e-05,4.23666e-05,2.24655e-05,7.9472e-06
1468,4.7434e-06,-1.10316e-05,5.23061e-05,3.46011e-05,3.51204e-05,7.13701e-07
1469,5.68322e-06,-1.47152e-05,5.03758e-05,3.12134e-05,3.92253e-05,-8.52049e-07
1470,8.04186e-06,-5.77741e-06,5.09958e-05,3.52706e-05,3.52505e-05,1.15581e-06
1471,1.05378e-05,4.42344e-06,5.19183e-05,4.13376e-05,2.93496e-05,4.64198e-06
1472,1.09914e-05,6.26199e-06,5.13389e-05,4.43778e-05,2.53894e-05,1.04939e-05
1473,1.04686e-05,1.09276e-06,4.86247e-05,4.28015e-05,2.45426e-05,1.7511e-05
1474,1.01845e-05,-8.95912e-06,4.52281e-05,3.50235e-05,2.33601e-05,2.03614e-05
1475,1.06972e-05,-1.58678e-05,4.31677e-05,2.76423e-05,1.84326e-05,1.65392e-05
1476,1.32173e-05,-1.14462e-05,4.44581e-05,2.8852e-05,1.23626e-05,9.3948e-06
1477,1.42472e-05,-2.37251e-06,4.99988e-05,3.34819e-05,8.81924e-06,4.59256e-06
1478,1.04357e-05,1.33641e-06,5.44574e-05,3.32837e-05,6.94189e-06,3.58243e-06
1479,7.91264e-06,-1.7294e-06,5.38192e-05,3.08542e-05,1.08986e-05,4.9936e-06
1480,8.92937e-06,-1.27937e-05,4.92895e-05,2.95157e-05,1.79178e-05,3.81652e-06
1481,9.63589e-06,-2.13282e-05,4.6188e-05,3.03949e-05,2.0861e-05,-4.98528e-07
1482,8.48065e-06,-1.24912e-05,5.07446e-05,3.30811e-05,2.48513e-05,-1.26352e-06
1483,5.49866e-06,1.45501e-06,5.66029e-05,3.42817e-05,2.92834e-05,2.54333e-06
1484,4.05322e-06,3.79153e-06,5.55849e-05,3.41951e-05,2.77812e-05,7.56068e-06
1485,5.37507e-06,-3.37134e-07,5.26239e-05,3.70517e-05,1.93065e-05,1.0775e-05
1486,5.58973e-06,-3.15466e-06,5.68925e-05,4.08286e-05,8.31894e-06,1.10363e-05
1487,4.73228e-06,-4.36057e-06,6.48192e-05,4.28933e-05,1.32436e-06,1.07768e-05
1488,5.82904e-06,-9.26803e-06,6.71354e-05,4.08785e-05,2.76026e-06,1.21809e-05
1489,7.04929e-06,-1.84357e-05,6.09716e-05,3.5733e-05,6.70137e-06,1.38017e-05
1490,5.66791e-06,-2.05582e-05,5.30731e-05,3.60292e-05,9.39312e-06,1.3321e-05
1491,4.00179e-06,-9.99941e-06,5.06631e-05,4.31386e-05,8.57296e-06,1.35364e-05
1492,5.61538e-06,-1.02316e-07,5.52307e-05,4.9124e-05,4.44835e-06,1.76593e-05
1493,9.58266e-06,-5.64494e-08,6.26822e-05,4.97421e-05,-4.01647e-08,2.11808e-05
1494,1.17061e-05,-8.11331e-06,6.67823e-05,4.55464e-05,-2.94358e-06,1.89943e-05
1495,1.13774e-05,-1.86575e-05,6.4313e-05,3.77174e-05,-6.30748e-06,1.21563e-05
1496,1.09093e-05,-2.23149e-05,5.60752e-05,3.35642e-05,-8.86947e-06,5.01583e-06
1497,1.04862e-05,-1.64067e-05,4.82478e-05,3.88255e-05,-1.82683e-06,1.05291e-06
1498,9.02274e-06,-8.46342e-06,4.83221e-05,4.77875e-05,1.61756e-05,9.68919e-08
1499,8.41979e-06,-6.08825e-06,5.48843e-05,4.96783e-05,3.70368e-05,-8.28243e-07
1500,9.88383e-06,-1.09984e-05,5.82236e-05,4.21292e-05,5.17281e-05,-3.99129e-06
1501,1.25811e-05,-2.21086e-05,5.72624e-05,3.11233e-05,5.66772e-05,-9.52189e-06
1502,1.55673e-05,-2.94975e-05,5.12693e-05,2.64717e-05,5.04511e-05,-1.46913e-05
1503,1.50623e-05,-2.39316e-05,4.18804e-05,3.26905e-05,3.76064e-05,-1.46281e-05
1504,8.02975e-06,-1.14305e-05,3.98657e-05,4.29588e-05,2.15598e-05,-1.04368e-05
1505,6.23181e-08,-3.51882e-06,4.60474e-05,4.80024e-05,4.15073e-06,-8.62507e-06
1506,-1.79419e-06,-4.94094e-06,5.17188e-05,4.54989e-05,-1.27366e-05,-1.04086e-05
1507,1.54292e-06,-1.66561e-05,4.89576e-05,3.86493e-05,-2.30388e-05,-1.10101e-05
1508,8.77917e-06,-2.668e-05,3.8453e-05,3.47525e-05,-2.00145e-05,-1.07391e-05
1509,1.42015e-05,-1.93069e-05,3.32753e-05,3.88474e-05,-9.32141e-06,-1.25983e-05
1510,1.50698e-05,-7.72353e-06,3.82618e-05,4.34845e-05,-1.97149e-06,-1.41337e-05
1511,1.53577e-05,-6.44773e-06,4.34963e-05,4.45559e-05,5.89375e-06,-1.4254e-05
1512,1.6302e-05,-7.59487e-06,4.32923e-05,4.64844e-05,1.50304e-05,-1.45918e-05
1513,1.7117e-05,-6.03425e-06,4.5531e-05,4.78698e-05,1.6994e-05,-1.44586e-05
1514,1.64048e-05,-2.99683e-06,5.10824e-05,4.62118e-05,1.81429e-05,-1.08383e-05
1515,1.49573e-05,-5.96964e-06,5.46223e-05,4.02756e-05,2.62375e-05,-5.80859e-06
1516,1.24104e-05,-1.77745e-05,5.50352e-05,3.43036e-05,3.59925e-05,-4.76112e-06
1517,1.10887e-05,-2.46156e-05,5.31183e-05,3.60808e-05,4.04201e-05,-7.19053e-06
1518,1.19854e-05,-1.77157e-05,5.05367e-05,4.38988e-05,3.70208e-05,-8.90002e-06
1519,1.33852e-05,-6.99331e-06,5.01963e-05,4.76325e-05,2.94431e-05,-1.03676e-05
1520,1.4749e-05,2.5118e-07,5.09299e-05,4.36398e-05,2.4551e-05,-1.46814e-05
1521,1.55921e-05,1.99232e-06,5.08587e-05,3.6426e-05,2.65685e-05,-2.04514e-05
1522,1.58049e-05,-1.80056e-06,5.10005e-05,3.03051e-05,3.1178e-05,-2.3734e-05
1523,1.69525e-05,-3.49921e-06,5.0231e-05,3.02612e-05,3.16788e-05,-2.36884e-05
1524,2.06323e-05,3.36889e-06,4.8082e-05,3.51848e-05,2.77876e-05,-2.3282e-05
1525,2.37145e-05,1.31753e-05,4.66706e-05,3.80715e-05,2.2482e-05,-2.40851e-05
1526,2.36484e-05,1.65529e-05,4.81843e-05,3.77425e-05,2.00592e-05,-2.44992e-05
1527,2.14167e-05,1.09631e-05,5.05174e-05,3.82255e-05,2.30119e-05,-2.38016e-05
1528,1.75976e-05,-1.17363e-06,5.06541e-05,3.90492e-05,2.53834e-05,-2.41247e-05
1529,1.5013e-05,-8.5017e-06,4.50874e-05,4.06269e-05,2.23256e-05,-2.7223e-05
1530,1.60916e-05,-1.74438e-06,3.92751e-05,4.35974e-05,1.57695e-05,-3.02288e-05
1531,1.74768e-05,1.11836e-05,4.3721e-05,4.37828e-05,2.30548e-06,-3.04661e-05
1532,1.75731e-05,1.66458e-05,5.50074e-05,4.05151e-05,-1.02511e-05,-3.10692e-05
1533,1.67248e-05,1.22395e-05,6.07198e-05,3.78535e-05,-8.22862e-06,-3.41532e-05
1534,1.68533e-05,3.30245e-07,5.78284e-05,3.54054e-05,-1.47127e-06,-3.77458e-05
1535,1.848e-05,-8.40662e-06,5.15087e-05,3.38238e-05,-3.13019e-06,-3.79473e-05
1536,1.73012e-05,-2.34608e-06,4.76817e-05,3.79791e-05,-8.3272e-06,-3.19335e-05
1537,1.36234e-05,6.22155e-06,4.72923e-05,4.3172e-05,-1.23593e-05,-2.48978e-05
1538,1.18181e-05,7.03563e-06,4.5632e-05,4.40597e-05,-7.6752e-06,-2.05628e-05
1539,1.14392e-05,7.94292e-06,4.50015e-05,4.12481e-05,5.6583e-06,-1.62385e-05
1540,1.02132e-05,9.73311e-06,5.1956e-05,3.75098e-05,1.65597e-05,-1.31926e-05
1541,8.15923e-06,8.12337e-06,5.78621e-05,3.5231e-05,2.22397e-05,-1.29249e-05
1542,6.26163e-06,-1.80841e-06,5.5188e-05,2.97665e-05,2.50393e-05,-1.43656e-05
1543,3.98852e-06,-1.76333e-05,5.03911e-05,2.16042e-05,2.49333e-05,-1.4207e-05
1544,3.66044e-06,-2.26454e-05,4.94312e-05,2.119e-05,2.02135e-05,-1.28914e-05
1545,5.59244e-06,-1.13074e-05,5.09112e-05,3.14645e-05,1.372e-05,-1.49197e-05
1546,7.05718e-06,1.011e-06,5.2678e-05,3.97682e-05,6.69953e-06,-2.18593e-05
1547,8.7856e-06,3.47548e-06,5.24155e-05,3.81016e-05,-5.94328e-06,-2.92911e-05
1548,1.1346e-05,-4.20684e-06,5.16361e-05,3.04907e-05,-2.80094e-05,-3.16117e-05
1549,1.34277e-05,-1.73166e-05,5.33602e-05,2.41825e-05,-4.95491e-05,-2.94057e-05
