Time_Index,DELTOID_Affected,DELTOID_NonAffected,BICEPS_Affected,BICEPS_NonAffected,FOREARM_Affected,FOREARM_NonAffected
1,1.30627e-06,1.3838e-05,3.59682e-05,3.37449e-05,2.38317e-05,3.8007e-05
2,8.25913e-07,1.20275e-05,3.64094e-05,2.17008e-05,3.16812e-05,3.86158e-05
3,-3.13825e-06,1.16771e-05,3.52127e-05,1.17435e-05,3.56956e-05,3.87902e-05
4,-6.73081e-06,1.14738e-05,3.41075e-05,1.10794e-05,3.82273e-05,4.11844e-05
5,-4.95541e-06,8.97614e-06,3.56952e-05,1.65554e-05,4.2272e-05,4.50372e-05
6,1.9606e-06,4.66283e-06,3.87489e-05,1.88747e-05,4.74633e-05,4.6949e-05
7,7.21729e-06,1.76984e-06,3.89002e-05,1.59565e-05,5.13862e-05,4.56637e-05
8,6.72583e-06,3.35269e-07,3.55628e-05,8.69185e-06,5.30611e-05,4.30066e-05
9,2.62192e-06,-1.32816e-06,3.2571e-05,1.84218e-06,5.34452e-05,4.06744e-05
10,-1.24949e-06,-2.73295e-06,3.1703e-05,3.57337e-06,5.32164e-05,3.82898e-05
11,-5.32376e-07,-3.05516e-06,3.19897e-05,1.42864e-05,5.09207e-05,3.53826e-05
12,4.52082e-06,-2.39891e-06,3.26106e-05,2.48475e-05,4.5436e-05,3.34292e-05
13,8.11173e-06,-1.71909e-06,3.20189e-05,3.03943e-05,4.04678e-05,3.32626e-05
14,6.56417e-06,-1.45261e-06,3.08728e-05,3.04738e-05,3.80482e-05,3.41531e-05
15,2.32351e-06,-1.08054e-06,3.07199e-05,2.82492e-05,3.51715e-05,3.45989e-05
16,-2.16904e-06,-7.27883e-07,3.02212e-05,3.09098e-05,3.20135e-05,3.27488e-05
17,-3.90536e-06,5.65865e-07,2.94525e-05,3.75203e-05,2.91908e-05,3.04585e-05
18,-3.70276e-07,2.72141e-06,2.97757e-05,3.8805e-05,2.60473e-05,2.95161e-05
19,2.32876e-06,5.20821e-06,2.9697e-05,3.45491e-05,2.05896e-05,2.69587e-05
20,6.53095e-07,6.56189e-06,2.77452e-05,3.04445e-05,1.4893e-05,2.35533e-05
21,-7.4861e-08,5.82649e-06,2.58931e-05,2.99829e-05,1.39541e-05,2.22352e-05
22,6.43042e-07,5.09011e-06,2.55501e-05,3.0838e-05,1.48477e-05,2.11868e-05
23,-1.68423e-06,6.29595e-06,2.56772e-05,2.74364e-05,1.33925e-05,1.78733e-05
24,-8.4039e-06,9.34933e-06,2.47705e-05,2.19683e-05,9.65305e-06,1.31855e-05
25,-1.47396e-05,1.24246e-05,2.45362e-05,2.22467e-05,8.15079e-06,8.06619e-06
26,-1.60406e-05,1.39998e-05,2.6549e-05,2.7066e-05,9.63916e-06,2.74201e-06
27,-1.35122e-05,1.38867e-05,2.88406e-05,3.19413e-05,1.22791e-05,-2.18686e-06
28,-1.05548e-05,1.34964e-05,3.03438e-05,3.28909e-05,1.41588e-05,-7.16309e-06
29,-8.99288e-06,1.37925e-05,3.32474e-05,2.79584e-05,1.64261e-05,-1.24115e-05
30,-1.15158e-05,1.34005e-05,3.63647e-05,2.55323e-05,1.83769e-05,-1.76328e-05
31,-1.74992e-05,1.22424e-05,3.68552e-05,3.38661e-05,1.8035e-05,-2.35965e-05
32,-1.9438e-05,1.10786e-05,3.73809e-05,4.75824e-05,1.77098e-05,-2.95995e-05
33,-1.21633e-05,9.91488e-06,4.02147e-05,5.56704e-05,1.88323e-05,-3.29702e-05
34,-2.3178e-06,9.5195e-06,4.28359e-05,5.308e-05,2.08919e-05,-3.4299e-05
35,-1.20661e-06,1.07893e-05,4.27467e-05,4.23884e-05,2.29986e-05,-3.64228e-05
36,-1.1408e-05,1.26503e-05,4.04946e-05,3.25946e-05,2.65223e-05,-3.96717e-05
37,-2.31406e-05,1.14597e-05,3.81217e-05,3.1923e-05,3.09889e-05,-4.14018e-05
38,-2.52001e-05,5.75228e-06,3.78346e-05,3.87562e-05,3.51117e-05,-4.1e-05
39,-1.81201e-05,-8.02752e-08,3.89777e-05,4.36759e-05,3.91205e-05,-4.06108e-05
40,-1.04334e-05,-1.85767e-06,3.81284e-05,4.28069e-05,4.12262e-05,-4.02732e-05
41,-6.8515e-06,-1.86417e-06,3.45962e-05,3.73977e-05,3.92386e-05,-3.79634e-05
42,-6.63305e-06,-1.94289e-06,3.18338e-05,3.17748e-05,3.61783e-05,-3.34097e-05
43,-1.04924e-05,-1.03044e-06,3.25545e-05,3.28757e-05,3.38742e-05,-2.79258e-05
44,-1.47196e-05,-1.52745e-06,3.65452e-05,4.08624e-05,3.19987e-05,-2.10343e-05
45,-1.15517e-05,-3.38113e-06,4.17512e-05,4.68576e-05,2.98463e-05,-1.26682e-05
46,-5.23579e-06,-2.73305e-06,4.31553e-05,4.46948e-05,2.97413e-05,-7.26167e-06
47,-1.88395e-06,1.1455e-07,4.06045e-05,3.97377e-05,3.18507e-05,-6.11959e-06
48,8.65598e-07,1.79176e-06,3.95552e-05,3.99792e-05,3.12931e-05,-6.01637e-06
49,6.12597e-06,1.81044e-06,4.10542e-05,4.16557e-05,2.89702e-05,-5.08823e-06
50,1.24345e-05,1.86826e-06,4.33013e-05,3.86738e-05,2.9852e-05,-3.93123e-06
51,1.14809e-05,2.42886e-06,4.32826e-05,3.67701e-05,3.33023e-05,-4.34987e-06
52,4.44921e-06,4.50795e-06,4.24497e-05,4.32346e-05,3.46972e-05,-4.62871e-06
53,1.4341e-06,6.50662e-06,4.35303e-05,5.12945e-05,3.59694e-05,-3.48648e-06
54,4.64635e-06,6.47741e-06,4.5866e-05,5.52679e-05,4.10372e-05,-1.50781e-06
55,6.73063e-06,6.01134e-06,4.73793e-05,5.43094e-05,4.75089e-05,8.23087e-07
56,4.15482e-06,7.00553e-06,4.75369e-05,5.09074e-05,5.31812e-05,4.17186e-06
57,-9.88096e-07,8.80559e-06,4.71944e-05,5.18254e-05,5.86398e-05,7.4044e-06
58,-5.69162e-06,9.80575e-06,4.65618e-05,6.21288e-05,6.26396e-05,8.81697e-06
59,-6.46034e-06,9.36771e-06,4.67812e-05,7.56426e-05,6.31729e-05,8.89356e-06
60,-2.80568e-06,7.23781e-06,4.75761e-05,8.30748e-05,6.18036e-05,8.77277e-06
61,2.03371e-06,5.94381e-06,4.69688e-05,8.19772e-05,6.21297e-05,9.57168e-06
62,4.29293e-06,7.2656e-06,4.48438e-05,7.2965e-05,6.39079e-05,1.04534e-05
63,1.13188e-06,9.42219e-06,4.29106e-05,6.27478e-05,6.44403e-05,1.00355e-05
64,-6.26128e-06,9.6065e-06,4.15219e-05,6.11434e-05,6.35473e-05,8.37729e-06
65,-1.04107e-05,8.58098e-06,4.06768e-05,6.8654e-05,6.21395e-05,6.60093e-06
66,-7.80416e-06,9.48408e-06,3.99517e-05,7.64626e-05,6.20625e-05,6.63249e-06
67,-3.96547e-06,1.21874e-05,4.00467e-05,8.03375e-05,6.54998e-05,9.34168e-06
68,-4.031e-06,1.53403e-05,4.13862e-05,7.87787e-05,6.94519e-05,1.14784e-05
69,-6.45052e-06,1.74873e-05,4.27262e-05,7.41181e-05,7.0094e-05,1.01694e-05
70,-1.07596e-05,1.7137e-05,4.19612e-05,7.37061e-05,6.64154e-05,7.89665e-06
71,-1.46827e-05,1.45291e-05,3.98218e-05,7.86945e-05,5.92262e-05,9.49519e-06
72,-1.19673e-05,1.24464e-05,3.98722e-05,7.93892e-05,5.42288e-05,1.6124e-05
73,-6.65208e-06,1.48605e-05,4.17893e-05,7.11606e-05,5.52674e-05,2.36695e-05
74,-4.97402e-06,1.92891e-05,4.26066e-05,6.09484e-05,5.53273e-05,2.82198e-05
75,-5.50299e-06,1.95108e-05,4.26302e-05,5.80037e-05,4.82596e-05,2.91597e-05
76,-7.51862e-06,1.60797e-05,4.23142e-05,5.85431e-05,3.63112e-05,2.81933e-05
77,-8.27119e-06,1.30541e-05,4.12067e-05,5.43651e-05,2.44082e-05,2.96502e-05
78,-7.50348e-06,1.08525e-05,3.99487e-05,4.69228e-05,1.64463e-05,3.47287e-05
79,-7.52864e-06,9.57315e-06,4.02036e-05,4.32297e-05,1.12411e-05,4.29138e-05
80,-6.90575e-06,9.82842e-06,4.23243e-05,4.25038e-05,6.33245e-06,5.26728e-05
81,-5.12426e-06,9.77037e-06,4.48499e-05,4.09257e-05,3.56893e-06,6.24376e-05
82,-5.67796e-06,8.75935e-06,4.56529e-05,3.76468e-05,2.42701e-06,6.94927e-05
83,-6.89685e-06,8.13677e-06,4.41254e-05,3.2546e-05,5.57866e-07,7.19967e-05
84,-8.02317e-06,8.6082e-06,4.322e-05,2.78943e-05,-1.60952e-06,7.20209e-05
85,-1.09637e-05,9.41573e-06,4.52472e-05,2.97352e-05,-2.30068e-06,7.22124e-05
86,-1.24469e-05,9.57872e-06,4.9059e-05,3.82661e-05,-1.00054e-07,7.23063e-05
87,-9.24288e-06,9.34679e-06,5.07111e-05,4.60315e-05,4.26167e-06,6.96133e-05
88,-4.33591e-06,1.0303e-05,4.80793e-05,4.83796e-05,8.15594e-06,6.39476e-05
89,-3.0388e-06,1.25662e-05,4.25995e-05,4.44573e-05,1.03496e-05,5.74239e-05
90,-5.61347e-06,1.59215e-05,3.8141e-05,3.86265e-05,1.25491e-05,5.2429e-05
91,-9.26704e-06,1.99098e-05,3.74526e-05,3.87001e-05,1.60998e-05,5.0037e-05
92,-1.01001e-05,2.24316e-05,4.03079e-05,4.72836e-05,1.94431e-05,5.1928e-05
93,-6.84379e-06,2.43269e-05,4.31117e-05,5.78521e-05,2.0357e-05,5.6571e-05
94,-2.58031e-06,2.73402e-05,4.37329e-05,6.27921e-05,1.95871e-05,5.98328e-05
95,-1.07953e-06,3.05718e-05,4.47236e-05,5.97198e-05,1.79153e-05,5.97637e-05
96,-3.74259e-06,3.42999e-05,4.61162e-05,5.42624e-05,1.59107e-05,5.69866e-05
97,-9.4927e-06,3.84277e-05,4.55174e-05,5.55356e-05,1.67963e-05,5.39485e-05
98,-1.17563e-05,4.10035e-05,4.35354e-05,6.5727e-05,2.07244e-05,5.51125e-05
99,-6.96082e-06,4.0305e-05,4.22195e-05,7.51776e-05,2.51938e-05,6.02767e-05
100,-2.96362e-06,3.58983e-05,4.06869e-05,7.92305e-05,3.04183e-05,6.15871e-05
101,-3.69761e-06,3.18068e-05,3.83421e-05,8.07245e-05,3.42978e-05,5.76749e-05
102,-4.94256e-06,2.96297e-05,3.63131e-05,8.39527e-05,3.63578e-05,5.33246e-05
103,-5.22942e-06,2.79149e-05,3.43226e-05,8.71082e-05,3.83584e-05,4.96721e-05
104,-4.37801e-06,2.69791e-05,3.45802e-05,8.44351e-05,3.88743e-05,4.69474e-05
105,-6.18526e-06,2.62484e-05,3.74112e-05,7.92129e-05,3.84766e-05,4.56135e-05
106,-9.91686e-06,2.57739e-05,4.09842e-05,8.05935e-05,3.80481e-05,4.74972e-05
107,-9.90188e-06,2.4337e-05,4.39476e-05,8.65946e-05,3.65535e-05,5.17424e-05
108,-5.34789e-06,2.0788e-05,4.56047e-05,8.94983e-05,3.61281e-05,5.60561e-05
109,-1.90481e-06,1.58972e-05,4.60389e-05,8.56341e-05,3.61171e-05,5.67609e-05
110,-2.33261e-06,1.34163e-05,4.51437e-05,7.71464e-05,3.3446e-05,5.18289e-05
111,-5.1245e-06,1.55081e-05,4.34433e-05,7.23e-05,3.01806e-05,4.47116e-05
112,-7.80967e-06,1.85827e-05,4.04406e-05,7.55395e-05,2.99887e-05,3.96726e-05
113,-7.26232e-06,1.81382e-05,3.78053e-05,8.1506e-05,3.19318e-05,3.80343e-05
114,-3.09114e-06,1.34691e-05,3.66308e-05,8.17678e-05,3.39837e-05,3.90603e-05
115,1.39443e-06,8.72128e-06,3.64954e-05,7.42857e-05,3.6098e-05,4.08153e-05
116,1.45081e-06,6.25903e-06,3.65447e-05,6.17039e-05,3.76635e-05,4.04761e-05
117,-2.43988e-06,6.0222e-06,3.58754e-05,5.08569e-05,3.76425e-05,3.70838e-05
118,-7.03099e-06,7.25651e-06,3.46376e-05,4.99111e-05,3.82348e-05,3.0024e-05
119,-8.57741e-06,9.16735e-06,3.38954e-05,5.76246e-05,4.20939e-05,2.26134e-05
120,-6.6559e-06,1.12804e-05,3.34516e-05,6.34177e-05,4.60245e-05,2.16232e-05
121,-4.4808e-06,1.36524e-05,3.26516e-05,6.20586e-05,4.69144e-05,2.89354e-05
122,-3.69475e-06,1.74858e-05,2.94975e-05,5.39448e-05,4.22366e-05,3.62164e-05
123,-2.82959e-06,2.20663e-05,2.57923e-05,4.65587e-05,3.24985e-05,3.50323e-05
124,-4.39287e-06,2.36704e-05,2.47305e-05,5.0877e-05,2.17109e-05,2.60168e-05
125,-7.42439e-06,2.34528e-05,2.52703e-05,6.31015e-05,1.31844e-05,1.49222e-05
126,-7.24101e-06,2.35384e-05,2.83876e-05,6.90123e-05,1.11041e-05,6.81453e-06
127,-6.87149e-06,2.14548e-05,3.10259e-05,6.50541e-05,1.36742e-05,-7.00679e-08
128,-8.6764e-06,1.76715e-05,3.23851e-05,6.06558e-05,1.64795e-05,-1.16793e-05
129,-8.65477e-06,1.56851e-05,3.42668e-05,6.39594e-05,1.94596e-05,-2.85517e-05
130,-6.46618e-06,1.66164e-05,3.56357e-05,6.99855e-05,2.10323e-05,-5.04576e-05
131,-5.79642e-06,1.79902e-05,3.66887e-05,7.119e-05,2.00414e-05,-7.57913e-05
132,-8.3831e-06,1.81101e-05,3.71849e-05,6.9662e-05,1.55523e-05,-9.5942e-05
133,-1.18362e-05,1.67221e-05,3.72647e-05,7.34983e-05,1.06694e-05,-0.000100991
134,-1.16143e-05,1.50833e-05,3.69946e-05,8.17403e-05,1.11589e-05,-8.98051e-05
135,-7.03844e-06,1.55436e-05,3.53974e-05,8.86066e-05,1.44989e-05,-6.99956e-05
136,-1.42504e-06,1.82091e-05,3.27006e-05,9.16286e-05,1.60771e-05,-5.14051e-05
137,2.51945e-06,2.21459e-05,3.00441e-05,8.99985e-05,1.56925e-05,-3.94909e-05
138,1.35114e-06,2.52004e-05,2.82886e-05,8.71136e-05,1.52173e-05,-3.36146e-05
139,-4.5055e-06,2.53329e-05,2.84585e-05,8.88608e-05,1.62872e-05,-3.09003e-05
140,-7.41061e-06,2.28349e-05,2.99427e-05,9.38412e-05,1.82641e-05,-2.82146e-05
141,-4.06207e-06,1.90299e-05,3.07012e-05,9.66315e-05,1.87966e-05,-2.43463e-05
142,1.86899e-07,1.53198e-05,2.90765e-05,9.41331e-05,1.88356e-05,-1.87382e-05
143,8.93849e-07,1.26653e-05,2.61304e-05,8.40714e-05,1.96296e-05,-1.14323e-05
144,-8.76424e-07,1.17711e-05,2.47e-05,7.12156e-05,2.0048e-05,-5.2017e-06
145,-4.01227e-06,1.21952e-05,2.58047e-05,6.60944e-05,1.89011e-05,-3.69479e-06
146,-5.77465e-06,1.24246e-05,2.75959e-05,6.81878e-05,1.56262e-05,-4.37996e-06
147,-3.97318e-06,1.13876e-05,2.89478e-05,6.64905e-05,1.12238e-05,-3.43117e-06
148,-1.13814e-06,1.00035e-05,3.01311e-05,5.77559e-05,9.30881e-06,-1.90954e-06
149,-8.61447e-07,9.82351e-06,3.05226e-05,4.33641e-05,1.04063e-05,-1.60656e-06
150,-4.53292e-06,1.00121e-05,3.02077e-05,3.00354e-05,1.09223e-05,-2.28885e-06
151,-1.03236e-05,9.26381e-06,2.89778e-05,2.88675e-05,1.14165e-05,-4.10739e-06
152,-1.34484e-05,9.31495e-06,2.83547e-05,3.73906e-05,1.25833e-05,-6.50953e-06
153,-1.0873e-05,1.12955e-05,2.915e-05,4.11673e-05,1.38637e-05,-6.82751e-06
154,-8.4201e-06,1.37506e-05,3.00843e-05,3.77798e-05,1.53818e-05,-5.4218e-06
155,-8.49199e-06,1.56422e-05,3.17966e-05,3.54001e-05,1.78676e-05,-4.88704e-06
156,-8.14628e-06,1.70964e-05,3.33726e-05,3.7187e-05,2.0119e-05,-5.55086e-06
157,-7.31728e-06,1.8071e-05,3.32069e-05,3.68553e-05,2.13734e-05,-6.16907e-06
158,-4.54366e-06,1.76526e-05,3.26201e-05,3.10386e-05,2.27466e-05,-6.66662e-06
159,-2.77748e-06,1.73184e-05,3.22842e-05,2.73165e-05,2.50082e-05,-8.19543e-06
160,-5.91142e-06,1.85889e-05,3.16462e-05,3.1174e-05,2.83432e-05,-1.20599e-05
161,-9.96273e-06,1.83916e-05,3.20984e-05,3.47144e-05,2.93916e-05,-1.57483e-05
162,-9.93177e-06,1.52123e-05,3.46591e-05,3.33477e-05,2.88815e-05,-1.55389e-05
163,-8.16684e-06,1.18012e-05,3.78789e-05,2.92171e-05,2.9919e-05,-1.35527e-05
164,-7.05587e-06,1.0432e-05,3.90391e-05,2.33382e-05,3.07738e-05,-1.26797e-05
165,-8.58455e-06,9.82649e-06,3.73756e-05,1.86154e-05,2.80897e-05,-1.15449e-05
166,-1.20867e-05,6.95471e-06,3.54284e-05,1.92233e-05,2.20812e-05,-7.54718e-06
167,-1.287e-05,1.21588e-06,3.63924e-05,2.4298e-05,1.5748e-05,-1.46065e-06
168,-9.17311e-06,-3.81003e-06,3.96421e-05,2.83116e-05,1.20616e-05,3.78138e-06
169,-5.38705e-06,-5.48656e-06,4.14149e-05,2.71585e-05,1.20332e-05,7.07003e-06
170,-5.01311e-06,-5.2397e-06,4.01225e-05,1.98881e-05,1.43982e-05,9.22251e-06
171,-8.02812e-06,-4.87936e-06,3.8626e-05,1.33541e-05,1.776e-05,9.61778e-06
172,-1.40134e-05,-5.9982e-06,4.04743e-05,1.66863e-05,2.1398e-05,8.0337e-06
173,-1.91089e-05,-8.61131e-06,4.58666e-05,2.76792e-05,2.43365e-05,8.03978e-06
174,-1.93986e-05,-9.71223e-06,5.21296e-05,3.50782e-05,2.62462e-05,1.19021e-05
175,-1.64573e-05,-8.68017e-06,5.72867e-05,3.67765e-05,2.79658e-05,1.75783e-05
176,-1.34861e-05,-9.4639e-06,6.08757e-05,3.56219e-05,2.9042e-05,2.24303e-05
177,-1.18276e-05,-1.33457e-05,6.41519e-05,3.61351e-05,2.98448e-05,2.51993e-05
178,-1.45108e-05,-1.66196e-05,6.92617e-05,4.412e-05,3.2003e-05,2.64956e-05
179,-1.77624e-05,-1.72493e-05,7.58791e-05,5.7912e-05,3.39119e-05,2.97511e-05
180,-1.42615e-05,-1.54102e-05,8.01684e-05,6.75769e-05,3.21228e-05,3.58198e-05
181,-9.04402e-06,-1.14521e-05,7.86615e-05,6.70738e-05,2.8268e-05,4.07137e-05
182,-5.91489e-06,-8.17923e-06,7.15922e-05,6.3499e-05,2.65378e-05,4.24415e-05
183,-1.28463e-06,-7.1079e-06,5.9994e-05,6.60979e-05,2.58801e-05,4.34578e-05
184,7.85546e-07,-7.70386e-06,4.73456e-05,7.05966e-05,2.40478e-05,4.54137e-05
185,-2.39922e-06,-7.40929e-06,3.76632e-05,6.70282e-05,2.26537e-05,4.6538e-05
186,-9.04046e-06,-4.99592e-06,3.31339e-05,6.05875e-05,2.44088e-05,4.51746e-05
187,-1.46723e-05,-1.76646e-06,3.48246e-05,5.98546e-05,2.90777e-05,4.31394e-05
188,-1.48139e-05,2.06809e-06,4.17273e-05,6.01369e-05,3.36153e-05,4.21533e-05
189,-9.709e-06,6.04957e-06,4.89611e-05,5.59338e-05,3.89313e-05,4.00436e-05
190,-4.78141e-06,8.31458e-06,5.31467e-05,4.65075e-05,4.42273e-05,3.56707e-05
191,-4.50067e-06,7.68335e-06,5.45297e-05,3.4445e-05,4.5927e-05,3.14221e-05
192,-8.74839e-06,6.2219e-06,5.40753e-05,2.42581e-05,4.52996e-05,2.9008e-05
193,-1.25093e-05,7.15311e-06,5.16987e-05,1.76468e-05,4.64694e-05,2.71361e-05
194,-1.17469e-05,1.20763e-05,4.70738e-05,9.76137e-06,4.93971e-05,2.52643e-05
195,-8.02983e-06,1.83592e-05,3.99365e-05,-2.59819e-06,5.14371e-05,2.3445e-05
196,-4.77774e-06,2.2602e-05,2.95378e-05,-1.64893e-05,5.23841e-05,2.02867e-05
197,-3.23292e-06,2.38078e-05,1.78999e-05,-2.80349e-05,5.32163e-05,1.51362e-05
198,-2.68028e-06,2.25366e-05,9.11036e-06,-3.32636e-05,5.44203e-05,1.00096e-05
199,-2.93446e-06,1.89911e-05,5.30516e-06,-2.87009e-05,5.48675e-05,6.88943e-06
200,-1.60283e-06,1.52996e-05,5.10553e-06,-1.85959e-05,5.3394e-05,5.41355e-06
201,2.81615e-06,1.58017e-05,6.53224e-06,-1.15066e-05,5.06617e-05,5.45594e-06
202,6.44119e-06,2.17942e-05,7.64412e-06,-8.45817e-06,4.97266e-05,7.76822e-06
203,5.8181e-06,2.78564e-05,8.82795e-06,-7.35043e-06,4.94481e-05,1.18239e-05
204,2.17111e-06,2.84767e-05,1.09113e-05,-3.84449e-06,4.61836e-05,1.5496e-05
205,-2.85786e-06,2.65744e-05,1.32321e-05,8.39162e-06,3.99252e-05,1.70687e-05
206,-3.46724e-06,2.58377e-05,1.65903e-05,2.46494e-05,3.39183e-05,1.74904e-05
207,2.48973e-06,2.62367e-05,2.23664e-05,3.38682e-05,3.24177e-05,1.87829e-05
208,5.6702e-06,2.72626e-05,2.60217e-05,3.55931e-05,3.38777e-05,1.93054e-05
209,3.30168e-06,2.83966e-05,2.53913e-05,3.67853e-05,3.40176e-05,1.99909e-05
210,3.10888e-07,2.90124e-05,2.08591e-05,4.14962e-05,3.13941e-05,2.3353e-05
211,-2.28926e-06,2.98402e-05,1.34081e-05,4.40983e-05,2.6731e-05,2.73024e-05
212,-2.25443e-06,3.08028e-05,9.20006e-06,3.9019e-05,2.13356e-05,2.93345e-05
213,-2.39063e-06,2.969e-05,1.08121e-05,3.4765e-05,1.65407e-05,2.89407e-05
214,-4.59579e-06,2.67121e-05,1.95273e-05,4.16658e-05,1.31692e-05,2.59107e-05
215,-6.13536e-06,2.43128e-05,3.54051e-05,5.34474e-05,1.00161e-05,2.3169e-05
216,-3.68869e-06,2.35664e-05,5.25491e-05,6.07046e-05,7.10475e-06,2.42061e-05
217,-1.30306e-07,2.30416e-05,6.38584e-05,6.1036e-05,5.61359e-06,2.78321e-05
218,5.05779e-07,2.14256e-05,6.76729e-05,5.60074e-05,7.64103e-06,3.16042e-05
219,-1.70204e-06,2.00362e-05,6.70621e-05,5.24961e-05,1.35109e-05,3.40594e-05
220,-5.35438e-06,2.03098e-05,6.5816e-05,5.7888e-05,1.96125e-05,3.43892e-05
221,-8.36245e-06,2.12733e-05,6.50996e-05,6.79138e-05,2.23798e-05,3.19828e-05
222,-9.47266e-06,1.95042e-05,6.18766e-05,7.50487e-05,2.39982e-05,2.85902e-05
223,-9.01772e-06,1.51107e-05,5.28024e-05,7.84812e-05,2.73865e-05,2.67314e-05
224,-8.94937e-06,1.25082e-05,4.02419e-05,7.89136e-05,3.04426e-05,2.56441e-05
225,-1.06543e-05,1.43686e-05,3.04808e-05,7.88547e-05,3.08923e-05,2.33194e-05
226,-1.49108e-05,1.8468e-05,2.71436e-05,8.33997e-05,3.08055e-05,2.07242e-05
227,-1.7639e-05,2.06865e-05,3.09234e-05,9.14595e-05,3.25708e-05,2.12565e-05
228,-1.42931e-05,1.99662e-05,3.81337e-05,9.57712e-05,3.29671e-05,2.79798e-05
229,-7.29262e-06,1.59977e-05,4.30711e-05,9.44013e-05,3.0858e-05,3.66808e-05
230,-2.22039e-06,1.00771e-05,4.45515e-05,8.85783e-05,2.75624e-05,3.92643e-05
231,-4.08191e-07,4.77399e-06,4.4722e-05,8.32303e-05,2.37446e-05,3.66863e-05
232,-4.32881e-06,1.29211e-06,4.54397e-05,8.59167e-05,2.28492e-05,3.35544e-05
233,-8.19723e-06,3.2943e-07,4.54165e-05,9.57313e-05,2.48297e-05,3.05056e-05
234,-3.17438e-06,-4.11772e-07,4.13428e-05,0.000103543,2.88915e-05,2.82113e-05
235,3.61198e-06,-1.4223e-06,3.19022e-05,0.000103609,3.53739e-05,2.64254e-05
236,4.1846e-06,-4.18619e-07,2.1237e-05,9.98744e-05,4.06771e-05,2.32209e-05
237,1.90968e-06,8.0731e-07,1.06218e-05,9.81616e-05,4.15441e-05,1.88551e-05
238,-8.16829e-08,1.66581e-07,2.23354e-08,9.47779e-05,3.93436e-05,1.59648e-05
239,-1.65842e-06,-5.91659e-07,-5.89983e-06,8.60642e-05,3.97943e-05,1.76612e-05
240,-6.87414e-06,8.13484e-08,-7.26966e-06,7.71834e-05,4.37641e-05,2.17828e-05
241,-1.31973e-05,2.26612e-06,-5.82932e-06,7.55407e-05,4.72536e-05,2.35489e-05
242,-1.34406e-05,4.31978e-06,-1.12703e-06,7.71301e-05,4.73009e-05,2.10448e-05
243,-8.39935e-06,4.5528e-06,6.40759e-06,7.65039e-05,4.71173e-05,1.47881e-05
244,-3.80094e-06,3.81935e-06,1.19733e-05,7.38045e-05,4.96297e-05,8.22436e-06
245,-2.22045e-06,3.7131e-06,1.32605e-05,6.82594e-05,5.11314e-05,4.35885e-06
246,-3.68825e-06,4.86458e-06,1.35651e-05,6.36007e-05,4.91187e-05,4.36717e-06
247,-7.02267e-06,5.88753e-06,1.6258e-05,6.68976e-05,4.52264e-05,7.30425e-06
248,-8.36763e-06,6.32343e-06,2.29216e-05,7.71847e-05,4.08052e-05,1.09802e-05
249,-6.54701e-06,5.70025e-06,3.24746e-05,8.61392e-05,3.41447e-05,1.22557e-05
250,-3.31604e-06,4.31293e-06,4.2447e-05,8.76744e-05,2.65472e-05,1.10191e-05
251,-6.3819e-07,4.65383e-06,5.08512e-05,8.11701e-05,2.29392e-05,9.30296e-06
252,3.23578e-08,7.98192e-06,5.59202e-05,7.17756e-05,2.51228e-05,5.28702e-06
253,-2.47777e-06,1.15662e-05,5.65326e-05,6.76056e-05,2.90758e-05,-2.11254e-06
254,-4.41679e-06,1.24331e-05,5.493e-05,6.85725e-05,3.02863e-05,-8.87684e-06
255,-1.02345e-06,1.12196e-05,5.35417e-05,6.82885e-05,2.94818e-05,-1.22228e-05
256,4.68893e-06,1.10002e-05,5.26069e-05,6.61807e-05,3.05903e-05,-1.26164e-05
257,5.88332e-06,1.23451e-05,5.16909e-05,6.13864e-05,3.26329e-05,-1.08992e-05
258,1.26407e-06,1.38179e-05,5.12778e-05,5.41695e-05,3.06889e-05,-9.38568e-06
259,-5.49494e-06,1.43194e-05,5.05374e-05,5.20021e-05,2.65952e-05,-9.05285e-06
260,-8.10165e-06,1.21986e-05,4.99856e-05,5.85353e-05,2.47661e-05,-1.15266e-05
261,-5.18725e-06,1.02941e-05,5.00468e-05,6.48458e-05,2.48756e-05,-1.63869e-05
262,-3.9916e-06,1.17426e-05,4.96331e-05,6.48378e-05,2.55661e-05,-1.88769e-05
263,-7.95168e-06,1.485e-05,5.00555e-05,6.06109e-05,2.514e-05,-1.82268e-05
264,-1.06006e-05,1.57175e-05,5.18597e-05,5.51487e-05,2.21628e-05,-1.63119e-05
265,-9.75707e-06,1.38193e-05,5.31213e-05,4.91699e-05,1.67249e-05,-1.38869e-05
266,-7.89311e-06,1.34958e-05,5.31889e-05,4.18164e-05,1.0956e-05,-1.0561e-05
267,-1.06747e-05,1.53563e-05,5.36567e-05,3.81865e-05,7.50069e-06,-6.11829e-06
268,-1.74506e-05,1.68535e-05,5.58174e-05,4.31807e-05,6.36275e-06,-2.88505e-06
269,-1.90147e-05,1.8592e-05,5.85219e-05,4.91059e-05,6.20385e-06,-2.48508e-06
270,-1.38981e-05,2.01399e-05,5.87131e-05,4.83358e-05,7.47672e-06,-3.04754e-06
271,-8.67908e-06,1.83246e-05,5.57908e-05,4.08907e-05,8.89728e-06,-1.98157e-06
272,-7.81719e-06,1.39699e-05,5.21639e-05,3.08678e-05,7.5294e-06,-7.80653e-07
273,-1.10586e-05,1.17008e-05,4.92838e-05,2.60303e-05,4.19273e-06,-2.10516e-06
274,-1.56973e-05,1.30334e-05,4.73784e-05,3.04793e-05,2.65832e-06,-5.09701e-06
275,-1.70067e-05,1.60364e-05,4.69999e-05,3.71957e-05,4.32652e-06,-7.10785e-06
276,-1.37588e-05,1.87558e-05,4.77904e-05,3.95663e-05,7.07741e-06,-6.70555e-06
277,-9.63766e-06,1.94146e-05,4.86295e-05,3.91328e-05,9.82057e-06,-4.28709e-06
278,-7.84176e-06,1.74577e-05,4.80669e-05,3.66441e-05,1.25038e-05,-1.40391e-06
279,-9.01145e-06,1.62501e-05,4.55717e-05,3.22015e-05,1.51316e-05,5.50827e-07
280,-1.22898e-05,1.89771e-05,4.29387e-05,3.12246e-05,1.79709e-05,1.31242e-06
281,-1.24728e-05,2.3157e-05,4.22275e-05,3.61311e-05,2.05738e-05,1.37916e-06
282,-6.96345e-06,2.45656e-05,4.25482e-05,4.05907e-05,2.22442e-05,6.01486e-07
283,-1.68598e-06,2.2518e-05,4.2482e-05,4.13955e-05,2.33981e-05,-6.56435e-07
284,-2.04827e-06,1.88734e-05,4.15498e-05,3.78271e-05,2.38495e-05,-1.47112e-06
285,-6.82012e-06,1.53242e-05,3.93937e-05,3.51313e-05,2.401e-05,-1.9241e-06
286,-1.47786e-05,1.11056e-05,3.68985e-05,3.98832e-05,2.57275e-05,-2.17524e-06
287,-2.00207e-05,6.51119e-06,3.54803e-05,4.8784e-05,2.73199e-05,-1.76005e-06
288,-1.75426e-05,4.45936e-06,3.67694e-05,5.56726e-05,2.84352e-05,2.27148e-06
289,-1.37188e-05,4.94041e-06,3.90936e-05,5.68724e-05,2.92834e-05,8.10374e-06
290,-1.22993e-05,6.23082e-06,3.92175e-05,5.87946e-05,2.86209e-05,1.13868e-05
291,-9.721e-06,6.53676e-06,3.69396e-05,6.59997e-05,2.94223e-05,1.39061e-05
292,-7.0447e-06,6.19404e-06,3.40634e-05,6.96489e-05,3.24088e-05,1.80738e-05
293,-7.68963e-06,7.17448e-06,3.24033e-05,6.45854e-05,3.68379e-05,2.39609e-05
294,-1.18341e-05,9.24301e-06,3.20862e-05,5.9692e-05,4.07828e-05,2.80035e-05
295,-1.50982e-05,1.05781e-05,3.35985e-05,6.40919e-05,4.29378e-05,2.97569e-05
296,-1.21205e-05,9.37154e-06,3.64649e-05,7.11059e-05,4.5061e-05,3.28743e-05
297,-5.72856e-06,7.54292e-06,3.81203e-05,7.38451e-05,4.78957e-05,3.8019e-05
298,-2.0646e-06,6.07525e-06,3.7244e-05,7.08412e-05,4.98135e-05,4.32379e-05
299,-1.67899e-06,3.89132e-06,3.50157e-05,6.2493e-05,5.02656e-05,4.60533e-05
300,-4.48531e-06,1.03712e-06,3.38823e-05,5.46578e-05,5.01876e-05,4.6251e-05
301,-1.00813e-05,-6.51355e-07,3.58162e-05,5.53485e-05,4.71246e-05,4.63333e-05
302,-1.34115e-05,-4.54079e-07,4.01904e-05,6.35155e-05,4.0441e-05,4.89355e-05
303,-1.18134e-05,6.48851e-07,4.26271e-05,6.99863e-05,3.50035e-05,5.22317e-05
304,-8.41979e-06,1.05839e-06,4.06606e-05,6.81825e-05,3.53358e-05,5.27052e-05
305,-6.64032e-06,4.93627e-07,3.73974e-05,5.72519e-05,3.7263e-05,4.99026e-05
306,-7.60859e-06,-2.17449e-08,3.68017e-05,4.37861e-05,3.3748e-05,4.45197e-05
307,-1.01257e-05,-2.22056e-07,3.89967e-05,3.75861e-05,2.54749e-05,3.70021e-05
308,-1.10825e-05,1.10035e-06,4.15502e-05,4.02274e-05,1.75291e-05,2.95317e-05
309,-1.0095e-05,4.18551e-06,4.16197e-05,4.47936e-05,1.08159e-05,2.45987e-05
310,-8.95908e-06,7.25662e-06,3.8452e-05,4.48923e-05,6.04778e-06,2.3204e-05
311,-9.20115e-06,7.82831e-06,3.4978e-05,3.61625e-05,4.41443e-06,2.35951e-05
312,-9.67781e-06,6.7687e-06,3.33761e-05,2.46273e-05,3.83874e-06,2.35107e-05
313,-1.24823e-05,7.35194e-06,3.24993e-05,2.33388e-05,2.41146e-06,2.2414e-05
314,-1.6996e-05,9.52479e-06,3.3054e-05,3.30515e-05,-1.4125e-06,2.09804e-05
315,-1.54285e-05,1.05986e-05,3.47404e-05,4.38976e-05,-7.20159e-06,2.23564e-05
316,-1.07767e-05,1.07494e-05,3.39546e-05,4.96016e-05,-8.73115e-06,2.73763e-05
317,-8.6111e-06,1.17807e-05,3.21929e-05,5.06032e-05,-4.84129e-06,3.35167e-05
318,-7.88566e-06,1.42552e-05,3.16001e-05,5.07268e-05,-2.14492e-06,3.81549e-05
319,-7.75749e-06,1.72674e-05,3.1711e-05,5.03437e-05,-2.03933e-06,3.94852e-05
320,-6.17173e-06,2.06654e-05,3.18831e-05,4.48571e-05,-9.36896e-07,3.7458e-05
321,-3.98555e-06,2.27263e-05,3.12959e-05,3.54559e-05,4.74295e-06,3.37423e-05
322,-4.2714e-06,2.17207e-05,3.14935e-05,3.2914e-05,1.33928e-05,3.12838e-05
323,-4.38989e-06,1.96038e-05,3.45015e-05,3.68571e-05,2.01423e-05,3.00985e-05
324,-1.41712e-06,1.91298e-05,3.80725e-05,4.02306e-05,2.39071e-05,2.80916e-05
325,1.45695e-06,1.95163e-05,3.95491e-05,3.96724e-05,2.55407e-05,2.44001e-05
326,8.51534e-07,1.96206e-05,3.97808e-05,3.39773e-05,2.50621e-05,1.99209e-05
327,-3.50028e-06,1.99722e-05,3.94699e-05,2.72281e-05,2.3154e-05,1.81639e-05
328,-8.08544e-06,2.03454e-05,3.87536e-05,2.69703e-05,2.05956e-05,2.02701e-05
329,-8.06758e-06,2.05793e-05,3.84213e-05,3.17687e-05,1.68242e-05,2.23264e-05
330,-3.3723e-06,2.06471e-05,3.87049e-05,3.2864e-05,1.26175e-05,2.1763e-05
331,8.25107e-07,2.09497e-05,3.92714e-05,2.85977e-05,1.12081e-05,2.02936e-05
332,1.11712e-06,2.28388e-05,3.94404e-05,2.21324e-05,1.35714e-05,1.8477e-05
333,-1.6502e-06,2.6561e-05,3.85272e-05,1.72605e-05,1.76507e-05,1.47382e-05
334,-6.16113e-06,2.94642e-05,3.83681e-05,1.79343e-05,2.10965e-05,9.27171e-06
335,-8.1762e-06,3.0916e-05,4.13178e-05,2.41767e-05,2.17338e-05,4.59549e-06
336,-4.40079e-06,3.18181e-05,4.44674e-05,3.02701e-05,1.96068e-05,3.65045e-06
337,-3.73307e-07,3.2246e-05,4.34138e-05,3.26915e-05,2.0279e-05,7.24618e-06
338,-1.95551e-06,3.06289e-05,4.04582e-05,2.9732e-05,2.57975e-05,1.26758e-05
339,-6.96642e-06,2.72478e-05,3.98494e-05,2.48379e-05,3.14751e-05,1.68829e-05
340,-1.12328e-05,2.56008e-05,4.17032e-05,2.60152e-05,3.49532e-05,1.89408e-05
341,-9.95569e-06,2.53311e-05,4.38713e-05,3.20166e-05,3.61331e-05,2.15276e-05
342,-1.52102e-06,2.32728e-05,4.52306e-05,3.66841e-05,3.68152e-05,2.87211e-05
343,4.28304e-06,1.82995e-05,4.44021e-05,3.90722e-05,3.72977e-05,3.83572e-05
344,3.17272e-06,1.3335e-05,4.29145e-05,3.9741e-05,3.8974e-05,4.45043e-05
345,6.00106e-07,1.10248e-05,4.37029e-05,4.09681e-05,4.41396e-05,4.55569e-05
346,-2.37535e-06,8.83288e-06,4.3606e-05,4.30201e-05,4.71037e-05,4.38845e-05
347,-5.25205e-06,5.35762e-06,4.1631e-05,4.20494e-05,4.45137e-05,4.13776e-05
348,-7.42842e-06,2.85531e-06,3.95826e-05,4.05955e-05,4.05288e-05,3.73133e-05
349,-9.2645e-06,3.36622e-06,3.89748e-05,4.59788e-05,3.75743e-05,3.1017e-05
350,-7.85462e-06,5.54538e-06,4.16336e-05,5.55497e-05,3.58878e-05,2.63709e-05
351,-2.13585e-06,5.55075e-06,4.53639e-05,6.26166e-05,3.60847e-05,2.61727e-05
352,3.39083e-06,3.29192e-06,4.63663e-05,6.39096e-05,3.70043e-05,2.68461e-05
353,5.26852e-06,1.5891e-06,4.43631e-05,5.86865e-05,3.63613e-05,2.60026e-05
354,3.42833e-06,6.38159e-07,4.17338e-05,5.19604e-05,3.54357e-05,2.42062e-05
355,6.75577e-07,-8.70348e-07,4.06131e-05,5.22594e-05,3.56804e-05,2.24631e-05
356,6.09302e-07,-2.31679e-06,4.19592e-05,5.75437e-05,3.26603e-05,2.12337e-05
357,4.70743e-06,-1.91043e-06,4.37401e-05,5.9845e-05,2.38273e-05,2.07819e-05
358,9.16291e-06,-2.31797e-07,4.43959e-05,5.74092e-05,1.47147e-05,2.05392e-05
359,8.5592e-06,1.50511e-06,4.42813e-05,5.19679e-05,9.87538e-06,1.91459e-05
360,2.7203e-06,3.2596e-06,4.32915e-05,4.74778e-05,8.64606e-06,1.58313e-05
361,-3.82736e-06,4.71196e-06,4.2291e-05,4.92836e-05,7.33466e-06,9.47526e-06
362,-5.49497e-06,5.96766e-06,4.3303e-05,5.5197e-05,2.12987e-06,2.95661e-06
363,-7.67056e-07,6.81925e-06,4.40854e-05,5.79131e-05,-5.29579e-06,1.53099e-06
364,5.23672e-06,6.7133e-06,4.13344e-05,5.83399e-05,-9.59474e-06,4.96183e-06
365,5.77155e-06,5.89548e-06,3.8198e-05,5.84874e-05,-8.90195e-06,8.64077e-06
366,-2.61036e-07,4.50381e-06,3.7729e-05,5.81403e-05,-4.28305e-06,9.77505e-06
367,-8.87608e-06,4.69293e-06,3.84567e-05,6.18777e-05,1.7914e-06,8.1165e-06
368,-1.41496e-05,8.08828e-06,4.00055e-05,7.21138e-05,5.88584e-06,5.58799e-06
369,-1.05613e-05,1.25945e-05,4.17664e-05,8.13223e-05,8.57962e-06,4.87783e-06
370,-3.39888e-06,1.64893e-05,4.24692e-05,8.21632e-05,1.34115e-05,4.33231e-06
371,-9.43565e-07,2.10759e-05,4.36895e-05,7.66437e-05,1.89189e-05,4.35285e-06
372,-2.67226e-06,2.64398e-05,4.41229e-05,7.23531e-05,2.35197e-05,6.41135e-06
373,-4.92451e-06,2.94789e-05,4.1874e-05,7.07612e-05,2.87835e-05,9.19439e-06
374,-5.13614e-06,2.99915e-05,3.87601e-05,7.12973e-05,3.21926e-05,1.2479e-05
375,-5.51213e-06,3.04869e-05,3.63965e-05,7.47e-05,3.37127e-05,1.60838e-05
376,-6.8054e-06,3.02852e-05,3.42817e-05,8.24735e-05,3.69877e-05,2.06959e-05
377,-5.19998e-06,2.77887e-05,3.25504e-05,9.11717e-05,4.29446e-05,2.61366e-05
378,-8.98567e-08,2.51522e-05,3.24888e-05,9.55279e-05,5.01612e-05,3.22102e-05
379,3.31397e-06,2.43663e-05,3.35247e-05,9.32869e-05,5.73696e-05,3.76181e-05
380,2.6737e-06,2.52552e-05,3.42714e-05,8.50778e-05,6.26752e-05,4.1647e-05
381,-2.60502e-07,2.68687e-05,3.42914e-05,7.9358e-05,6.30291e-05,4.41326e-05
382,-3.86391e-06,2.83676e-05,3.47304e-05,8.33822e-05,5.68287e-05,4.43521e-05
383,-6.31727e-06,2.86223e-05,3.6222e-05,9.3208e-05,4.81897e-05,4.28098e-05
384,-5.60541e-06,2.79696e-05,3.70168e-05,9.93258e-05,4.34374e-05,4.18965e-05
385,-2.27181e-06,2.89278e-05,3.4963e-05,9.7771e-05,4.25209e-05,4.27931e-05
386,1.00336e-06,3.25529e-05,3.2014e-05,9.0948e-05,4.08414e-05,4.35851e-05
387,1.28974e-06,3.61355e-05,3.15585e-05,8.46432e-05,3.71817e-05,4.15119e-05
388,-2.4657e-06,3.64954e-05,3.3469e-05,8.36852e-05,3.39511e-05,3.63464e-05
389,-6.90348e-06,3.36787e-05,3.61786e-05,8.65516e-05,3.20233e-05,3.11838e-05
390,-7.79617e-06,3.12991e-05,3.75979e-05,8.67345e-05,3.11307e-05,2.87142e-05
391,-6.00155e-06,3.13529e-05,3.56232e-05,8.08657e-05,3.25321e-05,2.81228e-05
392,-4.75343e-06,3.0944e-05,3.24647e-05,6.93611e-05,3.53744e-05,2.73768e-05
393,-4.98819e-06,2.82847e-05,3.07388e-05,5.50041e-05,3.56205e-05,2.39993e-05
394,-9.17645e-06,2.4643e-05,2.85511e-05,4.49524e-05,3.3821e-05,1.68818e-05
395,-1.38879e-05,2.27167e-05,2.56818e-05,4.18695e-05,3.08189e-05,9.23414e-06
396,-1.01855e-05,2.45823e-05,2.44699e-05,4.10432e-05,2.72387e-05,2.14103e-06
397,-3.05791e-06,2.62785e-05,2.41734e-05,3.82723e-05,2.67258e-05,-2.39135e-06
398,-4.46426e-07,2.52359e-05,2.51959e-05,3.33905e-05,2.87924e-05,-3.83005e-06
399,1.94077e-07,2.39068e-05,2.73786e-05,3.57195e-05,3.03117e-05,-3.52067e-06
400,-5.09167e-07,2.34989e-05,2.59962e-05,4.52066e-05,3.13391e-05,-2.39623e-06
401,-4.78315e-06,2.32295e-05,2.15851e-05,4.98239e-05,2.98449e-05,-2.37063e-06
402,-1.32946e-05,2.19461e-05,1.82323e-05,4.94154e-05,2.55717e-05,-4.70023e-06
403,-2.0307e-05,2.15727e-05,1.76731e-05,5.40081e-05,2.23792e-05,-7.01365e-06
404,-1.85582e-05,2.18758e-05,1.92195e-05,6.22828e-05,2.33942e-05,-7.35492e-06
405,-1.03479e-05,2.17439e-05,2.05608e-05,6.77946e-05,2.87066e-05,-6.14662e-06
406,-3.91944e-06,1.99749e-05,2.00737e-05,6.90518e-05,3.54043e-05,-5.39611e-06
407,-1.2857e-06,1.69836e-05,2.02316e-05,6.49921e-05,4.16115e-05,-8.1285e-06
408,-1.87807e-06,1.49436e-05,2.22249e-05,5.92391e-05,4.51504e-05,-1.35015e-05
409,-5.66005e-06,1.47126e-05,2.49898e-05,5.88036e-05,4.50255e-05,-1.95109e-05
410,-9.20803e-06,1.56241e-05,2.83957e-05,6.43726e-05,4.24689e-05,-2.30774e-05
411,-8.01449e-06,1.64817e-05,3.11192e-05,6.9224e-05,4.1009e-05,-2.17965e-05
412,-4.22784e-06,1.62712e-05,3.04356e-05,6.87416e-05,4.25402e-05,-1.61402e-05
413,-3.49147e-06,1.49959e-05,2.66078e-05,6.30837e-05,4.50945e-05,-9.18418e-06
414,-6.66932e-06,1.50026e-05,2.38022e-05,5.7427e-05,4.68007e-05,-4.59927e-06
415,-1.01992e-05,1.67629e-05,2.41991e-05,5.84178e-05,4.67927e-05,-5.40556e-06
416,-9.11556e-06,1.78135e-05,2.68292e-05,6.63142e-05,4.42904e-05,-9.4978e-06
417,-2.59423e-06,1.6441e-05,2.82861e-05,7.33918e-05,4.02311e-05,-1.05624e-05
418,2.88628e-06,1.48633e-05,2.74764e-05,7.36888e-05,3.63833e-05,-7.32642e-06
419,1.71408e-06,1.46229e-05,2.76786e-05,6.61612e-05,3.3649e-05,-4.69062e-06
420,-3.7847e-06,1.62563e-05,2.90913e-05,5.56378e-05,2.95582e-05,-3.6529e-06
421,-1.10867e-05,2.0356e-05,2.93783e-05,5.09669e-05,2.35126e-05,-2.255e-06
422,-1.60037e-05,2.56445e-05,3.02187e-05,5.29838e-05,1.94951e-05,-1.27756e-06
423,-1.41039e-05,2.98143e-05,3.37361e-05,5.45904e-05,1.61842e-05,-2.38532e-07
424,-9.78524e-06,3.2529e-05,3.53203e-05,5.32623e-05,1.10759e-05,-1.44757e-06
425,-8.12851e-06,3.47826e-05,3.27187e-05,5.34015e-05,8.57309e-06,-3.78124e-06
426,-8.70077e-06,3.38796e-05,2.96761e-05,5.97662e-05,1.08005e-05,-3.09579e-06
427,-1.0363e-05,3.05118e-05,2.84008e-05,6.67165e-05,1.27637e-05,-1.15185e-06
428,-1.03524e-05,2.92399e-05,3.0279e-05,6.24489e-05,1.30551e-05,-8.5416e-07
429,-1.15875e-05,2.88675e-05,3.1505e-05,4.95923e-05,1.41298e-05,-1.31371e-06
430,-1.59756e-05,2.63716e-05,3.03317e-05,4.20319e-05,1.67856e-05,1.48793e-06
431,-1.83967e-05,2.18062e-05,2.82925e-05,4.19961e-05,1.90412e-05,6.42666e-06
432,-1.51226e-05,1.85282e-05,2.86064e-05,4.35868e-05,1.97087e-05,1.08604e-05
433,-9.29438e-06,1.61102e-05,3.15501e-05,4.12531e-05,2.02935e-05,1.43524e-05
434,-6.46895e-06,1.35817e-05,3.55181e-05,3.23542e-05,2.22798e-05,1.6439e-05
435,-9.10989e-06,1.13625e-05,3.92678e-05,2.23832e-05,2.43209e-05,1.58221e-05
436,-1.52509e-05,8.83188e-06,4.14624e-05,2.05621e-05,2.46143e-05,1.29257e-05
437,-1.86123e-05,6.08618e-06,4.31946e-05,2.7492e-05,2.47861e-05,1.11308e-05
438,-1.51456e-05,4.50579e-06,4.49614e-05,3.60329e-05,2.54589e-05,1.28739e-05
439,-8.10821e-06,5.81074e-06,4.58308e-05,4.11782e-05,2.58064e-05,1.8255e-05
440,-3.64561e-06,8.55824e-06,4.50736e-05,4.15628e-05,2.62625e-05,2.45518e-05
441,-3.69057e-06,9.02972e-06,4.39548e-05,3.93915e-05,2.90003e-05,2.81782e-05
442,-7.08834e-06,5.97425e-06,4.32425e-05,3.92018e-05,3.28438e-05,2.8415e-05
443,-9.97811e-06,1.8841e-06,4.49551e-05,4.15919e-05,3.5344e-05,2.82566e-05
444,-8.62306e-06,-8.04526e-07,4.80336e-05,4.2123e-05,3.79619e-05,2.91881e-05
445,-5.74457e-06,-1.6842e-06,4.95905e-05,3.90997e-05,4.11571e-05,2.91697e-05
446,-7.05494e-06,-2.7929e-06,4.75381e-05,3.23466e-05,4.40845e-05,2.59988e-05
447,-1.20735e-05,-4.92617e-06,4.17677e-05,2.47255e-05,4.75711e-05,2.25769e-05
448,-1.86983e-05,-7.95229e-06,3.61318e-05,2.45425e-05,5.04642e-05,2.19016e-05
449,-2.07421e-05,-1.10953e-05,3.50191e-05,3.25853e-05,5.05607e-05,2.23778e-05
450,-1.38408e-05,-1.43525e-05,3.84493e-05,3.85593e-05,4.96126e-05,2.30455e-05
451,-6.68406e-06,-1.72774e-05,4.25329e-05,3.85241e-05,5.1339e-05,2.40773e-05
452,-4.79713e-06,-2.01863e-05,4.35824e-05,3.65214e-05,5.58605e-05,2.51838e-05
453,-5.34534e-06,-2.36152e-05,4.29708e-05,3.46607e-05,5.73031e-05,2.75082e-05
454,-6.34763e-06,-2.55372e-05,4.26679e-05,2.92793e-05,5.48021e-05,3.22989e-05
455,-6.19279e-06,-2.51997e-05,4.26289e-05,1.86708e-05,5.20249e-05,3.78992e-05
456,-5.19746e-06,-2.34302e-05,4.00145e-05,9.28938e-06,4.87569e-05,3.8697e-05
457,-3.35811e-06,-2.17537e-05,3.66215e-05,1.00722e-05,4.68064e-05,3.37087e-05
458,1.22925e-06,-1.97838e-05,3.69456e-05,1.63132e-05,4.57276e-05,3.00489e-05
459,6.9695e-06,-1.56022e-05,3.90923e-05,1.98096e-05,4.37993e-05,3.07881e-05
460,8.78584e-06,-1.22204e-05,3.92591e-05,2.00314e-05,4.24746e-05,3.17248e-05
461,6.16371e-06,-1.30913e-05,3.62586e-05,1.66347e-05,4.16592e-05,3.03031e-05
462,1.51291e-06,-1.66614e-05,3.37694e-05,1.28389e-05,4.06146e-05,2.75838e-05
463,-2.44618e-06,-1.9203e-05,3.34237e-05,1.58549e-05,3.93732e-05,2.54639e-05
464,-3.18882e-06,-1.926e-05,3.38994e-05,2.55705e-05,3.69418e-05,2.40121e-05
465,-1.07396e-06,-1.68149e-05,3.31002e-05,3.46088e-05,3.19929e-05,2.17366e-05
466,4.70301e-07,-1.19443e-05,3.17888e-05,3.7991e-05,2.73657e-05,1.87865e-05
467,-7.63339e-07,-6.72695e-06,3.16742e-05,3.50809e-05,2.54573e-05,1.61915e-05
468,-2.9919e-06,-4.20193e-06,3.33414e-05,3.24974e-05,2.58874e-05,1.47692e-05
469,-4.95723e-06,-4.72703e-06,3.49602e-05,3.95361e-05,2.73426e-05,1.58441e-05
470,-5.09169e-06,-4.21085e-06,3.57057e-05,5.47759e-05,2.86065e-05,1.83934e-05
471,-2.10174e-06,-1.66966e-06,3.7e-05,6.59573e-05,2.86028e-05,1.83876e-05
472,2.05703e-06,-8.85084e-07,3.86016e-05,6.6797e-05,2.7511e-05,1.65317e-05
473,3.31198e-06,-1.74958e-06,3.9256e-05,6.00557e-05,2.6793e-05,1.58505e-05
474,-1.42569e-07,-9.08494e-07,3.8741e-05,5.33952e-05,2.83094e-05,1.65864e-05
475,-7.96457e-06,1.3799e-06,3.78258e-05,5.59379e-05,3.17497e-05,1.8632e-05
476,-1.45088e-05,2.98308e-06,3.76175e-05,6.65665e-05,3.32592e-05,2.23106e-05
477,-1.17782e-05,5.41244e-06,3.68635e-05,7.18097e-05,3.3026e-05,2.59321e-05
478,-4.93853e-06,1.05891e-05,3.36527e-05,6.8142e-05,3.23647e-05,2.61363e-05
479,-3.31735e-06,1.67059e-05,3.22734e-05,6.70292e-05,3.118e-05,2.44372e-05
480,-4.51047e-06,2.13693e-05,3.39134e-05,7.50398e-05,3.09155e-05,2.27399e-05
481,-2.91173e-06,2.31719e-05,3.53122e-05,8.28887e-05,3.10509e-05,1.75277e-05
482,-1.00392e-06,2.43983e-05,3.50933e-05,8.19524e-05,3.07279e-05,9.37259e-06
483,-3.67649e-06,2.65597e-05,3.40613e-05,7.66366e-05,2.94228e-05,4.78779e-06
484,-7.78368e-06,2.69965e-05,3.50091e-05,7.68606e-05,2.88864e-05,6.05772e-06
485,-6.99558e-06,2.42149e-05,3.99249e-05,8.21537e-05,3.02582e-05,7.97219e-06
486,-9.22716e-07,2.11968e-05,4.40879e-05,8.38191e-05,3.05201e-05,7.13756e-06
487,3.0631e-06,1.99959e-05,4.36557e-05,7.86605e-05,2.86634e-05,5.47329e-06
488,1.26525e-06,1.9798e-05,4.14117e-05,7.08674e-05,2.38709e-05,5.04622e-06
489,-3.79223e-06,1.95029e-05,3.96378e-05,6.89091e-05,1.71204e-05,4.19865e-06
490,-7.79646e-06,1.92629e-05,3.89732e-05,7.63341e-05,1.14944e-05,1.96055e-06
491,-7.72979e-06,1.98867e-05,4.00559e-05,8.68962e-05,9.21312e-06,1.01245e-06
492,-5.21799e-06,2.12548e-05,4.18172e-05,9.19629e-05,1.01604e-05,4.22402e-06
493,-4.58403e-06,2.37231e-05,4.25517e-05,8.89762e-05,1.29681e-05,9.2525e-06
494,-6.71729e-06,2.75206e-05,4.29175e-05,8.06279e-05,1.48759e-05,1.11657e-05
495,-9.46045e-06,3.21395e-05,4.37974e-05,7.35068e-05,1.48913e-05,8.29102e-06
496,-1.20609e-05,3.47474e-05,4.46606e-05,7.3897e-05,1.36234e-05,2.60884e-06
497,-1.2241e-05,3.39991e-05,4.48408e-05,7.83851e-05,1.23368e-05,-9.45159e-07
498,-8.34494e-06,3.37586e-05,4.48558e-05,7.75925e-05,1.25761e-05,-2.62574e-07
499,-3.63172e-06,3.78765e-05,4.3925e-05,7.07491e-05,1.45007e-05,1.01938e-06
500,-2.19094e-06,4.38844e-05,4.30241e-05,6.1088e-05,1.57582e-05,1.72957e-06
501,-3.87523e-06,4.57216e-05,4.40247e-05,5.33602e-05,1.49007e-05,4.35958e-06
502,-8.13174e-06,4.12611e-05,4.39528e-05,5.45497e-05,1.48784e-05,6.78836e-06
503,-1.11091e-05,3.60955e-05,4.264e-05,6.18875e-05,1.50953e-05,7.58769e-06
504,-6.30392e-06,3.60732e-05,4.23292e-05,6.64971e-05,1.5488e-05,9.03517e-06
505,3.89352e-07,3.82422e-05,4.19127e-05,6.71307e-05,1.41726e-05,1.06764e-05
506,6.65791e-07,3.80296e-05,4.14654e-05,6.81703e-05,1.32258e-05,1.03436e-05
507,-1.77285e-06,3.57926e-05,4.11264e-05,7.14901e-05,1.81593e-05,1.00967e-05
508,-2.94175e-06,3.3536e-05,4.01722e-05,7.14446e-05,2.63438e-05,1.07201e-05
509,-1.93373e-06,3.23632e-05,3.93481e-05,6.44536e-05,3.01678e-05,1.14862e-05
510,-1.84208e-06,2.96019e-05,4.0172e-05,5.76621e-05,2.84316e-05,1.24703e-05
511,-4.94225e-06,2.34748e-05,4.30607e-05,6.03909e-05,2.85114e-05,1.32719e-05
512,-6.619e-06,1.80476e-05,4.81701e-05,6.80723e-05,3.10748e-05,1.42326e-05
513,-3.71201e-06,1.63245e-05,5.2176e-05,6.90949e-05,3.1988e-05,1.54446e-05
514,7.10194e-07,1.48234e-05,5.27891e-05,6.18492e-05,2.89674e-05,1.65112e-05
515,2.0787e-06,1.21695e-05,5.15867e-05,5.15193e-05,2.26562e-05,1.7458e-05
516,-9.84656e-07,1.13218e-05,4.93989e-05,4.44202e-05,1.68013e-05,1.89749e-05
517,-5.38468e-06,1.30145e-05,4.68836e-05,4.48583e-05,1.32919e-05,1.96067e-05
518,-5.61025e-06,1.54815e-05,4.51888e-05,4.95514e-05,1.15491e-05,1.80349e-05
519,9.37339e-08,1.68281e-05,4.45886e-05,5.13839e-05,1.27309e-05,1.67745e-05
520,5.65241e-06,1.75846e-05,4.28806e-05,4.77243e-05,1.77562e-05,1.77786e-05
521,5.68628e-06,1.93158e-05,3.94267e-05,4.05796e-05,2.34066e-05,1.90353e-05
522,2.11697e-06,2.1985e-05,3.60762e-05,3.58181e-05,2.65582e-05,1.883e-05
523,-1.01713e-06,2.40009e-05,3.45305e-05,3.98241e-05,2.73804e-05,1.87217e-05
524,-1.84994e-06,2.51376e-05,3.54768e-05,4.99496e-05,2.76811e-05,1.99394e-05
525,-2.44725e-08,2.68279e-05,3.7087e-05,5.54699e-05,3.01735e-05,2.14358e-05
526,1.68764e-06,2.84598e-05,3.62813e-05,5.11064e-05,3.70755e-05,2.12858e-05
527,-2.36316e-08,2.8553e-05,3.38063e-05,3.93485e-05,4.5656e-05,1.82548e-05
528,-5.60883e-06,2.63166e-05,3.16889e-05,2.76432e-05,5.16496e-05,1.39098e-05
529,-1.42007e-05,2.25003e-05,2.99009e-05,2.65437e-05,5.4076e-05,1.02554e-05
530,-2.08911e-05,1.91382e-05,2.79765e-05,3.39289e-05,5.23276e-05,8.0356e-06
531,-2.08006e-05,1.58641e-05,2.67972e-05,3.63599e-05,4.89157e-05,6.43914e-06
532,-1.86475e-05,1.4386e-05,2.58011e-05,3.13745e-05,4.74802e-05,4.7707e-06
533,-1.90779e-05,1.49962e-05,2.44699e-05,2.68054e-05,4.82017e-05,2.3128e-06
534,-1.90649e-05,1.62278e-05,2.32112e-05,2.89564e-05,5.01624e-05,4.03218e-08
535,-1.90056e-05,1.51859e-05,2.2841e-05,3.2656e-05,5.19093e-05,-1.0639e-07
536,-2.09356e-05,1.12413e-05,2.45289e-05,3.07069e-05,5.5217e-05,2.7329e-07
537,-2.53905e-05,9.08231e-06,2.64102e-05,2.90712e-05,6.24217e-05,-8.25571e-07
538,-2.90765e-05,1.03685e-05,2.83426e-05,3.64334e-05,6.94359e-05,-3.5246e-06
539,-2.78628e-05,1.33103e-05,3.25548e-05,4.77867e-05,7.25084e-05,-4.44437e-06
540,-2.29075e-05,1.42984e-05,3.71439e-05,5.48043e-05,7.40193e-05,-2.73578e-06
541,-1.94067e-05,1.39545e-05,3.94703e-05,5.55543e-05,7.55765e-05,-6.36264e-07
542,-1.89675e-05,1.48659e-05,4.05257e-05,5.1032e-05,7.60489e-05,2.05022e-06
543,-2.01928e-05,1.73981e-05,4.18411e-05,4.6731e-05,7.60138e-05,4.35576e-06
544,-2.10827e-05,1.96056e-05,4.4477e-05,5.0058e-05,7.47095e-05,4.65576e-06
545,-1.85717e-05,2.03411e-05,4.76698e-05,5.90472e-05,6.83798e-05,3.68381e-06
546,-1.28575e-05,2.03632e-05,4.87646e-05,6.46184e-05,5.75651e-05,2.6593e-06
547,-8.56363e-06,2.1201e-05,4.60793e-05,6.26451e-05,4.70613e-05,2.05873e-06
548,-8.75964e-06,2.27727e-05,4.12937e-05,5.44205e-05,3.86776e-05,2.52732e-06
549,-1.14617e-05,2.37336e-05,3.73357e-05,4.60475e-05,3.2346e-05,3.64251e-06
550,-1.3796e-05,2.29492e-05,3.51038e-05,4.62134e-05,2.89373e-05,3.72798e-06
551,-1.26045e-05,2.11482e-05,3.35451e-05,5.37436e-05,2.54039e-05,1.63525e-06
552,-8.04751e-06,2.03616e-05,3.21403e-05,5.93026e-05,1.92767e-05,-3.97275e-07
553,-3.16177e-06,1.94236e-05,3.11028e-05,5.91747e-05,1.57586e-05,1.54636e-06
554,3.2757e-07,1.695e-05,3.12044e-05,5.37035e-05,1.73669e-05,7.73991e-06
555,8.35123e-07,1.46832e-05,3.1677e-05,4.96139e-05,1.96491e-05,1.52601e-05
556,-3.84202e-06,1.43097e-05,3.06719e-05,5.39756e-05,1.70886e-05,1.99561e-05
557,-8.22979e-06,1.42274e-05,3.02458e-05,6.09709e-05,8.57246e-06,1.95489e-05
558,-5.10312e-06,1.4099e-05,3.4688e-05,6.23463e-05,-6.08179e-08,1.74759e-05
559,-2.35306e-07,1.49966e-05,3.97277e-05,5.92313e-05,-4.15447e-06,1.69632e-05
560,-3.0223e-07,1.51061e-05,4.03247e-05,5.63506e-05,-4.32088e-06,1.88498e-05
561,-2.11124e-06,1.34145e-05,4.03385e-05,5.92904e-05,-3.19949e-06,2.32645e-05
562,-2.65187e-06,1.3793e-05,4.07419e-05,6.41607e-05,-4.32707e-06,2.61453e-05
563,-2.66346e-06,1.7265e-05,3.92727e-05,6.2399e-05,-4.98586e-06,2.47855e-05
564,-3.58366e-06,1.99503e-05,3.60294e-05,5.93376e-05,7.34694e-06,2.17772e-05
565,-4.23682e-06,1.98641e-05,3.47638e-05,6.52108e-05,5.47506e-05,2.1441e-05
566,-1.34925e-06,1.7973e-05,3.63063e-05,7.38268e-05,0.00013255,2.44356e-05
567,4.97355e-06,1.46611e-05,3.82826e-05,7.37014e-05,0.00020169,2.69451e-05
568,9.61771e-06,1.0888e-05,3.84408e-05,6.41723e-05,0.000240275,2.69568e-05
569,9.1167e-06,7.87961e-06,3.69973e-05,4.96495e-05,0.00025376,2.55241e-05
570,2.7754e-06,5.67391e-06,3.61907e-05,3.77524e-05,0.000255909,2.44743e-05
571,-5.29036e-06,1.68837e-06,3.64878e-05,3.52912e-05,0.000252531,2.39542e-05
572,-8.47702e-06,-4.89133e-06,3.7146e-05,3.99209e-05,0.00024535,2.40132e-05
573,-5.13824e-06,-1.08256e-05,3.7036e-05,4.37373e-05,0.000235009,2.44467e-05
574,-9.3343e-07,-1.30947e-05,3.55202e-05,4.16303e-05,0.000222039,2.46833e-05
575,-6.40301e-07,-1.24649e-05,3.37514e-05,3.23349e-05,0.000206625,2.45295e-05
576,-2.54176e-06,-1.1574e-05,3.27297e-05,2.14515e-05,0.000188096,2.33181e-05
577,-3.73467e-06,-1.17534e-05,3.22223e-05,1.89263e-05,0.000166191,1.9267e-05
578,-2.69855e-06,-1.25202e-05,3.26082e-05,2.47299e-05,0.000144198,1.28408e-05
579,-1.1685e-07,-1.21722e-05,3.29379e-05,3.08529e-05,0.00012742,8.15541e-06
580,2.41028e-06,-1.16711e-05,3.31225e-05,3.4939e-05,0.000114128,7.37143e-06
581,3.74111e-06,-1.11307e-05,3.31268e-05,3.30309e-05,9.94474e-05,8.90261e-06
582,2.80954e-06,-9.51196e-06,3.25174e-05,2.5811e-05,8.43222e-05,9.43609e-06
583,-2.93975e-06,-7.83295e-06,3.32255e-05,2.56873e-05,7.22397e-05,8.32137e-06
584,-9.94805e-06,-6.79459e-06,3.5953e-05,3.48618e-05,5.87639e-05,7.10261e-06
585,-1.02269e-05,-5.60504e-06,3.63591e-05,4.21591e-05,4.2259e-05,7.26873e-06
586,-5.01712e-06,-5.38042e-06,3.49751e-05,4.30979e-05,2.76654e-05,7.03516e-06
587,-3.39851e-07,-6.75841e-06,3.54867e-05,4.27839e-05,1.72396e-05,3.06483e-06
588,3.77363e-06,-8.18195e-06,3.63828e-05,4.43353e-05,9.44688e-06,-4.04511e-06
589,5.40655e-06,-8.20598e-06,3.54624e-05,4.60101e-05,5.80962e-07,-1.11147e-05
590,2.61842e-06,-7.00604e-06,3.26746e-05,4.61736e-05,-1.15505e-05,-1.51859e-05
591,-3.44666e-06,-5.72251e-06,3.05127e-05,4.79988e-05,-2.43293e-05,-1.58768e-05
592,-1.02161e-05,-5.40033e-06,3.21571e-05,5.72759e-05,-3.56349e-05,-1.45638e-05
593,-1.17034e-05,-6.30022e-06,3.66941e-05,6.87832e-05,-4.47415e-05,-1.25329e-05
594,-7.42708e-06,-7.93333e-06,3.93028e-05,7.43987e-05,-5.19854e-05,-1.05797e-05
595,-3.85145e-06,-9.7172e-06,3.91686e-05,7.27654e-05,-5.87277e-05,-8.15337e-06
596,-3.46282e-06,-1.01628e-05,3.86037e-05,6.52315e-05,-6.60162e-05,-4.00824e-06
597,-5.38101e-06,-8.77403e-06,3.82166e-05,5.75517e-05,-7.29024e-05,1.54976e-06
598,-8.4299e-06,-6.072e-06,3.83855e-05,5.85631e-05,-7.85426e-05,6.83487e-06
599,-9.28359e-06,-2.39088e-06,3.96321e-05,6.5922e-05,-8.3126e-05,1.22935e-05
600,-6.58243e-06,-7.09487e-07,4.1037e-05,6.91284e-05,-8.75105e-05,1.87532e-05
601,-3.78504e-06,-3.35691e-06,4.07687e-05,6.5967e-05,-9.13299e-05,2.52687e-05
602,-3.02641e-06,-7.24274e-06,3.8657e-05,6.01945e-05,-9.40623e-05,3.03946e-05
603,-3.38738e-06,-7.63681e-06,3.59533e-05,5.58703e-05,-9.62001e-05,3.37174e-05
604,-5.01328e-06,-4.36171e-06,3.41135e-05,5.73193e-05,-9.71657e-05,3.57399e-05
605,-7.04519e-06,-3.79892e-07,3.47344e-05,6.32856e-05,-9.52974e-05,3.91901e-05
606,-6.3381e-06,3.13098e-06,3.76195e-05,6.67261e-05,-9.23358e-05,4.554e-05
607,-3.56386e-06,6.7203e-06,4.01943e-05,6.58925e-05,-9.25568e-05,5.16594e-05
608,-4.05878e-06,1.01154e-05,4.09615e-05,5.97139e-05,-9.43246e-05,5.49275e-05
609,-8.9828e-06,1.2568e-05,4.08886e-05,5.06326e-05,-9.37353e-05,5.37337e-05
610,-1.47547e-05,1.33344e-05,4.03475e-05,4.94666e-05,-9.14362e-05,4.66173e-05
611,-1.59927e-05,1.16222e-05,3.99233e-05,5.69597e-05,-9.24801e-05,3.98714e-05
612,-1.09245e-05,1.05408e-05,3.97819e-05,6.08357e-05,-9.42687e-05,3.85062e-05
613,-6.16304e-06,1.34737e-05,3.8516e-05,5.56955e-05,-9.49848e-05,3.67876e-05
614,-4.42706e-06,1.71638e-05,3.81115e-05,4.80526e-05,-9.81419e-05,3.21441e-05
615,-2.68211e-06,1.87e-05,3.91212e-05,4.65026e-05,-0.000102913,2.86437e-05
616,-1.77856e-06,2.00758e-05,3.92279e-05,4.83928e-05,-0.000105414,2.78078e-05
617,-3.18574e-06,2.27071e-05,3.88366e-05,4.4691e-05,-0.000102494,2.64527e-05
618,-7.86609e-06,2.46045e-05,3.8621e-05,3.78799e-05,-9.57107e-05,2.52007e-05
619,-1.35541e-05,2.46672e-05,3.9163e-05,3.82198e-05,-8.952e-05,2.54316e-05
620,-1.45041e-05,2.3784e-05,4.00752e-05,4.23103e-05,-8.7671e-05,2.53921e-05
621,-9.50355e-06,2.14634e-05,4.12772e-05,4.1559e-05,-8.83413e-05,2.34592e-05
622,-4.26436e-06,1.94855e-05,4.30736e-05,3.51194e-05,-8.88591e-05,2.11286e-05
623,-3.13812e-06,1.91773e-05,4.46653e-05,2.71154e-05,-8.85314e-05,2.03522e-05
624,-5.60921e-06,1.88149e-05,4.45637e-05,2.4155e-05,-8.5869e-05,1.97064e-05
625,-8.72301e-06,1.70365e-05,4.41447e-05,2.97176e-05,-8.1464e-05,1.76847e-05
626,-1.0066e-05,1.44371e-05,4.63921e-05,3.83865e-05,-7.79164e-05,1.56338e-05
627,-8.85493e-06,1.17137e-05,4.85639e-05,4.12657e-05,-7.48204e-05,1.2935e-05
628,-7.29605e-06,1.097e-05,4.67991e-05,3.6293e-05,-6.98527e-05,6.61697e-06
629,-7.93448e-06,1.26138e-05,4.25464e-05,2.71592e-05,-6.24857e-05,-2.2998e-06
630,-1.01131e-05,1.36451e-05,4.04707e-05,2.04722e-05,-5.37483e-05,-9.72141e-06
631,-1.18273e-05,1.3158e-05,4.18435e-05,2.10168e-05,-4.52131e-05,-1.33778e-05
632,-1.06338e-05,1.43514e-05,4.48822e-05,2.63873e-05,-3.68641e-05,-1.51317e-05
633,-6.27328e-06,1.7714e-05,4.79072e-05,3.25553e-05,-2.9347e-05,-1.64002e-05
634,-3.2986e-06,1.91309e-05,4.79131e-05,3.78709e-05,-2.31587e-05,-1.7088e-05
635,-4.86693e-06,1.7795e-05,4.40544e-05,3.67439e-05,-1.55921e-05,-1.73786e-05
636,-8.65741e-06,1.56821e-05,4.04325e-05,3.21047e-05,-7.67215e-06,-1.63513e-05
637,-1.38562e-05,1.36914e-05,4.01113e-05,3.53596e-05,-3.75772e-06,-1.36746e-05
638,-1.65496e-05,1.29064e-05,4.10476e-05,4.63637e-05,-2.60945e-06,-1.21974e-05
639,-1.22902e-05,1.62904e-05,4.09096e-05,5.57437e-05,-2.16132e-06,-1.06159e-05
640,-9.46008e-06,2.07025e-05,3.72183e-05,5.64948e-05,-2.00923e-06,-7.70844e-06
641,-1.07114e-05,2.29499e-05,3.33296e-05,5.41134e-05,2.13873e-07,-6.24571e-06
642,-9.3083e-06,2.58074e-05,3.50037e-05,5.97827e-05,5.44582e-06,-5.88763e-06
643,-6.93158e-06,2.8986e-05,3.88153e-05,6.80742e-05,1.05393e-05,-6.34611e-06
644,-5.19039e-06,2.8281e-05,4.21242e-05,6.78235e-05,1.45189e-05,-7.45204e-06
645,-5.33585e-06,2.41078e-05,4.37675e-05,6.35543e-05,1.78337e-05,-5.95193e-06
646,-6.49628e-06,2.21325e-05,4.38161e-05,6.796e-05,1.95378e-05,5.21551e-07
647,-5.65384e-06,2.37983e-05,4.35654e-05,7.91889e-05,1.96709e-05,8.74426e-06
648,-4.09344e-06,2.50091e-05,4.36946e-05,8.76e-05,1.95091e-05,1.45966e-05
649,-4.51465e-06,2.20878e-05,4.49014e-05,8.8235e-05,1.91263e-05,1.81199e-05
650,-5.58339e-06,1.70477e-05,4.51228e-05,8.17305e-05,1.81659e-05,2.01048e-05
651,-5.33747e-06,1.36249e-05,4.30738e-05,7.65837e-05,1.71521e-05,2.05732e-05
652,-5.01088e-06,1.35016e-05,4.07959e-05,8.09169e-05,1.75215e-05,2.01455e-05
653,-5.24178e-06,1.5463e-05,3.95807e-05,9.07863e-05,2.11042e-05,2.1592e-05
654,-4.37851e-06,1.66608e-05,3.87089e-05,9.71272e-05,2.77877e-05,2.62452e-05
655,-2.3011e-06,1.66149e-05,3.91338e-05,9.79913e-05,3.52743e-05,3.19706e-05
656,-1.45538e-06,1.61644e-05,4.0605e-05,9.39494e-05,3.97532e-05,3.59078e-05
657,-3.08577e-06,1.51114e-05,4.08189e-05,8.72314e-05,4.05828e-05,3.69963e-05
658,-7.76162e-06,1.35996e-05,3.93649e-05,8.49867e-05,4.20768e-05,3.61593e-05
659,-1.27515e-05,1.29044e-05,3.89756e-05,9.09756e-05,4.76006e-05,3.50025e-05
660,-1.27475e-05,1.33926e-05,4.08411e-05,9.59847e-05,5.46254e-05,3.61093e-05
661,-7.88851e-06,1.55116e-05,4.30126e-05,9.22779e-05,5.91955e-05,3.8715e-05
662,-3.79987e-06,1.77319e-05,4.09917e-05,8.35793e-05,6.0214e-05,3.88271e-05
663,-4.16857e-06,1.8022e-05,3.56769e-05,7.53954e-05,6.01428e-05,3.62744e-05
664,-1.04104e-05,1.76187e-05,3.1264e-05,7.2201e-05,6.06104e-05,3.31296e-05
665,-1.56374e-05,1.80499e-05,2.96582e-05,7.42368e-05,5.97338e-05,3.10566e-05
666,-1.08196e-05,1.84847e-05,3.32827e-05,7.57229e-05,5.6272e-05,3.33344e-05
667,-1.88131e-06,1.91596e-05,3.79902e-05,7.24825e-05,5.28914e-05,3.78541e-05
668,2.26483e-06,2.24045e-05,3.99003e-05,6.66834e-05,5.15544e-05,4.17764e-05
669,2.33169e-06,2.5588e-05,3.91264e-05,6.49468e-05,5.23617e-05,4.54233e-05
670,1.38972e-06,2.54663e-05,3.67181e-05,6.73208e-05,5.49017e-05,4.76318e-05
671,1.36528e-06,2.43156e-05,3.48121e-05,6.49129e-05,5.77607e-05,5.0573e-05
672,4.75189e-07,2.47498e-05,3.24014e-05,5.70005e-05,5.99544e-05,5.34689e-05
673,-2.99322e-06,2.59656e-05,2.98352e-05,5.42946e-05,6.10836e-05,5.42721e-05
674,-4.91692e-06,2.63027e-05,2.97645e-05,5.59994e-05,6.24402e-05,5.45214e-05
675,-1.92879e-06,2.73446e-05,3.21433e-05,5.54608e-05,6.45517e-05,5.48037e-05
676,1.2469e-06,2.98528e-05,3.55194e-05,5.03078e-05,6.51514e-05,5.32547e-05
677,1.19712e-07,3.16536e-05,3.82179e-05,4.22085e-05,6.44192e-05,4.84737e-05
678,-4.66224e-06,3.00964e-05,3.80239e-05,3.65941e-05,6.45384e-05,4.25068e-05
679,-1.04567e-05,2.62891e-05,3.57898e-05,3.91055e-05,6.4822e-05,3.85026e-05
680,-1.36152e-05,2.35304e-05,3.54891e-05,4.89798e-05,6.32381e-05,3.71421e-05
681,-1.30564e-05,2.16069e-05,3.82313e-05,6.00889e-05,5.97157e-05,3.71597e-05
682,-1.07796e-05,1.91976e-05,4.05211e-05,6.6953e-05,5.6373e-05,3.70303e-05
683,-8.6543e-06,1.63639e-05,4.05146e-05,6.58077e-05,5.42975e-05,3.51946e-05
684,-8.61037e-06,1.417e-05,3.93934e-05,6.04839e-05,5.19354e-05,3.29423e-05
685,-1.02722e-05,1.26133e-05,3.90252e-05,5.96278e-05,4.79847e-05,3.09408e-05
686,-9.18269e-06,1.164e-05,4.15264e-05,6.44218e-05,4.49225e-05,2.74668e-05
687,-5.41762e-06,1.09388e-05,4.48685e-05,6.71276e-05,4.61817e-05,2.12572e-05
688,-2.61337e-06,1.07492e-05,4.50293e-05,6.45509e-05,5.31175e-05,1.2011e-05
689,-6.65271e-07,1.06293e-05,4.34041e-05,5.71549e-05,6.22306e-05,1.52511e-06
690,-3.33329e-07,9.96926e-06,4.33175e-05,4.78932e-05,6.74831e-05,-7.18997e-06
691,-5.25751e-06,9.94294e-06,4.42717e-05,4.35788e-05,6.71946e-05,-1.40266e-05
692,-1.0503e-05,9.86789e-06,4.46523e-05,4.53663e-05,6.34635e-05,-1.86922e-05
693,-7.64587e-06,9.91531e-06,4.40887e-05,4.74055e-05,5.95077e-05,-2.01643e-05
694,-1.70242e-06,1.06197e-05,4.16615e-05,4.62573e-05,5.80482e-05,-1.92349e-05
695,-6.15546e-07,1.17577e-05,3.97594e-05,4.18558e-05,5.74142e-05,-1.74344e-05
696,-2.13222e-06,1.42089e-05,4.14834e-05,3.82557e-05,5.45914e-05,-1.55053e-05
697,-2.17302e-06,1.70988e-05,4.28505e-05,3.63932e-05,5.00029e-05,-1.54472e-05
698,-9.52545e-07,1.81676e-05,3.96268e-05,3.20367e-05,4.74245e-05,-1.63836e-05
699,-2.72855e-06,1.71404e-05,3.4207e-05,2.81834e-05,5.10927e-05,-1.51074e-05
700,-6.50365e-06,1.51507e-05,3.21643e-05,3.2025e-05,5.73865e-05,-1.19275e-05
701,-6.69313e-06,1.29356e-05,3.44006e-05,4.02758e-05,5.96334e-05,-7.27747e-06
702,-2.29386e-06,1.04072e-05,3.64926e-05,4.74624e-05,5.77928e-05,-2.32409e-06
703,2.55228e-06,8.6422e-06,3.56211e-05,4.9271e-05,5.42152e-05,8.2672e-07
704,4.21803e-06,8.66267e-06,3.27211e-05,4.33438e-05,4.92166e-05,1.8311e-06
705,2.29056e-06,9.75436e-06,3.03206e-05,3.62612e-05,4.38764e-05,3.47897e-06
706,-2.22753e-06,1.08486e-05,3.11606e-05,3.83545e-05,4.03184e-05,6.77428e-06
707,-6.39535e-06,1.11828e-05,3.46893e-05,4.87312e-05,3.90495e-05,1.06611e-05
708,-8.78574e-06,1.07118e-05,3.74792e-05,5.65108e-05,4.01166e-05,1.51116e-05
709,-9.84804e-06,1.08437e-05,3.70192e-05,5.72204e-05,4.27976e-05,2.05822e-05
710,-9.17064e-06,1.22616e-05,3.42881e-05,5.27592e-05,4.4552e-05,2.50895e-05
711,-7.09553e-06,1.32109e-05,3.15725e-05,4.76542e-05,4.38476e-05,2.54887e-05
712,-6.64533e-06,1.21203e-05,2.99957e-05,4.88022e-05,4.20087e-05,2.20803e-05
713,-7.59118e-06,1.08447e-05,3.05095e-05,5.66758e-05,4.16602e-05,1.97097e-05
714,-6.09072e-06,1.301e-05,3.25433e-05,6.2469e-05,4.47692e-05,2.16857e-05
715,-2.04254e-06,1.82045e-05,3.42738e-05,6.31293e-05,5.02008e-05,2.52798e-05
716,1.18496e-06,2.36825e-05,3.55725e-05,6.1708e-05,5.33143e-05,2.7412e-05
717,1.33392e-06,2.81975e-05,3.69647e-05,6.05876e-05,5.0827e-05,2.91243e-05
718,-1.17024e-06,3.05697e-05,3.73944e-05,6.35261e-05,4.49983e-05,2.9379e-05
719,-3.95865e-06,3.12512e-05,3.70498e-05,7.04948e-05,3.94151e-05,2.50088e-05
720,-4.14357e-06,3.3437e-05,3.67466e-05,7.68742e-05,3.53535e-05,1.8175e-05
721,-3.46559e-06,3.69289e-05,3.80011e-05,8.00461e-05,3.24472e-05,1.25173e-05
722,-3.40878e-06,3.90996e-05,4.03343e-05,7.94527e-05,3.15667e-05,1.18129e-05
723,-2.1585e-06,3.90811e-05,4.0559e-05,7.79804e-05,3.4048e-05,1.39176e-05
724,-2.53487e-06,3.70654e-05,3.85776e-05,7.3765e-05,3.78323e-05,1.1354e-05
725,-4.18387e-06,3.51091e-05,3.54237e-05,6.56869e-05,4.13978e-05,6.25778e-06
726,-5.49321e-06,3.55152e-05,3.17674e-05,5.98669e-05,4.26755e-05,3.73243e-06
727,-6.69586e-06,3.5047e-05,2.92796e-05,6.25591e-05,4.06985e-05,3.47301e-06
728,-5.31061e-06,3.25109e-05,2.90084e-05,6.81916e-05,3.75455e-05,5.11461e-06
729,-8.55455e-07,3.139e-05,2.94192e-05,6.96135e-05,3.47193e-05,8.40404e-06
730,2.58295e-06,3.13498e-05,2.93043e-05,6.66083e-05,3.47609e-05,1.18169e-05
731,1.47828e-06,3.01677e-05,2.82125e-05,6.17445e-05,3.73463e-05,1.37704e-05
732,-4.24161e-06,2.81335e-05,2.58842e-05,5.90893e-05,3.94332e-05,1.47094e-05
733,-1.05879e-05,2.67456e-05,2.4371e-05,6.04082e-05,3.87075e-05,1.47535e-05
734,-1.12123e-05,2.6155e-05,2.62669e-05,6.31136e-05,3.53118e-05,1.42154e-05
735,-5.77846e-06,2.56031e-05,2.98024e-05,6.38254e-05,3.26741e-05,1.4904e-05
736,-2.23444e-07,2.40663e-05,3.08749e-05,6.29868e-05,3.4241e-05,1.83597e-05
737,7.06295e-07,2.11906e-05,2.88521e-05,5.96404e-05,3.87993e-05,2.33573e-05
738,-2.9021e-06,1.70928e-05,2.51607e-05,5.61398e-05,4.14924e-05,2.76906e-05
739,-8.30485e-06,1.1788e-05,2.27581e-05,5.90636e-05,3.99355e-05,3.0286e-05
740,-1.01535e-05,5.85527e-06,2.48719e-05,6.87997e-05,3.47492e-05,3.13032e-05
741,-6.6946e-06,6.81027e-07,2.99642e-05,7.64527e-05,2.80826e-05,3.22559e-05
742,-1.55995e-06,-2.90291e-06,3.30335e-05,7.72487e-05,2.26968e-05,3.37444e-05
743,8.63872e-07,-5.04125e-06,3.34253e-05,7.29653e-05,1.88884e-05,3.70905e-05
744,-1.80861e-06,-6.0479e-06,3.229e-05,6.74542e-05,1.43646e-05,4.079e-05
745,-8.56817e-06,-5.30429e-06,2.94279e-05,6.66463e-05,8.62932e-06,4.0405e-05
746,-1.24129e-05,-3.88526e-06,2.78075e-05,7.23133e-05,3.15838e-06,3.8026e-05
747,-9.00444e-06,-2.79849e-06,2.86458e-05,7.74577e-05,-1.56011e-07,3.91206e-05
748,-5.94241e-06,-4.10089e-06,2.86723e-05,7.50046e-05,-3.04029e-07,3.9631e-05
749,-7.98668e-06,-7.46207e-06,2.81899e-05,6.69914e-05,1.03564e-06,3.57973e-05
750,-1.21177e-05,-7.31392e-06,2.8547e-05,6.13675e-05,2.45387e-06,3.18954e-05
751,-1.45903e-05,-3.60493e-06,2.88347e-05,5.73513e-05,4.72564e-06,2.95375e-05
752,-1.32383e-05,-9.65474e-07,2.93241e-05,4.77383e-05,6.96758e-06,2.74307e-05
753,-1.02024e-05,-1.17616e-07,3.02411e-05,3.59403e-05,7.78711e-06,2.44483e-05
754,-1.04139e-05,5.67715e-07,3.12039e-05,3.11298e-05,6.9268e-06,1.98817e-05
755,-1.35008e-05,1.96186e-06,3.20485e-05,3.09005e-05,4.87086e-06,1.43495e-05
756,-1.56334e-05,4.12658e-06,3.32169e-05,2.83511e-05,3.95963e-06,9.83218e-06
757,-1.5444e-05,4.7204e-06,3.60473e-05,2.16376e-05,5.29514e-06,7.04633e-06
758,-1.32824e-05,2.36451e-06,3.95004e-05,1.33365e-05,7.00998e-06,5.69407e-06
759,-1.31855e-05,-1.00247e-06,3.99451e-05,7.72167e-06,8.80854e-06,4.54063e-06
760,-1.69703e-05,-1.94109e-06,3.80805e-05,9.27095e-06,9.94254e-06,3.00684e-06
761,-1.89574e-05,4.46777e-07,3.75234e-05,1.52627e-05,8.76334e-06,1.9613e-06
762,-1.4471e-05,4.24225e-06,3.69885e-05,1.91769e-05,7.70806e-06,1.42053e-06
763,-8.43511e-06,6.46022e-06,3.41212e-05,1.83237e-05,9.71877e-06,8.4997e-07
764,-6.9061e-06,6.86201e-06,3.0937e-05,1.35249e-05,1.3189e-05,1.69946e-06
765,-8.95349e-06,8.35599e-06,2.95949e-05,9.99775e-06,1.50854e-05,5.65278e-06
766,-1.16177e-05,1.05732e-05,3.01178e-05,1.30015e-05,1.57172e-05,8.93314e-06
767,-1.25646e-05,1.01727e-05,3.20703e-05,2.00149e-05,1.69796e-05,8.12906e-06
768,-1.04294e-05,6.76359e-06,3.42124e-05,2.17302e-05,1.94404e-05,5.9784e-06
769,-7.87405e-06,2.94585e-06,3.5209e-05,1.73061e-05,2.32452e-05,7.0278e-06
770,-7.62382e-06,1.69761e-07,3.57838e-05,1.1278e-05,2.96465e-05,1.15059e-05
771,-9.02841e-06,-8.05932e-08,3.66612e-05,7.0259e-06,3.86667e-05,1.66418e-05
772,-1.2015e-05,1.56722e-06,3.6215e-05,8.96899e-06,4.79162e-05,2.01049e-05
773,-1.32412e-05,1.96337e-06,3.47507e-05,1.63485e-05,5.40061e-05,2.07704e-05
774,-1.046e-05,3.62145e-07,3.57304e-05,2.17112e-05,5.55619e-05,1.87861e-05
775,-7.78782e-06,-8.94467e-07,3.82421e-05,2.07104e-05,5.62553e-05,1.77531e-05
776,-6.38817e-06,-6.32568e-07,3.94174e-05,1.75219e-05,5.69364e-05,1.93843e-05
777,-4.06905e-06,-8.54079e-07,3.94406e-05,1.857e-05,5.50358e-05,1.97482e-05
778,-1.0417e-06,-5.27744e-07,3.89671e-05,2.03068e-05,5.17726e-05,1.6956e-05
779,-2.46016e-07,1.79264e-06,3.92454e-05,1.85111e-05,4.97104e-05,1.40592e-05
780,-3.23169e-06,5.75239e-06,4.10242e-05,1.78146e-05,5.05587e-05,1.26452e-05
781,-7.29109e-06,1.05574e-05,4.43237e-05,2.44897e-05,5.17999e-05,8.95305e-06
782,-7.56073e-06,1.53439e-05,4.84348e-05,3.29969e-05,5.09759e-05,3.31731e-06
783,-3.45821e-06,1.98851e-05,5.00067e-05,3.8674e-05,5.09016e-05,-7.56905e-07
784,2.28682e-07,2.17188e-05,4.77993e-05,4.07437e-05,5.43706e-05,-2.18669e-06
785,9.82793e-07,2.20684e-05,4.44357e-05,3.74629e-05,5.83768e-05,-1.66266e-06
786,-2.094e-06,2.43704e-05,4.17945e-05,3.34118e-05,5.87983e-05,-9.0866e-07
787,-8.4062e-06,2.79412e-05,4.05142e-05,3.59828e-05,5.57196e-05,5.86809e-07
788,-1.25518e-05,2.95424e-05,4.03924e-05,4.48104e-05,5.14095e-05,4.7663e-06
789,-1.01584e-05,2.93875e-05,3.93733e-05,5.28764e-05,4.6362e-05,1.1121e-05
790,-5.26852e-06,3.04886e-05,3.63745e-05,5.62386e-05,4.08177e-05,1.65158e-05
791,-3.44693e-06,3.26155e-05,3.32796e-05,5.40173e-05,3.70188e-05,1.84076e-05
792,-4.56513e-06,3.36731e-05,3.16936e-05,5.08918e-05,3.76675e-05,1.68535e-05
793,-7.22743e-06,3.37718e-05,3.16843e-05,5.46865e-05,4.09628e-05,1.35196e-05
794,-1.01005e-05,3.38925e-05,3.40568e-05,6.45619e-05,4.09428e-05,1.01425e-05
795,-9.45569e-06,3.32383e-05,3.72897e-05,7.14305e-05,3.70092e-05,6.76543e-06
796,-5.1245e-06,3.1313e-05,3.70029e-05,7.24169e-05,3.58888e-05,2.13613e-06
797,-1.86199e-06,2.99339e-05,3.37957e-05,7.02778e-05,3.92349e-05,-2.58919e-06
798,-1.93405e-06,3.14395e-05,3.14039e-05,6.92185e-05,4.08873e-05,-7.26816e-06
799,-6.93406e-06,3.40347e-05,3.19694e-05,7.41536e-05,4.00215e-05,-1.30267e-05
800,-1.26032e-05,3.47148e-05,3.57716e-05,8.55126e-05,3.80178e-05,-1.78904e-05
801,-8.69117e-06,3.36424e-05,4.06063e-05,9.3895e-05,3.50271e-05,-1.85719e-05
802,-1.63313e-06,3.19708e-05,4.42989e-05,9.17488e-05,3.31623e-05,-1.77231e-05
803,-1.35616e-06,3.02038e-05,4.64911e-05,8.28966e-05,3.41325e-05,-1.75063e-05
804,-3.91434e-06,2.75907e-05,4.76272e-05,7.71475e-05,3.43888e-05,-1.6093e-05
805,-3.56295e-06,2.50132e-05,4.92357e-05,7.43909e-05,3.09031e-05,-1.36308e-05
806,1.02159e-08,2.35083e-05,5.1176e-05,6.90403e-05,2.66558e-05,-8.57384e-06
807,1.87597e-06,2.15904e-05,5.04745e-05,6.49861e-05,2.44635e-05,-2.85018e-06
808,4.08702e-07,1.81424e-05,4.89516e-05,6.71352e-05,2.41732e-05,1.8288e-07
809,6.27444e-08,1.34937e-05,4.96174e-05,7.04137e-05,2.37875e-05,1.71966e-06
810,2.87593e-06,9.63757e-06,5.04871e-05,7.03118e-05,2.32624e-05,4.26669e-06
811,3.46093e-06,6.13687e-06,4.98637e-05,6.58504e-05,2.33079e-05,8.2584e-06
812,1.3258e-06,1.83667e-06,4.89272e-05,5.8004e-05,2.32001e-05,1.20833e-05
813,-1.89407e-06,-1.70775e-06,4.78609e-05,5.2252e-05,2.45088e-05,1.44513e-05
814,-5.81555e-06,-3.31146e-06,4.60965e-05,5.3862e-05,2.73886e-05,1.65802e-05
815,-8.13079e-06,-2.86663e-06,4.57261e-05,6.07354e-05,3.01155e-05,2.02441e-05
816,-6.67534e-06,-2.95737e-06,4.74925e-05,6.72568e-05,3.21422e-05,2.39227e-05
817,-4.39507e-06,-6.40828e-06,4.89942e-05,6.98494e-05,3.31529e-05,2.48225e-05
818,-4.6729e-06,-1.13649e-05,4.90685e-05,6.66935e-05,3.35558e-05,2.37698e-05
819,-5.58228e-06,-1.26945e-05,4.94048e-05,6.19913e-05,3.39353e-05,2.2339e-05
820,-5.95908e-06,-9.99755e-06,5.00934e-05,6.40799e-05,3.41692e-05,2.02491e-05
821,-5.5022e-06,-8.67318e-06,4.9094e-05,7.32636e-05,3.25934e-05,1.96745e-05
822,-3.23925e-06,-1.10648e-05,4.54603e-05,8.04131e-05,2.72521e-05,2.1164e-05
823,-6.18555e-07,-1.32952e-05,4.04714e-05,8.22884e-05,2.0052e-05,2.24114e-05
824,-4.08166e-07,-1.32774e-05,3.64227e-05,7.9551e-05,1.50022e-05,2.34582e-05
825,-1.50303e-06,-1.2568e-05,3.43256e-05,7.45141e-05,1.22755e-05,2.46543e-05
826,-3.75454e-06,-9.25011e-06,3.33894e-05,7.38451e-05,9.57231e-06,2.47488e-05
827,-5.48169e-06,-3.74172e-06,3.42564e-05,7.89377e-05,6.36292e-06,2.40952e-05
828,-3.46499e-06,-1.28473e-06,3.73514e-05,8.08777e-05,5.93139e-06,2.38323e-05
829,-1.94358e-06,-2.99092e-06,3.86271e-05,7.6426e-05,9.09331e-06,2.52595e-05
830,-4.31241e-06,-3.32754e-06,3.63484e-05,6.92458e-05,1.27727e-05,2.72262e-05
831,-6.75619e-06,-3.95191e-08,3.36649e-05,6.38119e-05,1.45275e-05,2.84569e-05
832,-7.51348e-06,4.21042e-06,3.31213e-05,6.08343e-05,1.52076e-05,3.04444e-05
833,-7.98018e-06,6.94603e-06,3.51857e-05,5.44091e-05,1.84564e-05,3.09889e-05
834,-1.11072e-05,6.18265e-06,3.7304e-05,4.71617e-05,2.42944e-05,2.78603e-05
835,-1.42253e-05,4.37524e-06,3.73013e-05,4.86854e-05,2.93133e-05,2.38991e-05
836,-1.05852e-05,5.72873e-06,3.66099e-05,5.74734e-05,3.14088e-05,2.28925e-05
837,-3.30449e-06,9.6157e-06,3.54304e-05,6.66824e-05,3.22001e-05,2.34815e-05
838,-1.99786e-06,1.17329e-05,3.39872e-05,6.9337e-05,3.39521e-05,2.13181e-05
839,-5.55853e-06,1.12843e-05,3.29083e-05,6.11643e-05,3.62655e-05,1.62341e-05
840,-8.43948e-06,1.05833e-05,3.12894e-05,5.10849e-05,3.79818e-05,1.23789e-05
841,-1.0632e-05,1.03061e-05,3.07638e-05,5.38388e-05,3.80578e-05,1.28551e-05
842,-1.14005e-05,1.06765e-05,3.40982e-05,6.77146e-05,3.73606e-05,1.66658e-05
843,-8.98648e-06,1.25386e-05,3.94042e-05,7.76236e-05,3.67733e-05,2.04543e-05
844,-5.06066e-06,1.50593e-05,4.23e-05,7.5481e-05,3.57628e-05,2.23255e-05
845,-2.32089e-06,1.62873e-05,4.13518e-05,6.38121e-05,3.56434e-05,2.24496e-05
846,-2.68141e-06,1.63226e-05,3.76757e-05,5.21165e-05,3.87346e-05,2.05974e-05
847,-5.1427e-06,1.60857e-05,3.37907e-05,5.05946e-05,4.42738e-05,1.76379e-05
848,-4.76771e-06,1.66148e-05,3.26014e-05,5.71768e-05,4.94542e-05,1.51524e-05
849,2.17399e-07,1.85197e-05,3.4717e-05,6.01272e-05,5.28198e-05,1.38e-05
850,5.06714e-06,2.03437e-05,3.72173e-05,5.5387e-05,5.48915e-05,1.25816e-05
851,5.7265e-06,2.01947e-05,3.68236e-05,4.57827e-05,5.53791e-05,1.03856e-05
852,2.36261e-06,1.88579e-05,3.36399e-05,3.73295e-05,5.3637e-05,8.84424e-06
853,-4.93308e-06,1.76144e-05,3.19383e-05,3.57157e-05,4.8493e-05,9.39819e-06
854,-1.08584e-05,1.65025e-05,3.35131e-05,3.84624e-05,4.23581e-05,9.90383e-06
855,-9.10517e-06,1.68506e-05,3.60726e-05,3.83072e-05,3.88117e-05,8.04515e-06
856,-3.02339e-06,1.76705e-05,3.87347e-05,3.50822e-05,3.80589e-05,3.82019e-06
857,1.63441e-06,1.79348e-05,3.92479e-05,3.3924e-05,3.86705e-05,-1.04724e-06
858,4.13141e-06,1.83072e-05,3.72861e-05,3.59186e-05,3.60867e-05,-2.75514e-06
859,3.20521e-06,1.71781e-05,3.47785e-05,3.68201e-05,3.17097e-05,-7.7764e-07
860,-4.14829e-07,1.42569e-05,3.3361e-05,3.2118e-05,3.03488e-05,9.6763e-07
861,-6.45438e-06,1.04818e-05,3.35539e-05,2.57245e-05,3.21165e-05,-8.42197e-07
862,-1.33287e-05,7.40852e-06,3.38249e-05,2.66818e-05,3.19832e-05,-4.23882e-06
863,-1.56811e-05,7.27305e-06,3.49568e-05,3.29351e-05,2.85924e-05,-4.33951e-06
864,-1.31718e-05,9.8835e-06,3.63939e-05,3.79959e-05,2.54274e-05,-1.56393e-06
865,-1.13844e-05,1.23252e-05,3.67548e-05,3.9824e-05,2.4652e-05,1.93837e-06
866,-1.23184e-05,1.22653e-05,3.77407e-05,3.85935e-05,2.46006e-05,3.98655e-06
867,-1.48133e-05,1.05322e-05,3.98897e-05,3.549e-05,2.4349e-05,3.60034e-06
868,-1.71189e-05,9.19647e-06,4.10261e-05,3.5609e-05,2.40087e-05,3.0759e-06
869,-1.58249e-05,8.73106e-06,4.03817e-05,4.1255e-05,2.10857e-05,3.21076e-06
870,-1.00949e-05,8.11595e-06,3.93112e-05,4.76615e-05,1.56297e-05,4.02035e-06
871,-4.38292e-06,7.24172e-06,3.97611e-05,4.89873e-05,1.0533e-05,6.21874e-06
872,-3.66535e-06,6.59275e-06,4.1895e-05,4.33909e-05,8.0648e-06,8.94271e-06
873,-7.17478e-06,6.82385e-06,4.32011e-05,3.54157e-05,7.48168e-06,1.02936e-05
874,-1.16727e-05,7.30577e-06,4.28108e-05,3.36776e-05,6.72516e-06,1.05868e-05
875,-1.19149e-05,7.61152e-06,4.22136e-05,3.94507e-05,4.03636e-06,1.10421e-05
876,-6.53913e-06,8.44284e-06,4.21433e-05,4.51259e-05,2.7048e-07,1.34113e-05
877,-1.86592e-06,8.22968e-06,4.1949e-05,4.71756e-05,-2.71873e-06,1.70165e-05
878,-3.21837e-06,5.53195e-06,4.1233e-05,4.35146e-05,-5.22992e-06,1.82645e-05
879,-8.13121e-06,2.15072e-06,4.17246e-05,3.65283e-05,-6.98763e-06,1.66208e-05
880,-1.34417e-05,1.10275e-07,4.31521e-05,3.57317e-05,-6.54297e-06,1.41241e-05
881,-1.6259e-05,-1.32652e-06,4.36306e-05,4.19493e-05,-6.04057e-06,1.30669e-05
882,-1.28986e-05,-2.96299e-06,4.19938e-05,4.44615e-05,-5.12721e-06,1.38491e-05
883,-6.58254e-06,-3.00498e-06,4.05333e-05,3.75498e-05,-2.89729e-06,1.26825e-05
884,-1.01828e-06,-1.64041e-06,4.08596e-05,2.94497e-05,-8.48098e-07,1.01834e-05
885,2.57008e-06,-2.04011e-06,4.04067e-05,2.84137e-05,-3.0245e-08,1.06365e-05
886,3.88661e-06,-2.64595e-06,3.98548e-05,2.90799e-05,7.62482e-07,1.30642e-05
887,3.456e-06,-5.55608e-07,3.97674e-05,2.50302e-05,4.169e-06,1.59695e-05
888,1.61941e-07,2.82529e-06,4.10801e-05,2.03854e-05,7.98871e-06,1.90038e-05
889,-3.90732e-06,5.01386e-06,4.33641e-05,2.564e-05,1.00552e-05,2.14081e-05
890,-3.56896e-06,5.62483e-06,4.49853e-05,3.50314e-05,1.12072e-05,2.28574e-05
891,2.45864e-06,6.81683e-06,4.47241e-05,3.82985e-05,1.11705e-05,2.50287e-05
892,8.43817e-06,9.36122e-06,4.17545e-05,3.4374e-05,9.77701e-06,2.84157e-05
893,1.00182e-05,1.17165e-05,3.83362e-05,2.73467e-05,7.87624e-06,3.13656e-05
894,6.14645e-06,1.08218e-05,3.70176e-05,2.53043e-05,6.2521e-06,3.22648e-05
895,-2.17388e-07,6.67656e-06,3.71472e-05,3.31418e-05,4.91193e-06,3.28474e-05
896,-2.90075e-06,3.44384e-06,3.7782e-05,4.32293e-05,3.60507e-06,3.60069e-05
897,-8.52585e-08,2.31415e-06,3.88417e-05,4.57894e-05,3.79852e-06,3.9766e-05
898,3.62695e-06,2.94308e-06,3.87468e-05,4.24131e-05,7.10808e-06,4.0635e-05
899,3.37979e-06,5.27673e-06,3.74027e-05,3.78196e-05,1.16183e-05,3.79161e-05
900,-6.92286e-07,8.00448e-06,3.65393e-05,3.59549e-05,1.41265e-05,3.17793e-05
901,-5.06155e-06,9.12967e-06,3.68542e-05,4.01917e-05,1.39059e-05,2.35852e-05
902,-6.61114e-06,8.2951e-06,3.74303e-05,4.99017e-05,1.28123e-05,1.86919e-05
903,-5.88499e-06,7.51685e-06,3.75118e-05,5.81274e-05,1.42815e-05,1.90889e-05
904,-5.12392e-06,7.85332e-06,3.57619e-05,6.21067e-05,2.0574e-05,2.08228e-05
905,-5.16369e-06,9.34961e-06,3.27062e-05,6.18429e-05,3.02907e-05,2.16978e-05
906,-6.21577e-06,1.10679e-05,3.18382e-05,6.09031e-05,4.0283e-05,2.13759e-05
907,-1.00608e-05,1.07664e-05,3.44529e-05,6.70616e-05,4.91053e-05,1.90766e-05
908,-1.27087e-05,7.83377e-06,3.73344e-05,8.0453e-05,5.38157e-05,1.49678e-05
909,-8.28704e-06,6.33773e-06,3.9202e-05,9.00534e-05,5.3423e-05,1.28449e-05
910,-2.60328e-06,8.72945e-06,4.03325e-05,8.80783e-05,5.24954e-05,1.03532e-05
911,-4.2657e-07,1.20758e-05,3.97502e-05,7.97848e-05,5.30865e-05,6.08353e-06
912,8.43978e-07,1.33773e-05,3.78255e-05,7.49565e-05,5.431e-05,7.32727e-06
913,2.04669e-06,1.27653e-05,3.60535e-05,7.26817e-05,5.56628e-05,1.12481e-05
914,1.6231e-06,1.42769e-05,3.47316e-05,6.68086e-05,5.62884e-05,1.30774e-05
915,-2.55626e-06,1.70368e-05,3.2995e-05,6.02063e-05,5.84214e-05,1.39518e-05
916,-8.24093e-06,1.81214e-05,3.24394e-05,5.83335e-05,6.28588e-05,1.68536e-05
917,-1.06442e-05,1.80495e-05,3.51442e-05,5.80721e-05,6.72083e-05,2.02248e-05
918,-7.39758e-06,1.78162e-05,3.80779e-05,5.56104e-05,6.93975e-05,2.19703e-05
919,-2.18884e-06,1.67715e-05,3.73762e-05,5.02281e-05,7.0527e-05,2.08512e-05
920,9.15473e-07,1.5104e-05,3.48208e-05,4.27435e-05,7.32601e-05,1.64171e-05
921,-8.63394e-07,1.56394e-05,3.37712e-05,3.67659e-05,7.78286e-05,1.19326e-05
922,-5.20858e-06,1.77918e-05,3.43379e-05,3.67738e-05,7.96724e-05,8.89028e-06
923,-6.77221e-06,1.85082e-05,3.54811e-05,4.01707e-05,7.61335e-05,6.67945e-06
924,-4.71208e-06,1.67181e-05,3.66371e-05,4.05826e-05,7.08514e-05,6.27427e-06
925,-2.76878e-06,1.47503e-05,3.74821e-05,3.76329e-05,6.78806e-05,9.91684e-06
926,-2.78518e-06,1.48294e-05,3.80549e-05,3.49378e-05,6.83551e-05,1.5839e-05
927,-3.24609e-06,1.75778e-05,3.75795e-05,3.54013e-05,7.04509e-05,2.01017e-05
928,-3.88179e-06,2.14895e-05,3.6779e-05,4.07591e-05,7.19037e-05,2.10701e-05
929,-3.60824e-06,2.45799e-05,3.80532e-05,4.80038e-05,7.03208e-05,2.09881e-05
930,-2.0214e-06,2.45865e-05,4.04514e-05,5.18115e-05,6.57145e-05,2.15024e-05
931,-9.53563e-08,2.12519e-05,3.96904e-05,5.25124e-05,6.08756e-05,2.3938e-05
932,-3.165e-07,1.80539e-05,3.58364e-05,5.07129e-05,5.63292e-05,2.59067e-05
933,-1.7645e-06,1.71138e-05,3.43745e-05,4.70126e-05,5.15893e-05,2.50646e-05
934,-4.82801e-06,1.70055e-05,3.74625e-05,4.65033e-05,4.66058e-05,2.25199e-05
935,-8.97193e-06,1.53579e-05,4.16852e-05,4.99619e-05,3.98545e-05,2.18851e-05
936,-7.47256e-06,1.40396e-05,4.20582e-05,5.0593e-05,3.39407e-05,2.36559e-05
937,-3.66536e-06,1.53797e-05,3.89289e-05,4.78976e-05,3.29027e-05,2.25658e-05
938,-2.9529e-06,1.74474e-05,3.59514e-05,4.42758e-05,3.29403e-05,1.84148e-05
939,-3.29105e-06,1.5498e-05,3.55921e-05,4.27321e-05,2.92452e-05,1.54176e-05
940,-3.71175e-06,9.29994e-06,3.68821e-05,4.20216e-05,2.51957e-05,1.4196e-05
941,-3.94918e-06,4.45719e-06,3.68751e-05,3.8953e-05,2.27417e-05,1.14143e-05
942,-6.06175e-06,2.55975e-06,3.63847e-05,3.75775e-05,2.07917e-05,6.0372e-06
943,-9.11502e-06,3.18008e-06,3.70412e-05,4.2926e-05,1.85433e-05,2.7276e-06
944,-8.86399e-06,5.18552e-06,3.95142e-05,5.10972e-05,1.60527e-05,2.8526e-06
945,-4.18558e-06,7.81636e-06,4.19722e-05,5.53235e-05,1.46529e-05,3.51373e-06
946,-1.57038e-07,1.02395e-05,4.39448e-05,5.33845e-05,1.64318e-05,4.854e-06
947,-3.53159e-07,1.34222e-05,4.54916e-05,4.69502e-05,1.97728e-05,8.80366e-06
948,-4.25591e-06,1.75918e-05,4.56128e-05,4.24642e-05,2.2162e-05,1.46223e-05
949,-9.05579e-06,1.97525e-05,4.34483e-05,4.65673e-05,2.24843e-05,1.90981e-05
950,-1.17019e-05,2.0588e-05,4.05917e-05,5.59898e-05,2.18951e-05,2.03545e-05
951,-1.14435e-05,2.29852e-05,3.8992e-05,6.29505e-05,2.24563e-05,1.90086e-05
952,-9.10696e-06,2.63667e-05,3.85859e-05,6.47828e-05,2.4428e-05,1.66839e-05
953,-6.82882e-06,2.72299e-05,3.85586e-05,6.10288e-05,2.91956e-05,1.38568e-05
954,-7.17573e-06,2.68254e-05,3.79142e-05,5.49454e-05,3.5919e-05,1.10861e-05
955,-1.07785e-05,2.6881e-05,3.65243e-05,5.47085e-05,4.09529e-05,9.43784e-06
956,-1.21056e-05,2.65516e-05,3.56522e-05,6.167e-05,4.2031e-05,9.82801e-06
957,-6.70642e-06,2.58479e-05,3.64433e-05,6.74861e-05,4.24782e-05,1.34249e-05
958,6.93146e-07,2.66891e-05,3.68691e-05,6.83639e-05,4.43249e-05,1.90392e-05
959,3.32704e-06,2.8799e-05,3.54373e-05,6.43014e-05,4.42582e-05,2.29964e-05
960,1.32531e-06,3.15874e-05,3.34869e-05,5.79897e-05,4.08722e-05,2.27888e-05
961,-2.63355e-06,3.39381e-05,3.29962e-05,5.74127e-05,3.77473e-05,1.91552e-05
962,-5.97373e-06,3.41698e-05,3.40529e-05,6.43593e-05,3.55397e-05,1.82446e-05
963,-5.97114e-06,3.48182e-05,3.62471e-05,7.04154e-05,3.34495e-05,2.10439e-05
964,-3.56142e-06,3.77386e-05,3.86843e-05,6.72872e-05,3.13058e-05,2.12773e-05
965,-1.03264e-06,4.09591e-05,3.97858e-05,5.82804e-05,2.83562e-05,1.89272e-05
966,-1.32094e-06,4.22236e-05,3.81161e-05,5.4985e-05,2.30141e-05,1.86829e-05
967,-4.83548e-06,4.24447e-05,3.48443e-05,5.70596e-05,1.59617e-05,1.81758e-05
968,-7.67189e-06,4.26258e-05,3.18768e-05,5.72516e-05,9.79003e-06,1.52464e-05
969,-1.03668e-05,4.3191e-05,3.05704e-05,5.546e-05,4.20057e-06,1.19662e-05
970,-1.38746e-05,4.3199e-05,2.91577e-05,5.66262e-05,-1.83994e-06,9.33031e-06
971,-1.62083e-05,4.026e-05,2.72805e-05,5.86039e-05,-8.50349e-06,8.38954e-06
972,-1.56132e-05,3.53434e-05,2.64913e-05,5.89589e-05,-1.38387e-05,9.43397e-06
973,-1.48938e-05,3.08136e-05,2.59984e-05,5.82209e-05,-1.58305e-05,1.18186e-05
974,-1.57813e-05,2.74164e-05,2.4857e-05,5.55915e-05,-1.54531e-05,1.35987e-05
975,-1.78356e-05,2.50568e-05,2.38763e-05,5.27283e-05,-1.36494e-05,1.39216e-05
976,-2.06129e-05,2.4121e-05,2.45441e-05,5.39555e-05,-9.63065e-06,1.37193e-05
977,-2.20664e-05,2.4102e-05,2.63893e-05,5.83369e-05,-4.25214e-06,1.50389e-05
978,-2.04848e-05,2.37622e-05,2.7598e-05,6.1652e-05,6.44779e-07,1.75283e-05
979,-1.65199e-05,2.26048e-05,2.70503e-05,6.27136e-05,6.13941e-06,1.94726e-05
980,-1.29747e-05,2.11468e-05,2.52141e-05,6.07067e-05,1.22376e-05,1.99048e-05
981,-1.26261e-05,1.92111e-05,2.18536e-05,5.8612e-05,1.62596e-05,1.85321e-05
982,-1.51662e-05,1.55869e-05,1.78089e-05,6.38772e-05,1.66562e-05,1.63451e-05
983,-1.51202e-05,1.02845e-05,1.60986e-05,7.65481e-05,1.53961e-05,1.56407e-05
984,-1.05922e-05,5.13216e-06,1.87356e-05,8.64166e-05,1.45928e-05,1.86185e-05
985,-6.35269e-06,2.07299e-06,2.33583e-05,8.82591e-05,1.39746e-05,2.15708e-05
986,-5.92382e-06,7.92506e-07,2.59457e-05,8.44566e-05,1.37198e-05,1.91927e-05
987,-8.41691e-06,-3.93717e-07,2.54656e-05,8.1891e-05,1.34229e-05,1.59537e-05
988,-1.41378e-05,-3.17333e-06,2.48831e-05,8.47972e-05,1.39031e-05,1.5063e-05
989,-1.77779e-05,-5.72855e-06,2.56304e-05,9.13551e-05,1.46598e-05,1.43271e-05
990,-1.31253e-05,-6.00336e-06,2.69358e-05,9.52997e-05,1.53019e-05,1.35819e-05
991,-7.32541e-06,-6.04872e-06,2.75454e-05,9.51246e-05,1.68739e-05,1.30414e-05
992,-5.11488e-06,-6.39306e-06,2.68343e-05,9.50014e-05,1.99787e-05,1.46573e-05
993,-4.02901e-06,-6.5194e-06,2.60485e-05,9.50352e-05,2.32355e-05,1.84907e-05
994,-2.81929e-06,-6.87831e-06,2.6182e-05,9.09001e-05,2.50014e-05,2.34725e-05
995,-2.0448e-06,-7.01451e-06,2.88703e-05,8.07753e-05,2.65441e-05,2.86063e-05
996,-4.91433e-06,-7.34523e-06,3.23966e-05,6.97671e-05,2.86756e-05,3.26535e-05
997,-9.75399e-06,-8.74203e-06,3.30056e-05,6.73327e-05,3.01644e-05,3.51367e-05
998,-1.09223e-05,-9.88175e-06,3.17742e-05,7.23877e-05,2.72598e-05,3.80612e-05
999,-8.85902e-06,-8.93876e-06,3.06208e-05,7.56513e-05,2.18302e-05,4.05553e-05
1000,-8.81665e-06,-7.60742e-06,3.09598e-05,7.19982e-05,1.8873e-05,4.0184e-05
1001,-9.43358e-06,-6.66553e-06,3.22412e-05,6.38682e-05,1.83988e-05,3.79938e-05
1002,-8.71204e-06,-5.22519e-06,3.33596e-05,5.76997e-05,1.86792e-05,3.6209e-05
1003,-8.01135e-06,-2.85535e-06,3.49125e-05,5.85091e-05,1.93748e-05,3.55677e-05
1004,-6.56969e-06,-2.46451e-07,3.7423e-05,6.42462e-05,2.06539e-05,3.51266e-05
1005,-2.19415e-06,1.78894e-06,3.99477e-05,6.68e-05,2.32326e-05,3.50661e-05
1006,2.69281e-06,3.81014e-06,4.18177e-05,6.0853e-05,2.72755e-05,3.55799e-05
1007,3.82522e-06,6.35971e-06,4.40578e-05,4.86127e-05,2.88029e-05,3.52634e-05
1008,1.81531e-06,9.18843e-06,4.64652e-05,3.97643e-05,2.58184e-05,3.24999e-05
1009,-2.27637e-07,1.1491e-05,4.77612e-05,4.05536e-05,2.23158e-05,2.85487e-05
1010,1.8593e-06,1.34302e-05,4.8244e-05,4.58499e-05,2.02271e-05,2.67926e-05
1011,9.07652e-06,1.53266e-05,4.82995e-05,4.73313e-05,1.66128e-05,2.92575e-05
1012,1.53234e-05,1.67205e-05,4.81532e-05,4.49924e-05,1.37177e-05,3.35965e-05
1013,1.41607e-05,1.59142e-05,4.80012e-05,4.22718e-05,1.64312e-05,3.50221e-05
1014,7.52929e-06,1.16979e-05,4.66482e-05,4.20733e-05,2.04937e-05,3.15876e-05
1015,-4.09438e-07,6.39799e-06,4.53685e-05,4.57602e-05,1.83634e-05,2.49812e-05
1016,-5.7398e-06,3.74221e-06,4.73551e-05,5.06519e-05,1.10868e-05,1.9357e-05
1017,-5.0324e-06,2.81678e-06,5.23906e-05,5.21875e-05,3.25121e-06,1.74403e-05
1018,-1.85726e-06,2.31845e-06,5.40562e-05,4.97333e-05,-2.56111e-06,1.55104e-05
1019,-8.97053e-07,3.39024e-06,5.29906e-05,4.78162e-05,-5.16325e-06,1.32479e-05
1020,-1.31607e-06,5.13729e-06,5.43943e-05,5.0511e-05,-5.34804e-06,1.28092e-05
1021,-1.66487e-06,5.19571e-06,5.6865e-05,5.37727e-05,-3.49778e-06,1.32178e-05
1022,-1.96123e-06,3.24176e-06,5.67706e-05,5.3588e-05,2.32742e-06,1.32651e-05
1023,-2.74606e-06,2.01972e-06,5.31321e-05,5.25138e-05,1.10668e-05,1.13988e-05
1024,-4.20486e-06,1.86312e-06,4.97859e-05,5.53868e-05,1.84353e-05,7.64573e-06
1025,-3.80449e-06,2.08321e-06,4.95716e-05,6.0142e-05,2.30875e-05,5.03276e-06
1026,-4.91625e-07,3.43649e-06,4.98362e-05,6.27559e-05,2.69625e-05,4.17817e-06
1027,7.6933e-07,5.84838e-06,4.79645e-05,6.20364e-05,3.14788e-05,2.96241e-06
1028,-2.14456e-06,8.85902e-06,4.54668e-05,5.75231e-05,3.5046e-05,6.372e-07
1029,-8.01614e-06,1.12882e-05,4.42048e-05,5.43706e-05,3.79637e-05,-3.37923e-06
1030,-1.43003e-05,1.24158e-05,4.43598e-05,5.89165e-05,4.21687e-05,-8.31219e-06
1031,-1.65811e-05,1.28362e-05,4.59179e-05,6.83208e-05,4.67943e-05,-1.09869e-05
1032,-1.28325e-05,1.39536e-05,4.79304e-05,7.42974e-05,5.07232e-05,-9.6162e-06
1033,-7.97028e-06,1.52184e-05,4.78621e-05,7.42447e-05,5.44655e-05,-7.46295e-06
1034,-7.05316e-06,1.50625e-05,4.49239e-05,6.97704e-05,5.55072e-05,-8.1905e-06
1035,-1.00197e-05,1.31285e-05,4.09586e-05,6.39499e-05,5.18389e-05,-9.59919e-06
1036,-1.49862e-05,1.08202e-05,3.92635e-05,6.23284e-05,4.58752e-05,-6.83866e-06
1037,-1.76133e-05,1.01764e-05,4.19185e-05,6.59347e-05,3.94598e-05,-1.80431e-06
1038,-1.44597e-05,1.09983e-05,4.62017e-05,6.85925e-05,3.44421e-05,9.70928e-08
1039,-1.01871e-05,1.37536e-05,4.71872e-05,6.75858e-05,3.3415e-05,-2.75904e-06
1040,-1.12105e-05,1.72117e-05,4.45887e-05,6.32793e-05,3.37286e-05,-7.04204e-06
1041,-1.59867e-05,1.89788e-05,4.21048e-05,5.93761e-05,3.2057e-05,-8.38523e-06
1042,-2.12462e-05,1.98388e-05,4.23072e-05,6.27124e-05,2.96743e-05,-6.59697e-06
1043,-2.31649e-05,1.91572e-05,4.57774e-05,7.30369e-05,2.96659e-05,-3.34044e-06
1044,-1.83701e-05,1.87984e-05,4.95655e-05,7.90857e-05,3.2456e-05,5.84098e-07
1045,-1.17811e-05,2.11263e-05,4.92683e-05,7.50629e-05,3.42847e-05,4.52276e-06
1046,-9.31916e-06,2.53649e-05,4.5779e-05,6.86154e-05,3.49001e-05,7.55806e-06
1047,-8.57318e-06,2.77806e-05,4.25894e-05,6.38426e-05,3.47586e-05,6.70518e-06
1048,-7.93715e-06,2.59227e-05,4.15479e-05,5.68599e-05,3.44073e-05,3.39521e-06
1049,-7.89481e-06,2.21267e-05,4.08729e-05,4.69627e-05,3.72843e-05,2.78256e-06
1050,-1.04588e-05,1.86141e-05,3.91839e-05,3.90491e-05,4.22084e-05,2.69565e-06
1051,-1.67011e-05,1.55526e-05,3.82646e-05,4.01314e-05,4.40741e-05,1.95583e-07
1052,-1.98499e-05,1.28001e-05,3.83606e-05,4.83799e-05,4.25899e-05,-2.56637e-06
1053,-1.60525e-05,1.16496e-05,3.71e-05,5.50554e-05,4.23547e-05,-2.84537e-06
1054,-1.0783e-05,1.15089e-05,3.32638e-05,5.48581e-05,4.6341e-05,-1.96266e-07
1055,-9.27229e-06,1.23662e-05,2.98279e-05,4.89857e-05,5.12331e-05,2.34208e-06
1056,-1.23493e-05,1.4022e-05,2.90559e-05,4.48734e-05,5.33335e-05,1.18379e-06
1057,-1.5315e-05,1.50242e-05,3.00076e-05,4.80451e-05,5.41236e-05,-2.26823e-06
1058,-1.18109e-05,1.46203e-05,3.04138e-05,5.52468e-05,5.5103e-05,-2.76546e-06
1059,-2.22487e-06,1.43339e-05,2.85969e-05,6.0487e-05,5.67798e-05,1.42597e-06
1060,5.9806e-06,1.46137e-05,2.55837e-05,6.17276e-05,5.84157e-05,6.77468e-06
1061,7.66109e-06,1.41563e-05,2.38985e-05,5.82327e-05,5.91147e-05,7.6044e-06
1062,3.27982e-06,1.28331e-05,2.36236e-05,5.19972e-05,5.84454e-05,2.14129e-06
1063,-3.85421e-06,1.34259e-05,2.35771e-05,5.00965e-05,5.62435e-05,-5.26175e-06
1064,-8.46937e-06,1.69418e-05,2.45571e-05,5.49037e-05,5.28833e-05,-9.42252e-06
1065,-7.29459e-06,2.0512e-05,2.68597e-05,5.92551e-05,4.90034e-05,-9.62207e-06
1066,-3.10693e-06,2.17945e-05,2.7957e-05,5.76919e-05,4.5645e-05,-8.04814e-06
1067,-1.37443e-06,2.13575e-05,2.60391e-05,5.03597e-05,4.36867e-05,-7.70697e-06
1068,-3.70596e-06,2.10465e-05,2.37742e-05,4.3158e-05,4.26842e-05,-9.90009e-06
1069,-1.06309e-05,1.98972e-05,2.34428e-05,4.33566e-05,4.22361e-05,-1.16266e-05
1070,-1.71379e-05,1.87171e-05,2.44745e-05,4.94135e-05,4.17308e-05,-1.09122e-05
1071,-1.34478e-05,1.92034e-05,2.5948e-05,5.38922e-05,3.81357e-05,-8.3773e-06
1072,-6.36753e-06,2.0542e-05,2.70548e-05,5.13691e-05,3.22923e-05,-5.06562e-06
1073,-6.20991e-06,2.18137e-05,2.95662e-05,4.65752e-05,3.0265e-05,-4.77999e-07
1074,-6.97558e-06,2.2962e-05,3.31319e-05,4.61433e-05,3.33571e-05,4.85891e-06
1075,-5.78047e-06,2.2203e-05,3.4603e-05,4.40604e-05,3.57222e-05,9.37944e-06
1076,-4.52967e-06,1.76495e-05,3.24988e-05,3.52897e-05,3.52907e-05,1.27311e-05
1077,-4.0559e-06,1.26495e-05,2.76147e-05,2.67166e-05,3.55421e-05,1.32353e-05
1078,-5.96104e-06,1.16614e-05,2.4648e-05,2.85679e-05,3.66967e-05,1.22685e-05
1079,-7.32482e-06,1.34115e-05,2.61373e-05,3.75921e-05,3.66608e-05,1.35336e-05
1080,-5.3062e-06,1.50679e-05,2.94383e-05,4.49819e-05,3.54758e-05,1.64238e-05
1081,-2.95956e-06,1.62562e-05,3.20494e-05,4.45132e-05,3.44675e-05,1.81541e-05
1082,-3.54946e-06,1.78543e-05,3.27662e-05,3.52048e-05,3.37069e-05,1.76787e-05
1083,-7.14105e-06,1.83082e-05,3.16654e-05,2.58943e-05,2.99911e-05,1.68436e-05
1084,-1.09611e-05,1.64329e-05,3.10077e-05,2.67538e-05,2.12301e-05,1.77658e-05
1085,-1.03444e-05,1.42107e-05,3.20724e-05,3.50012e-05,1.19621e-05,2.06886e-05
1086,-5.34334e-06,1.30712e-05,3.36242e-05,4.00495e-05,9.17353e-06,2.42496e-05
1087,-1.68126e-06,1.28126e-05,3.41933e-05,3.79204e-05,1.28351e-05,2.71257e-05
1088,-1.10847e-06,1.32255e-05,3.32891e-05,3.10384e-05,1.78449e-05,2.81065e-05
1089,-2.07458e-06,1.33816e-05,3.13139e-05,2.50808e-05,2.0601e-05,2.74292e-05
1090,-5.55671e-06,1.25133e-05,2.99006e-05,2.44959e-05,1.87389e-05,2.7369e-05
1091,-8.90545e-06,1.17529e-05,3.03161e-05,2.72164e-05,1.28365e-05,2.97578e-05
1092,-6.88032e-06,1.10558e-05,3.15889e-05,2.72662e-05,7.84729e-06,3.30167e-05
1093,-2.57601e-06,9.95916e-06,3.27889e-05,2.36223e-05,7.79815e-06,3.48477e-05
1094,-2.37199e-06,1.08326e-05,3.44559e-05,1.66623e-05,1.22643e-05,3.54254e-05
1095,-4.9676e-06,1.52701e-05,3.55706e-05,8.86883e-06,1.64017e-05,3.37813e-05
1096,-8.03716e-06,1.94998e-05,3.47822e-05,8.42408e-06,1.77531e-05,3.21333e-05
1097,-8.44119e-06,2.02364e-05,3.50452e-05,1.72911e-05,1.93701e-05,3.48975e-05
1098,-2.48986e-06,1.97755e-05,3.72791e-05,2.64975e-05,2.27312e-05,3.9947e-05
1099,2.55012e-06,1.98323e-05,3.84512e-05,3.03436e-05,2.63512e-05,4.28847e-05
1100,2.06169e-06,1.91019e-05,3.86037e-05,3.25158e-05,3.15925e-05,4.34568e-05
1101,2.64886e-07,1.78365e-05,3.89316e-05,3.85289e-05,3.87695e-05,4.32978e-05
1102,-3.16858e-07,1.90518e-05,3.9573e-05,4.29401e-05,4.48356e-05,4.3005e-05
1103,-2.9951e-07,2.18858e-05,3.97591e-05,3.93594e-05,4.78905e-05,3.99485e-05
1104,-1.66757e-06,2.15369e-05,3.79084e-05,3.52734e-05,4.7406e-05,3.36832e-05
1105,-3.48301e-06,1.95536e-05,3.53667e-05,4.06003e-05,4.57029e-05,2.73623e-05
1106,-3.88828e-06,1.96491e-05,3.55744e-05,4.82697e-05,4.41153e-05,2.47015e-05
1107,-2.21741e-06,2.16969e-05,3.78852e-05,4.93021e-05,4.34379e-05,2.63607e-05
1108,-5.95923e-07,2.30576e-05,3.95786e-05,4.44969e-05,4.34192e-05,2.98576e-05
1109,-5.21021e-08,2.2881e-05,3.94003e-05,3.86471e-05,4.21674e-05,3.32391e-05
1110,-8.16061e-07,2.14116e-05,3.70142e-05,3.60453e-05,3.79671e-05,3.43779e-05
1111,-2.86193e-06,1.83503e-05,3.39843e-05,3.95383e-05,3.19921e-05,3.26501e-05
1112,-3.1297e-06,1.46009e-05,3.41124e-05,4.69193e-05,2.54475e-05,2.93753e-05
1113,2.82687e-07,1.22283e-05,3.79012e-05,5.31634e-05,1.91662e-05,2.65386e-05
1114,3.94518e-06,1.1781e-05,4.18967e-05,5.65522e-05,1.47165e-05,2.38995e-05
1115,4.3481e-06,1.19236e-05,4.37637e-05,5.53251e-05,1.12803e-05,2.06646e-05
1116,1.74485e-06,1.30006e-05,4.38805e-05,5.27941e-05,7.63149e-06,1.66134e-05
1117,-1.68648e-06,1.42591e-05,4.42614e-05,5.63032e-05,5.06769e-06,1.11012e-05
1118,-2.17871e-06,1.33379e-05,4.61259e-05,6.51406e-05,5.93116e-06,4.91668e-06
1119,1.46626e-06,1.02965e-05,4.88401e-05,6.86425e-05,8.13219e-06,5.57885e-07
1120,4.81907e-06,8.18388e-06,4.97385e-05,6.343e-05,8.23104e-06,-7.36272e-07
1121,2.77149e-06,7.77741e-06,4.77179e-05,5.17267e-05,5.60724e-06,1.50683e-07
1122,-3.29891e-06,6.42177e-06,4.41536e-05,3.97874e-05,2.92211e-06,1.32162e-06
1123,-9.02401e-06,1.88848e-06,4.15433e-05,3.66443e-05,2.74801e-06,1.77073e-06
1124,-1.11224e-05,-4.35844e-06,4.05696e-05,4.13039e-05,5.01321e-06,3.05508e-06
1125,-7.90891e-06,-7.49177e-06,4.04486e-05,4.4217e-05,9.19319e-06,6.84293e-06
1126,-3.65004e-06,-7.32237e-06,3.9578e-05,4.10802e-05,1.2396e-05,1.27084e-05
1127,-2.25348e-06,-7.42109e-06,3.92523e-05,3.84156e-05,1.13219e-05,1.84906e-05
1128,-1.9359e-07,-8.35465e-06,4.04804e-05,4.1648e-05,8.15706e-06,2.16879e-05
1129,2.50109e-06,-8.24378e-06,4.02366e-05,4.44058e-05,6.50278e-06,2.11583e-05
1130,2.9589e-06,-6.38649e-06,3.83516e-05,3.95072e-05,7.00477e-06,1.94868e-05
1131,-9.99358e-07,-5.5082e-06,3.51997e-05,3.19639e-05,8.191e-06,1.87464e-05
1132,-6.55867e-06,-4.83328e-06,3.26808e-05,3.0117e-05,9.22864e-06,1.72523e-05
1133,-6.62456e-06,-3.23163e-06,3.33896e-05,3.07919e-05,8.62022e-06,1.43195e-05
1134,-2.60907e-06,-3.58547e-06,3.78683e-05,2.98162e-05,8.34326e-06,1.13343e-05
1135,-1.27417e-06,-6.48253e-06,4.21862e-05,2.59534e-05,1.26472e-05,1.08813e-05
1136,-4.06895e-06,-8.28833e-06,4.27659e-05,1.80104e-05,1.93281e-05,1.38959e-05
1137,-6.58567e-06,-7.89292e-06,4.03575e-05,9.44139e-06,2.22913e-05,1.73373e-05
1138,-6.73709e-06,-8.12753e-06,3.71689e-05,8.05364e-06,1.96171e-05,1.71703e-05
1139,-5.70898e-06,-9.86829e-06,3.58505e-05,1.37992e-05,1.58265e-05,1.343e-05
1140,-4.51404e-06,-1.23151e-05,3.82023e-05,1.9046e-05,1.64011e-05,1.09628e-05
1141,-3.56933e-06,-1.48316e-05,4.25234e-05,2.02636e-05,2.19528e-05,1.20138e-05
1142,-4.19537e-06,-1.64865e-05,4.41426e-05,1.75117e-05,2.93341e-05,1.38498e-05
1143,-7.36904e-06,-1.65081e-05,4.17897e-05,1.43058e-05,3.6257e-05,1.33501e-05
1144,-1.24218e-05,-1.55883e-05,3.80929e-05,1.75133e-05,4.1971e-05,1.122e-05
1145,-1.57485e-05,-1.32439e-05,3.62189e-05,2.7618e-05,4.73746e-05,7.8761e-06
1146,-1.3782e-05,-8.41717e-06,3.57941e-05,3.72047e-05,5.33187e-05,3.47098e-06
1147,-9.07607e-06,-2.76537e-06,3.53658e-05,4.30673e-05,5.80476e-05,2.91098e-07
1148,-7.41098e-06,1.8758e-06,3.56441e-05,4.49431e-05,5.99144e-05,-2.68845e-06
1149,-1.05775e-05,4.8271e-06,3.66424e-05,4.45356e-05,6.05479e-05,-6.28707e-06
1150,-1.57445e-05,5.27605e-06,3.58604e-05,4.64585e-05,6.11227e-05,-8.18336e-06
1151,-1.76152e-05,4.62794e-06,3.50598e-05,5.4064e-05,6.06535e-05,-8.77247e-06
1152,-1.31715e-05,5.2821e-06,3.75044e-05,6.35266e-05,6.07909e-05,-9.4576e-06
1153,-9.42259e-06,8.74418e-06,3.89895e-05,6.90101e-05,6.22055e-05,-8.66907e-06
1154,-9.83301e-06,1.27884e-05,3.78636e-05,7.11098e-05,6.18838e-05,-6.68497e-06
1155,-8.5377e-06,1.44967e-05,3.58606e-05,7.21804e-05,5.96559e-05,-4.94509e-06
1156,-5.11239e-06,1.58562e-05,3.35187e-05,7.13393e-05,5.84898e-05,-4.07989e-06
1157,-4.42732e-06,1.88098e-05,3.32996e-05,6.86628e-05,6.09963e-05,-3.60017e-06
1158,-9.13239e-06,2.31561e-05,3.4657e-05,6.69736e-05,6.28637e-05,-2.63869e-06
1159,-1.54239e-05,2.85149e-05,3.68455e-05,7.13699e-05,6.01931e-05,-1.98318e-06
1160,-1.61293e-05,3.27124e-05,3.93627e-05,8.00901e-05,5.64331e-05,8.83572e-07
1161,-1.06738e-05,3.4195e-05,4.02282e-05,8.69213e-05,5.51568e-05,6.21419e-06
1162,-5.41517e-06,3.4409e-05,3.93126e-05,8.79071e-05,5.57875e-05,9.41422e-06
1163,-4.53204e-06,3.53934e-05,3.89312e-05,8.38116e-05,5.52997e-05,9.84431e-06
1164,-8.03069e-06,3.6812e-05,3.93706e-05,7.93871e-05,5.42032e-05,1.10581e-05
1165,-1.3042e-05,3.62064e-05,4.03855e-05,7.95518e-05,5.33339e-05,1.41485e-05
1166,-1.52359e-05,3.42412e-05,4.23606e-05,8.33278e-05,5.03011e-05,1.64092e-05
1167,-1.21967e-05,3.41973e-05,4.47903e-05,8.65129e-05,4.63084e-05,1.68689e-05
1168,-6.93108e-06,3.64982e-05,4.70646e-05,8.76971e-05,4.51657e-05,1.71501e-05
1169,-4.96583e-06,3.74826e-05,4.85911e-05,8.54292e-05,4.61512e-05,1.81753e-05
1170,-8.84152e-06,3.44953e-05,4.84039e-05,8.03317e-05,4.63028e-05,1.90164e-05
1171,-1.61056e-05,3.0164e-05,4.6686e-05,7.95078e-05,4.4141e-05,1.92101e-05
1172,-1.9221e-05,2.86049e-05,4.57176e-05,8.67689e-05,3.90056e-05,1.88266e-05
1173,-1.32053e-05,2.86798e-05,4.50912e-05,9.29269e-05,3.28427e-05,1.88375e-05
1174,-5.78544e-06,2.7203e-05,4.34346e-05,9.11131e-05,2.91729e-05,1.99663e-05
1175,-7.05561e-06,2.48819e-05,4.18383e-05,8.3899e-05,2.73759e-05,2.2102e-05
1176,-1.43579e-05,2.3511e-05,4.22427e-05,7.88425e-05,2.44605e-05,2.46959e-05
1177,-1.99275e-05,2.46817e-05,4.3637e-05,8.22155e-05,1.87468e-05,2.55106e-05
1178,-1.83116e-05,2.67061e-05,4.4145e-05,8.99554e-05,9.69537e-06,2.57301e-05
1179,-9.93581e-06,2.5325e-05,4.26596e-05,9.3376e-05,8.44552e-08,2.8072e-05
1180,-3.62857e-06,2.12936e-05,4.03526e-05,9.20682e-05,-3.95388e-06,3.18873e-05
1181,-4.14914e-06,1.74503e-05,3.96273e-05,9.21449e-05,-3.2811e-06,3.56032e-05
1182,-6.45027e-06,1.63445e-05,4.11053e-05,9.58098e-05,-2.42222e-06,3.78313e-05
1183,-7.3122e-06,1.74079e-05,4.15807e-05,9.515e-05,-1.85946e-06,3.85506e-05
1184,-7.53179e-06,1.81794e-05,3.86051e-05,8.71908e-05,-1.71672e-06,3.71038e-05
1185,-8.7009e-06,1.71695e-05,3.38123e-05,7.96441e-05,-1.09467e-06,3.54616e-05
1186,-1.00144e-05,1.4718e-05,3.13998e-05,7.85841e-05,1.72383e-06,3.61052e-05
1187,-8.54114e-06,1.36261e-05,3.41948e-05,8.05263e-05,6.43697e-06,3.65144e-05
1188,-4.80027e-06,1.50175e-05,3.82472e-05,8.08404e-05,1.05499e-05,3.53502e-05
1189,-1.19552e-06,1.73157e-05,3.77786e-05,7.82658e-05,1.42991e-05,3.26744e-05
1190,7.68101e-07,1.74165e-05,3.46809e-05,7.20899e-05,1.79426e-05,2.91236e-05
1191,4.48789e-07,1.55322e-05,3.33444e-05,6.59613e-05,1.91938e-05,2.67615e-05
1192,-1.00975e-06,1.38634e-05,3.29577e-05,6.75391e-05,1.69692e-05,2.70408e-05
1193,-1.19022e-06,1.37831e-05,3.26869e-05,7.52449e-05,1.39581e-05,2.90296e-05
1194,1.23483e-06,1.431e-05,3.37553e-05,8.02333e-05,1.46276e-05,2.9944e-05
1195,4.83183e-06,1.35886e-05,3.50732e-05,7.93131e-05,1.97845e-05,2.85771e-05
1196,6.71545e-06,1.15838e-05,3.3764e-05,7.41507e-05,2.54604e-05,2.71174e-05
1197,3.59873e-06,1.00843e-05,3.00719e-05,6.84069e-05,2.82271e-05,2.76399e-05
1198,-3.85624e-06,9.41751e-06,2.79453e-05,6.58551e-05,2.77319e-05,2.85583e-05
1199,-9.38227e-06,8.10106e-06,2.9519e-05,6.59649e-05,2.5045e-05,2.762e-05
1200,-9.90174e-06,6.58019e-06,3.17328e-05,6.45768e-05,2.19944e-05,2.5522e-05
1201,-8.0364e-06,5.82585e-06,3.19325e-05,5.99314e-05,1.9527e-05,2.48693e-05
1202,-6.6558e-06,4.61215e-06,3.05362e-05,5.23163e-05,1.72357e-05,2.59347e-05
1203,-7.35081e-06,2.65613e-06,2.95064e-05,4.5523e-05,1.46681e-05,2.63646e-05
1204,-1.0557e-05,1.19656e-06,2.98791e-05,4.53791e-05,1.10951e-05,2.47937e-05
1205,-1.2091e-05,4.46149e-07,3.12099e-05,5.00829e-05,6.7696e-06,2.22218e-05
1206,-7.6494e-06,1.63717e-06,3.37467e-05,5.12871e-05,4.64302e-06,2.2596e-05
1207,-2.2822e-06,3.61492e-06,3.69073e-05,4.81912e-05,5.25258e-06,2.35687e-05
1208,-9.25956e-07,4.00041e-06,3.77281e-05,4.83542e-05,6.21974e-06,2.34255e-05
1209,-2.61249e-06,3.69683e-06,3.7259e-05,5.29954e-05,5.3715e-06,2.58551e-05
1210,-6.15695e-06,6.5185e-06,3.69793e-05,5.16911e-05,2.55731e-06,2.95593e-05
1211,-8.15012e-06,1.15423e-05,3.59999e-05,4.08955e-05,5.42198e-07,3.27433e-05
1212,-7.66899e-06,1.44912e-05,3.42207e-05,3.00846e-05,2.65205e-06,3.44768e-05
1213,-7.94684e-06,1.63135e-05,3.19586e-05,2.81764e-05,7.14979e-06,3.38119e-05
1214,-9.7868e-06,1.87106e-05,3.18118e-05,3.06488e-05,1.04192e-05,3.04066e-05
1215,-1.06118e-05,2.05708e-05,3.32815e-05,3.22705e-05,1.10983e-05,2.52042e-05
1216,-9.34839e-06,2.08634e-05,3.32833e-05,3.04937e-05,9.07809e-06,1.97142e-05
1217,-6.90992e-06,2.10186e-05,3.11694e-05,2.34006e-05,5.96161e-06,1.52276e-05
1218,-6.40239e-06,2.18985e-05,2.84943e-05,1.6253e-05,5.1094e-06,1.10928e-05
1219,-8.52643e-06,2.27295e-05,2.74745e-05,1.7023e-05,5.38313e-06,7.93942e-06
1220,-9.72585e-06,2.36282e-05,2.91747e-05,2.43417e-05,2.60428e-06,6.56964e-06
1221,-7.52141e-06,2.57016e-05,3.21618e-05,2.97377e-05,-1.64335e-06,6.8766e-06
1222,-3.98547e-06,2.85456e-05,3.40972e-05,2.90647e-05,-3.93316e-06,7.75279e-06
1223,-2.88388e-06,2.96683e-05,3.48546e-05,2.45934e-05,-4.21572e-06,8.10972e-06
1224,-4.86444e-06,2.83009e-05,3.52987e-05,2.31919e-05,-4.97131e-06,7.64516e-06
1225,-7.8401e-06,2.69252e-05,3.54771e-05,2.99225e-05,-6.17561e-06,5.06356e-06
1226,-8.80954e-06,2.74382e-05,3.71034e-05,4.0543e-05,-5.92244e-06,2.15216e-06
1227,-6.33036e-06,2.83705e-05,3.98667e-05,4.6538e-05,-3.29911e-06,3.52368e-06
1228,-2.94499e-06,2.87151e-05,4.04622e-05,4.7702e-05,1.07294e-07,9.54124e-06
1229,-3.39679e-06,2.8394e-05,3.85308e-05,4.63052e-05,3.91285e-06,1.48359e-05
1230,-7.01308e-06,2.62474e-05,3.50539e-05,4.28659e-05,8.76483e-06,1.53427e-05
1231,-1.06597e-05,2.31126e-05,3.38499e-05,4.09114e-05,1.20412e-05,1.22531e-05
1232,-9.73452e-06,2.17955e-05,3.52846e-05,4.16009e-05,1.07537e-05,1.03337e-05
1233,-1.72201e-06,2.18409e-05,3.44367e-05,4.06278e-05,6.59221e-06,1.11689e-05
1234,5.47289e-06,2.07466e-05,3.21233e-05,3.85592e-05,4.66259e-06,1.33708e-05
1235,7.11595e-06,1.81097e-05,3.20954e-05,3.79083e-05,6.9339e-06,1.50881e-05
1236,7.72961e-06,1.48847e-05,3.33726e-05,4.04347e-05,1.25713e-05,1.60789e-05
1237,1.05218e-05,1.30654e-05,3.36896e-05,4.16683e-05,1.8995e-05,1.65725e-05
1238,1.39119e-05,1.30942e-05,3.32972e-05,3.58024e-05,2.57206e-05,1.63219e-05
1239,1.2532e-05,1.33703e-05,3.29378e-05,2.79898e-05,3.11504e-05,1.38467e-05
1240,7.43034e-06,1.27541e-05,3.41285e-05,2.90742e-05,3.34798e-05,1.14732e-05
1241,4.28071e-06,1.16557e-05,3.65136e-05,3.54627e-05,3.69233e-05,1.2406e-05
1242,3.44979e-06,1.08071e-05,3.68764e-05,3.86048e-05,4.18801e-05,1.44963e-05
1243,1.15437e-06,1.0199e-05,3.45042e-05,3.63324e-05,4.62706e-05,1.60623e-05
1244,-2.89738e-06,1.02982e-05,3.28522e-05,3.13237e-05,4.92099e-05,1.69039e-05
1245,-6.77084e-06,9.90968e-06,3.25999e-05,3.06876e-05,5.00454e-05,1.64149e-05
1246,-8.83783e-06,7.50963e-06,3.19505e-05,3.93544e-05,4.82805e-05,1.51126e-05
1247,-6.50242e-06,3.69189e-06,3.20664e-05,5.25596e-05,4.49908e-05,1.50382e-05
1248,-1.70105e-06,6.55532e-07,3.4276e-05,6.00547e-05,4.27453e-05,1.5993e-05
1249,1.33962e-06,5.30842e-07,3.80156e-05,6.10364e-05,4.19574e-05,1.52684e-05
1250,1.19423e-06,4.29709e-06,4.11534e-05,6.02101e-05,4.17912e-05,1.15133e-05
1251,-8.49033e-07,9.82748e-06,4.08326e-05,5.96666e-05,4.18572e-05,7.34928e-06
1252,-3.57761e-06,1.25599e-05,3.78935e-05,6.11083e-05,4.23017e-05,5.34083e-06
1253,-4.39266e-06,1.11238e-05,3.71913e-05,6.68515e-05,4.35228e-05,5.95801e-06
1254,-1.99165e-06,8.99724e-06,4.1087e-05,7.33577e-05,4.51141e-05,8.90453e-06
1255,6.08404e-07,9.4913e-06,4.66574e-05,7.67226e-05,4.64345e-05,1.26736e-05
1256,5.45756e-07,1.22101e-05,4.9324e-05,7.59343e-05,4.77339e-05,1.56262e-05
1257,-1.08569e-06,1.5612e-05,4.80046e-05,7.37224e-05,5.14981e-05,1.75276e-05
1258,-5.23645e-06,1.72709e-05,4.57495e-05,7.67298e-05,5.82466e-05,1.82583e-05
1259,-8.60011e-06,1.8645e-05,4.75591e-05,8.46387e-05,6.29001e-05,1.72924e-05
1260,-5.32838e-06,2.31812e-05,5.12652e-05,8.81521e-05,6.41413e-05,1.51278e-05
1261,-2.79581e-06,2.71654e-05,5.1107e-05,8.59909e-05,6.41018e-05,1.21385e-05
1262,-4.09631e-06,2.72988e-05,4.96869e-05,8.54288e-05,6.2776e-05,9.38511e-06
1263,-7.88205e-06,2.46037e-05,4.93809e-05,9.13647e-05,5.99927e-05,9.11507e-06
1264,-1.24772e-05,2.24652e-05,4.80918e-05,9.7992e-05,5.79222e-05,9.37968e-06
1265,-1.44725e-05,2.22224e-05,4.56041e-05,9.67231e-05,5.59513e-05,7.2914e-06
1266,-1.48189e-05,2.08405e-05,4.27557e-05,9.26991e-05,5.47017e-05,4.03785e-06
1267,-1.44506e-05,1.85988e-05,4.14452e-05,9.8346e-05,5.39119e-05,2.1538e-06
1268,-1.21581e-05,1.63013e-05,4.3911e-05,0.000107858,5.13291e-05,2.7502e-06
1269,-7.12534e-06,1.36634e-05,4.76472e-05,0.000110148,4.76129e-05,5.26062e-06
1270,-4.72818e-06,1.06843e-05,4.95261e-05,0.000104145,4.39696e-05,8.06001e-06
1271,-7.01209e-06,8.14218e-06,4.91932e-05,9.32572e-05,4.22888e-05,1.01353e-05
1272,-1.13767e-05,7.05428e-06,4.74791e-05,8.4555e-05,4.22653e-05,1.1489e-05
1273,-1.37744e-05,6.98031e-06,4.55475e-05,8.46875e-05,4.12599e-05,1.26056e-05
1274,-1.12182e-05,6.79173e-06,4.45142e-05,9.08176e-05,3.73082e-05,1.38425e-05
1275,-5.67733e-06,5.04507e-06,4.40742e-05,9.29737e-05,3.29257e-05,1.52895e-05
1276,-3.18478e-06,9.63913e-07,4.30962e-05,8.62722e-05,3.09267e-05,1.73845e-05
1277,-5.76487e-06,-4.05527e-06,4.20194e-05,7.33295e-05,3.04696e-05,2.00134e-05
1278,-1.00755e-05,-8.29247e-06,4.20019e-05,6.22131e-05,2.86314e-05,2.17094e-05
1279,-1.2367e-05,-1.15139e-05,4.27542e-05,5.90135e-05,2.39315e-05,2.11118e-05
1280,-9.75115e-06,-1.22303e-05,4.44526e-05,6.15446e-05,1.70147e-05,1.94829e-05
1281,-3.54412e-06,-8.55191e-06,4.64012e-05,6.20395e-05,9.6484e-06,2.00291e-05
1282,4.30024e-07,-3.72237e-06,4.58594e-05,5.66281e-05,3.77483e-06,2.38615e-05
1283,-1.45348e-06,-2.27443e-06,4.30297e-05,4.48698e-05,8.08117e-07,2.72376e-05
1284,-6.97825e-06,-2.61185e-06,3.98093e-05,3.28259e-05,-6.90319e-07,2.63358e-05
1285,-1.37885e-05,-1.23059e-06,3.8127e-05,2.97961e-05,-3.14911e-06,2.19901e-05
1286,-1.70518e-05,2.44364e-06,3.7162e-05,3.47461e-05,-5.96278e-06,1.89629e-05
1287,-1.30543e-05,7.15851e-06,3.65565e-05,3.6173e-05,-5.79715e-06,2.15903e-05
1288,-8.8881e-06,1.01811e-05,3.82011e-05,3.2202e-05,-3.91602e-06,2.69293e-05
1289,-7.48794e-06,1.2209e-05,4.04555e-05,2.98913e-05,-6.45547e-06,2.98169e-05
1290,-4.22072e-06,1.71621e-05,4.18841e-05,3.30218e-05,-1.36843e-05,3.18185e-05
1291,-1.76156e-06,2.2719e-05,4.25971e-05,3.61699e-05,-1.90591e-05,3.40791e-05
1292,-3.28194e-06,2.47943e-05,4.2315e-05,3.26668e-05,-1.85245e-05,3.25946e-05
1293,-8.42601e-06,2.41281e-05,4.21636e-05,2.80229e-05,-1.64577e-05,2.52256e-05
1294,-1.12934e-05,2.46851e-05,4.1591e-05,3.29723e-05,-1.61248e-05,1.70067e-05
1295,-8.75296e-06,2.60403e-05,4.00151e-05,4.39399e-05,-1.45739e-05,1.27007e-05
1296,-4.75482e-06,2.60927e-05,3.78869e-05,5.14088e-05,-7.92838e-06,1.18985e-05
1297,-3.0844e-06,2.60137e-05,3.53638e-05,5.15984e-05,2.11375e-06,1.18318e-05
1298,-2.87e-06,2.75412e-05,3.40947e-05,4.35434e-05,9.25328e-06,9.65104e-06
1299,-4.14732e-06,3.02998e-05,3.50519e-05,3.26172e-05,1.15161e-05,5.1971e-06
1300,-7.08254e-06,3.19116e-05,3.71465e-05,2.83204e-05,1.25055e-05,7.5028e-07
1301,-7.29245e-06,3.16947e-05,3.96652e-05,3.17561e-05,1.45826e-05,-1.52384e-06
1302,-3.18383e-06,3.06728e-05,4.18049e-05,3.41391e-05,1.74923e-05,-1.77745e-06
1303,1.09213e-06,3.01987e-05,4.14175e-05,3.0075e-05,2.21838e-05,-2.80412e-07
1304,1.52299e-06,3.0091e-05,3.78508e-05,2.11463e-05,3.03643e-05,3.0988e-06
1305,-1.75567e-06,2.93519e-05,3.25757e-05,1.28709e-05,4.08648e-05,6.47288e-06
1306,-6.99404e-06,2.82904e-05,2.83536e-05,1.0965e-05,4.95064e-05,7.06578e-06
1307,-1.02442e-05,2.80532e-05,2.88231e-05,1.53698e-05,5.34361e-05,5.5758e-06
1308,-8.96231e-06,2.74862e-05,3.45388e-05,1.97099e-05,5.39929e-05,5.14881e-06
1309,-5.4067e-06,2.47006e-05,3.99704e-05,2.09302e-05,5.50605e-05,6.16167e-06
1310,-4.905e-06,2.003e-05,3.92075e-05,1.91913e-05,5.67781e-05,5.73681e-06
1311,-8.50394e-06,1.55773e-05,3.36891e-05,1.71289e-05,5.69428e-05,4.69829e-06
1312,-1.5242e-05,1.23051e-05,2.98169e-05,1.92377e-05,5.63265e-05,5.75385e-06
1313,-1.95132e-05,9.25803e-06,3.22201e-05,2.55632e-05,5.60542e-05,8.72842e-06
1314,-1.53501e-05,6.20132e-06,3.76034e-05,2.93092e-05,5.66132e-05,1.08416e-05
1315,-8.4621e-06,2.91501e-06,3.73356e-05,2.77655e-05,5.98954e-05,1.03362e-05
1316,-5.77553e-06,-1.58579e-08,3.31918e-05,2.5157e-05,6.54918e-05,1.1275e-05
1317,-5.56636e-06,3.68899e-07,3.10269e-05,2.60398e-05,6.94656e-05,1.59599e-05
1318,-4.12406e-06,3.91559e-06,2.99444e-05,2.60207e-05,7.0573e-05,2.17045e-05
1319,-2.23522e-06,6.88817e-06,2.91341e-05,1.95726e-05,7.12497e-05,2.4681e-05
1320,-3.85984e-06,5.49616e-06,2.87564e-05,1.26283e-05,7.15064e-05,2.5553e-05
1321,-9.40571e-06,8.22973e-07,2.89664e-05,1.37629e-05,6.88982e-05,2.58513e-05
1322,-1.24409e-05,-1.50741e-06,3.13641e-05,1.84954e-05,6.53075e-05,2.59377e-05
1323,-8.49094e-06,1.36515e-06,3.45781e-05,1.91405e-05,6.33297e-05,2.76423e-05
1324,-1.19447e-06,5.50606e-06,3.58846e-05,1.54841e-05,6.25901e-05,2.90468e-05
1325,3.14102e-06,7.38919e-06,3.51226e-05,8.79717e-06,6.09196e-05,2.67662e-05
1326,3.19762e-06,6.92611e-06,3.36858e-05,4.28858e-06,5.7348e-05,2.14148e-05
1327,1.6884e-06,5.24758e-06,3.30585e-05,9.28518e-06,5.27728e-05,1.70098e-05
1328,1.39932e-06,4.51604e-06,3.25173e-05,2.22144e-05,4.71809e-05,1.51122e-05
1329,3.56645e-06,4.8726e-06,3.25339e-05,3.15663e-05,4.18859e-05,1.46111e-05
1330,5.63968e-06,5.23408e-06,3.38544e-05,2.99291e-05,3.96186e-05,1.3225e-05
1331,3.37024e-06,5.91619e-06,3.53384e-05,2.06677e-05,3.97473e-05,1.03535e-05
1332,-4.15951e-06,8.43612e-06,3.4954e-05,1.4686e-05,3.89452e-05,8.9534e-06
1333,-1.19572e-05,1.06493e-05,3.27991e-05,2.02144e-05,3.61066e-05,1.02956e-05
1334,-1.30557e-05,9.95441e-06,3.20374e-05,3.31706e-05,3.16847e-05,1.16571e-05
1335,-7.74688e-06,7.4867e-06,3.31416e-05,4.35371e-05,2.7392e-05,1.23038e-05
1336,-3.21033e-06,5.57747e-06,3.30211e-05,4.73064e-05,2.62569e-05,1.27939e-05
1337,-1.29686e-06,4.94449e-06,3.11244e-05,4.60553e-05,2.73118e-05,1.13809e-05
1338,3.88014e-07,5.81607e-06,2.82887e-05,4.55541e-05,2.72011e-05,9.27257e-06
1339,-1.20538e-06,7.29763e-06,2.53593e-05,5.10512e-05,2.85531e-05,8.10622e-06
1340,-4.68255e-06,9.08346e-06,2.43451e-05,5.85797e-05,3.30991e-05,7.31134e-06
1341,-2.76551e-06,1.17531e-05,2.56181e-05,6.14539e-05,3.6383e-05,7.77895e-06
1342,1.17191e-06,1.31286e-05,2.7079e-05,6.00355e-05,3.60267e-05,8.07544e-06
1343,2.6146e-06,1.10426e-05,2.73363e-05,5.98949e-05,3.64342e-05,6.67801e-06
1344,1.90728e-06,8.81027e-06,2.75254e-05,6.63096e-05,3.98511e-05,4.474e-06
1345,-3.75378e-07,8.76998e-06,2.90808e-05,7.26625e-05,4.36542e-05,2.79293e-06
1346,-3.13635e-06,8.11452e-06,3.18952e-05,7.13625e-05,4.62124e-05,3.30862e-06
1347,-8.39896e-06,6.62938e-06,3.39393e-05,6.86914e-05,4.81881e-05,4.35236e-06
1348,-1.44167e-05,5.96547e-06,3.45078e-05,7.32437e-05,4.88175e-05,3.58874e-06
1349,-1.5282e-05,6.13952e-06,3.58591e-05,8.10161e-05,4.66133e-05,1.51976e-06
1350,-1.14587e-05,6.576e-06,3.75338e-05,8.45752e-05,4.46114e-05,7.43917e-07
1351,-9.40157e-06,8.21766e-06,3.69963e-05,8.04767e-05,4.34643e-05,1.84434e-06
1352,-9.2975e-06,1.15679e-05,3.51431e-05,7.1002e-05,3.95245e-05,3.14667e-06
1353,-9.88947e-06,1.47475e-05,3.3955e-05,6.49401e-05,3.16186e-05,3.23045e-06
1354,-1.21e-05,1.61939e-05,3.47911e-05,6.83005e-05,2.27442e-05,2.22709e-06
1355,-1.39839e-05,1.66232e-05,3.77829e-05,7.68792e-05,1.49638e-05,8.52036e-07
1356,-1.26699e-05,1.69699e-05,4.04234e-05,8.23226e-05,8.49119e-06,-2.97063e-07
1357,-1.03931e-05,1.69736e-05,3.92633e-05,8.10321e-05,4.95444e-06,-3.00936e-07
1358,-1.12496e-05,1.62879e-05,3.56975e-05,7.4433e-05,3.46816e-06,1.23909e-06
1359,-1.52807e-05,1.49945e-05,3.37125e-05,6.93961e-05,-9.38683e-07,3.61886e-06
1360,-2.02821e-05,1.3656e-05,3.40323e-05,7.16449e-05,-8.13057e-06,5.40968e-06
1361,-2.21894e-05,1.28286e-05,3.55239e-05,7.81847e-05,-1.24363e-05,7.73632e-06
1362,-1.79473e-05,1.31836e-05,3.70964e-05,8.10262e-05,-1.05129e-05,1.2672e-05
1363,-1.08549e-05,1.52524e-05,3.77569e-05,8.02053e-05,-5.03755e-06,1.72188e-05
1364,-6.88227e-06,1.85602e-05,3.75073e-05,7.76537e-05,-1.53357e-06,1.68104e-05
1365,-7.798e-06,2.1454e-05,3.71144e-05,7.50399e-05,-2.45682e-06,1.4153e-05
1366,-1.3143e-05,2.19168e-05,3.58962e-05,7.78082e-05,-6.34989e-06,1.39995e-05
1367,-1.75652e-05,1.90856e-05,3.52523e-05,8.48273e-05,-1.00336e-05,1.60105e-05
1368,-1.42575e-05,1.41357e-05,3.79965e-05,8.96335e-05,-1.05416e-05,1.60647e-05
1369,-6.7296e-06,1.09839e-05,4.21129e-05,9.04843e-05,-7.21813e-06,1.20579e-05
1370,-1.42804e-06,1.09572e-05,4.42818e-05,9.12788e-05,6.57416e-07,8.58264e-06
1371,7.62118e-07,1.18663e-05,4.52609e-05,9.47587e-05,1.03996e-05,8.44276e-06
1372,1.77809e-07,1.22359e-05,4.73501e-05,9.61969e-05,1.64008e-05,1.03969e-05
1373,-1.00517e-06,1.13472e-05,4.94379e-05,8.95133e-05,1.81677e-05,1.41583e-05
1374,-2.31914e-06,9.68406e-06,4.91129e-05,7.89949e-05,1.85302e-05,1.87308e-05
1375,-4.68753e-06,9.37504e-06,4.74959e-05,7.65697e-05,2.19196e-05,2.32855e-05
1376,-5.89764e-06,1.20044e-05,4.85712e-05,8.09425e-05,2.68278e-05,2.6786e-05
1377,-4.16787e-06,1.44003e-05,5.01937e-05,8.37617e-05,3.12367e-05,2.79134e-05
1378,-1.76634e-06,1.469e-05,4.78243e-05,8.1038e-05,3.39813e-05,2.78943e-05
1379,-8.49849e-07,1.3962e-05,4.35364e-05,7.20384e-05,3.36858e-05,2.7562e-05
1380,-2.90384e-06,1.19269e-05,4.07536e-05,6.27494e-05,3.21842e-05,2.47863e-05
1381,-6.03601e-06,9.40346e-06,4.09685e-05,6.05302e-05,3.13226e-05,2.01536e-05
1382,-5.75707e-06,7.81697e-06,4.31163e-05,6.21398e-05,3.10711e-05,1.81056e-05
1383,-2.05442e-06,6.32074e-06,4.40721e-05,6.0497e-05,3.03522e-05,2.01928e-05
1384,8.44274e-07,3.73432e-06,4.17402e-05,5.51047e-05,2.97049e-05,2.23519e-05
1385,2.17599e-06,1.74719e-06,3.81497e-05,4.73192e-05,3.00759e-05,2.09196e-05
1386,2.50166e-06,1.60565e-06,3.53678e-05,3.98953e-05,3.18413e-05,1.73807e-05
1387,1.08634e-06,2.32102e-06,3.26199e-05,3.78353e-05,3.44101e-05,1.49094e-05
1388,1.29569e-06,2.51929e-06,3.03876e-05,3.98918e-05,3.73214e-05,1.42549e-05
1389,4.91025e-06,9.90962e-07,3.0297e-05,3.7772e-05,3.85164e-05,1.55837e-05
1390,7.33344e-06,2.43816e-07,3.10616e-05,3.06176e-05,3.92098e-05,1.86205e-05
1391,4.56921e-06,1.71466e-06,3.17501e-05,2.19853e-05,4.0884e-05,2.11618e-05
1392,-3.58316e-07,2.76878e-06,3.28064e-05,1.50902e-05,3.97184e-05,2.20556e-05
1393,-4.38609e-06,3.37506e-06,3.40981e-05,1.39611e-05,3.6779e-05,2.05284e-05
1394,-5.114e-06,5.28417e-06,3.5368e-05,1.77669e-05,3.59513e-05,1.68922e-05
1395,-4.92082e-07,9.14383e-06,3.62948e-05,1.96524e-05,3.46266e-05,1.56104e-05
1396,2.1048e-06,1.18236e-05,3.52024e-05,1.68223e-05,3.40548e-05,1.79161e-05
1397,-7.75555e-07,1.10444e-05,3.4889e-05,1.44309e-05,3.66298e-05,2.01137e-05
1398,-3.82258e-06,7.84848e-06,3.61114e-05,1.70799e-05,3.83486e-05,1.9649e-05
1399,-6.69638e-06,3.69641e-06,3.57052e-05,2.08267e-05,3.59394e-05,1.79113e-05
1400,-9.37836e-06,5.32331e-07,3.38768e-05,1.98155e-05,3.08415e-05,1.97331e-05
1401,-1.30129e-05,-6.74747e-07,3.0814e-05,1.67367e-05,2.67929e-05,2.30019e-05
1402,-1.79474e-05,2.29404e-07,2.91827e-05,1.80718e-05,2.61784e-05,2.19905e-05
1403,-1.94224e-05,3.36318e-06,3.05129e-05,2.26062e-05,2.67321e-05,2.00598e-05
1404,-1.5131e-05,7.16407e-06,3.39263e-05,2.58572e-05,2.65813e-05,2.06427e-05
1405,-9.82552e-06,1.04588e-05,3.5758e-05,2.46819e-05,2.74547e-05,2.03138e-05
1406,-7.17692e-06,1.2874e-05,3.5312e-05,1.81252e-05,3.00563e-05,1.74227e-05
1407,-8.34107e-06,1.44338e-05,3.43824e-05,1.09802e-05,3.1638e-05,1.56088e-05
1408,-1.17944e-05,1.66682e-05,3.48983e-05,1.03978e-05,2.71133e-05,1.78703e-05
1409,-1.31711e-05,2.0632e-05,3.71845e-05,1.38841e-05,1.69983e-05,2.2951e-05
1410,-9.96549e-06,2.50949e-05,3.89851e-05,1.56197e-05,8.37031e-06,2.75099e-05
1411,-5.18808e-06,2.83594e-05,3.95288e-05,1.48317e-05,6.63507e-06,2.9135e-05
1412,-3.26717e-06,2.99946e-05,3.96128e-05,1.16737e-05,1.01575e-05,2.96662e-05
1413,-4.80369e-06,3.08829e-05,3.93734e-05,9.65799e-06,1.52616e-05,3.12653e-05
1414,-7.90493e-06,3.11087e-05,3.87736e-05,1.4788e-05,1.97752e-05,3.31927e-05
1415,-8.58797e-06,2.98346e-05,3.877e-05,2.61837e-05,2.14437e-05,3.51076e-05
1416,-4.79533e-06,2.85923e-05,3.90514e-05,3.54559e-05,1.8991e-05,3.81417e-05
1417,-7.23549e-07,2.73931e-05,3.84927e-05,3.80729e-05,1.58223e-05,4.09312e-05
1418,-1.89828e-06,2.53802e-05,3.76733e-05,3.55776e-05,1.49797e-05,4.08719e-05
1419,-5.95235e-06,2.36547e-05,3.90782e-05,3.43098e-05,1.52339e-05,3.86551e-05
1420,-9.6308e-06,2.31656e-05,4.14007e-05,4.04033e-05,1.62423e-05,3.64843e-05
1421,-1.13052e-05,2.31612e-05,4.29062e-05,5.08736e-05,1.63901e-05,3.47605e-05
1422,-7.9555e-06,2.33457e-05,4.33024e-05,5.81748e-05,1.48123e-05,3.25985e-05
1423,-2.63464e-06,2.31574e-05,4.20868e-05,6.20558e-05,1.46303e-05,2.99642e-05
1424,-1.59572e-06,2.33202e-05,3.8764e-05,6.55912e-05,1.67829e-05,2.83697e-05
1425,-2.79895e-06,2.54475e-05,3.63633e-05,7.16045e-05,2.03355e-05,2.96864e-05
1426,-2.84642e-06,2.78304e-05,3.6904e-05,7.6644e-05,2.38729e-05,3.31095e-05
1427,-2.98912e-06,2.93546e-05,3.91398e-05,7.39069e-05,2.56568e-05,3.4462e-05
1428,-5.58432e-06,2.91368e-05,4.10313e-05,6.91863e-05,2.4707e-05,3.14195e-05
1429,-8.91312e-06,2.81818e-05,4.01991e-05,7.33778e-05,2.31312e-05,2.72232e-05
1430,-8.81763e-06,2.87058e-05,3.7359e-05,8.23438e-05,2.41088e-05,2.54096e-05
1431,-6.42699e-06,2.77855e-05,3.49645e-05,8.74623e-05,2.68664e-05,2.67857e-05
1432,-4.78571e-06,2.32852e-05,3.47423e-05,8.75561e-05,2.77366e-05,2.92346e-05
1433,-3.78807e-06,1.81016e-05,3.63484e-05,8.47811e-05,2.61313e-05,2.96684e-05
1434,-4.62793e-06,1.55841e-05,3.73585e-05,8.3098e-05,2.55987e-05,2.54574e-05
1435,-7.455e-06,1.48245e-05,3.55952e-05,8.57036e-05,2.80918e-05,1.7204e-05
1436,-8.89834e-06,1.37859e-05,3.26216e-05,9.0451e-05,3.15953e-05,7.80346e-06
1437,-6.29774e-06,1.27083e-05,3.14242e-05,9.2881e-05,3.41026e-05,4.95485e-07
1438,-1.92258e-06,1.22852e-05,3.18302e-05,9.18062e-05,3.59623e-05,-2.58419e-06
1439,-5.4624e-07,1.15826e-05,3.17788e-05,8.79252e-05,3.82681e-05,-1.60109e-06
1440,-3.90437e-06,1.06063e-05,3.07445e-05,8.54917e-05,4.28345e-05,7.84309e-07
1441,-9.80412e-06,9.86455e-06,2.89105e-05,9.03062e-05,5.05788e-05,1.98942e-07
1442,-1.29637e-05,8.63265e-06,2.69567e-05,9.95154e-05,5.87168e-05,-2.9419e-06
1443,-1.08712e-05,7.94845e-06,2.55789e-05,0.000104371,6.31378e-05,-4.17885e-06
1444,-7.52146e-06,8.27046e-06,2.5052e-05,0.000102441,6.41287e-05,-2.0862e-06
1445,-7.97557e-06,7.89777e-06,2.5691e-05,9.43082e-05,6.41898e-05,-8.79581e-08
1446,-1.23114e-05,6.07105e-06,2.74219e-05,8.46031e-05,6.46001e-05,-2.19321e-06
1447,-1.8055e-05,5.3084e-06,2.77596e-05,8.38219e-05,6.34499e-05,-7.17725e-06
1448,-1.95287e-05,6.7425e-06,2.69461e-05,9.27074e-05,5.84803e-05,-9.62419e-06
1449,-1.36683e-05,1.02808e-05,2.77941e-05,9.78004e-05,5.25748e-05,-7.5491e-06
1450,-7.52465e-06,1.38945e-05,2.76772e-05,9.37713e-05,4.91074e-05,-3.36801e-06
1451,-5.45537e-06,1.43855e-05,2.66683e-05,9.13421e-05,4.60124e-05,1.19928e-07
1452,-5.67012e-06,1.39468e-05,2.83296e-05,9.63706e-05,4.16402e-05,3.22076e-06
1453,-7.28362e-06,1.54914e-05,3.11476e-05,0.000100058,3.77606e-05,7.97987e-06
1454,-8.40283e-06,1.8423e-05,3.21251e-05,9.35486e-05,3.49219e-05,1.37494e-05
1455,-1.02551e-05,2.05146e-05,3.13675e-05,8.30746e-05,3.25844e-05,1.78227e-05
1456,-1.33044e-05,1.90643e-05,3.17458e-05,8.20654e-05,3.02054e-05,1.87657e-05
1457,-1.28153e-05,1.43572e-05,3.51184e-05,8.87528e-05,2.76256e-05,1.60791e-05
1458,-7.96435e-06,1.09496e-05,3.85918e-05,9.31394e-05,2.60303e-05,1.24269e-05
1459,-5.48143e-06,1.0831e-05,3.91065e-05,9.08017e-05,2.56753e-05,9.89033e-06
1460,-9.03943e-06,1.14168e-05,3.80473e-05,8.22341e-05,2.55807e-05,7.90483e-06
1461,-1.49873e-05,1.03777e-05,3.72767e-05,7.52374e-05,2.55972e-05,6.86433e-06
1462,-1.79742e-05,7.02307e-06,3.72759e-05,7.6584e-05,2.63626e-05,7.58725e-06
1463,-1.5528e-05,3.31724e-06,3.82401e-05,8.0879e-05,2.74215e-05,8.63226e-06
1464,-9.54338e-06,9.79638e-07,3.94111e-05,8.02811e-05,2.82828e-05,8.63631e-06
1465,-4.73921e-06,-3.27775e-07,3.91835e-05,7.47478e-05,2.85224e-05,8.52507e-06
1466,-3.82223e-06,7.48051e-08,3.74794e-05,6.67703e-05,2.69206e-05,9.09812e-06
1467,-5.82505e-06,2.79018e-06,3.53863e-05,5.90143e-05,2.36917e-05,8.63933e-06
1468,-9.20519e-06,3.96624e-06,3.3705e-05,5.6779e-05,2.02564e-05,4.28367e-06
1469,-1.15495e-05,1.02239e-06,3.37614e-05,6.04967e-05,1.78843e-05,-2.36989e-06
1470,-1.07057e-05,-2.90823e-06,3.58339e-05,6.38309e-05,1.8762e-05,-5.59466e-06
1471,-8.61125e-06,-4.99861e-06,3.81129e-05,6.3467e-05,2.22261e-05,-3.90233e-06
1472,-8.33056e-06,-4.81628e-06,3.98247e-05,5.76912e-05,2.39311e-05,-1.3796e-06
1473,-8.69501e-06,-4.05128e-06,4.01341e-05,4.98105e-05,2.45752e-05,-6.51442e-07
1474,-9.99309e-06,-4.89086e-06,3.89108e-05,5.04414e-05,2.65127e-05,-3.30312e-07
1475,-1.1523e-05,-5.73939e-06,3.80722e-05,6.05712e-05,3.0869e-05,1.78217e-06
1476,-9.19163e-06,-5.13843e-06,3.82919e-05,6.86057e-05,3.69237e-05,6.82687e-06
1477,-5.57971e-06,-2.61781e-06,3.98374e-05,6.70197e-05,3.94893e-05,1.29909e-05
1478,-4.08572e-06,2.85262e-06,4.12863e-05,6.12525e-05,3.58958e-05,1.68551e-05
1479,-2.40953e-06,9.89992e-06,4.11085e-05,6.08452e-05,3.01293e-05,1.95428e-05
1480,1.65212e-06,1.44193e-05,4.03566e-05,6.4176e-05,2.63549e-05,2.20803e-05
1481,5.45149e-06,1.57522e-05,4.11598e-05,6.25401e-05,2.52702e-05,2.41222e-05
1482,3.88032e-06,1.66959e-05,4.35787e-05,5.62688e-05,2.42193e-05,2.43248e-05
1483,-4.27061e-07,1.74274e-05,4.62594e-05,5.45261e-05,1.89968e-05,2.52613e-05
1484,-1.01826e-07,1.89314e-05,4.98031e-05,5.82738e-05,1.1059e-05,3.01515e-05
1485,4.79593e-06,2.07724e-05,5.22086e-05,6.00943e-05,5.69602e-06,3.75833e-05
1486,7.03047e-06,2.19205e-05,5.14281e-05,5.58629e-05,5.20292e-06,4.357e-05
1487,4.99454e-06,2.03391e-05,4.93044e-05,4.82261e-05,7.63796e-06,4.4236e-05
1488,1.18885e-06,1.5646e-05,4.836e-05,4.30241e-05,1.12106e-05,3.9897e-05
1489,-3.75234e-06,1.16837e-05,4.94131e-05,4.27513e-05,1.50414e-05,3.44263e-05
1490,-6.80731e-06,1.10899e-05,5.12923e-05,4.24251e-05,1.7571e-05,3.05395e-05
1491,-5.77144e-06,1.20526e-05,5.27444e-05,3.8026e-05,1.87159e-05,2.9138e-05
1492,-4.10626e-06,1.19681e-05,5.32166e-05,3.21279e-05,2.04932e-05,2.94195e-05
1493,-5.23979e-06,1.13549e-05,5.31337e-05,2.50112e-05,2.4206e-05,2.86344e-05
1494,-8.10892e-06,1.23041e-05,5.30347e-05,1.5887e-05,2.78296e-05,2.61524e-05
1495,-1.01785e-05,1.4016e-05,5.27783e-05,1.1207e-05,2.80869e-05,2.42567e-05
1496,-8.95289e-06,1.36787e-05,5.18009e-05,1.41381e-05,2.41238e-05,2.57072e-05
1497,-2.77683e-06,1.3299e-05,5.09424e-05,1.65429e-05,1.83984e-05,2.94775e-05
1498,5.82645e-06,1.54064e-05,5.09109e-05,1.24209e-05,1.34208e-05,3.23178e-05
1499,1.19151e-05,1.82339e-05,5.08673e-05,1.40822e-06,1.30603e-05,3.25402e-05
1500,1.48822e-05,1.94425e-05,4.95398e-05,-1.06635e-05,1.81332e-05,3.3248e-05
1501,1.59036e-05,1.87745e-05,4.63228e-05,-1.26844e-05,2.38092e-05,3.53995e-05
1502,1.72989e-05,1.7318e-05,4.34426e-05,-5.1611e-06,2.48964e-05,3.72269e-05
1503,2.14085e-05,1.84118e-05,4.35367e-05,1.94543e-06,2.19436e-05,3.70573e-05
1504,2.2344e-05,2.02158e-05,4.59073e-05,4.42499e-06,2.27263e-05,3.15216e-05
1505,1.89103e-05,1.97627e-05,4.69848e-05,4.98183e-06,2.70332e-05,2.28629e-05
1506,1.58275e-05,1.96629e-05,4.47252e-05,7.48546e-06,2.90666e-05,1.77389e-05
1507,1.03435e-05,2.04134e-05,4.12593e-05,9.69499e-06,2.75198e-05,1.67047e-05
1508,1.6333e-06,1.97422e-05,3.85946e-05,8.28908e-06,2.45222e-05,1.54453e-05
1509,-7.29314e-06,1.77843e-05,3.54551e-05,6.30787e-06,2.3056e-05,1.24278e-05
1510,-1.40064e-05,1.66451e-05,3.27086e-05,9.56219e-06,2.37508e-05,1.02862e-05
1511,-1.64807e-05,1.77153e-05,3.33875e-05,1.6602e-05,2.43086e-05,1.19309e-05
1512,-1.57717e-05,2.03563e-05,3.46346e-05,2.2912e-05,2.11611e-05,1.72602e-05
1513,-1.68034e-05,2.16443e-05,3.31747e-05,2.52643e-05,1.51976e-05,2.14778e-05
1514,-2.11898e-05,2.15758e-05,3.02931e-05,2.09731e-05,9.95316e-06,2.24801e-05
1515,-2.84235e-05,2.2905e-05,2.8833e-05,1.47675e-05,8.73149e-06,2.39015e-05
1516,-3.74319e-05,2.59026e-05,2.94102e-05,1.7248e-05,1.21601e-05,2.6084e-05
1517,-4.29355e-05,2.76277e-05,3.01497e-05,2.80435e-05,1.70618e-05,2.58056e-05
1518,-4.08148e-05,2.69007e-05,3.0639e-05,3.68138e-05,1.97114e-05,2.37647e-05
1519,-3.46122e-05,2.63017e-05,3.04614e-05,3.8281e-05,1.93831e-05,2.2366e-05
1520,-2.88967e-05,2.74361e-05,2.8458e-05,3.47314e-05,1.73039e-05,2.04356e-05
1521,-2.44151e-05,2.96606e-05,2.58667e-05,3.22315e-05,1.51189e-05,1.60425e-05
1522,-2.21104e-05,3.10286e-05,2.64982e-05,3.73082e-05,1.42515e-05,9.91273e-06
1523,-2.10309e-05,2.96887e-05,3.104e-05,4.85074e-05,1.39057e-05,3.79363e-06
1524,-1.95147e-05,2.6468e-05,3.51446e-05,5.70704e-05,1.23226e-05,-2.70214e-06
1525,-1.79699e-05,2.43816e-05,3.45242e-05,6.06889e-05,1.10218e-05,-9.00963e-06
1526,-1.54889e-05,2.42859e-05,3.07571e-05,6.01308e-05,1.20804e-05,-1.28564e-05
1527,-1.19117e-05,2.31832e-05,2.78911e-05,5.552e-05,1.13781e-05,-1.44136e-05
1528,-1.22235e-05,2.00304e-05,2.66165e-05,5.22325e-05,7.90795e-06,-1.69666e-05
1529,-1.61852e-05,1.78531e-05,2.65568e-05,5.50275e-05,5.5948e-06,-2.06373e-05
1530,-1.58263e-05,1.74654e-05,2.66983e-05,5.94361e-05,6.1017e-06,-2.28956e-05
1531,-1.12183e-05,1.76218e-05,2.49395e-05,6.06141e-05,8.48536e-06,-2.40288e-05
1532,-6.81819e-06,1.77994e-05,2.43366e-05,6.12215e-05,1.0038e-05,-2.38375e-05
1533,-2.83127e-06,1.81009e-05,2.67852e-05,6.41999e-05,9.58602e-06,-2.15745e-05
1534,-7.25666e-07,1.89087e-05,2.89846e-05,6.50346e-05,7.71427e-06,-1.96381e-05
1535,-6.27913e-07,1.92589e-05,3.0393e-05,6.12904e-05,4.75891e-06,-1.93348e-05
1536,-3.21985e-06,1.80401e-05,3.0975e-05,5.87303e-05,2.77955e-06,-2.04176e-05
1537,-7.61141e-06,1.57547e-05,3.06436e-05,6.47376e-05,4.94428e-06,-2.28159e-05
1538,-8.12268e-06,1.42375e-05,3.16787e-05,7.63753e-05,7.5231e-06,-2.53897e-05
1539,-2.00153e-06,1.38078e-05,3.5248e-05,8.48489e-05,6.45851e-06,-2.59399e-05
1540,4.19473e-06,1.44401e-05,3.85523e-05,8.63685e-05,5.36684e-06,-2.31806e-05
1541,5.25864e-06,1.71626e-05,3.94622e-05,8.36681e-05,8.12453e-06,-1.95402e-05
1542,2.19399e-06,2.11891e-05,3.90226e-05,8.43328e-05,1.27065e-05,-1.6144e-05
1543,-9.54916e-07,2.42245e-05,3.9506e-05,9.30261e-05,1.41248e-05,-1.18452e-05
1544,1.68474e-07,2.53028e-05,4.19372e-05,0.00010366,1.29633e-05,-6.98531e-06
1545,5.10067e-06,2.47588e-05,4.41498e-05,0.000108842,1.46006e-05,-2.22704e-06
1546,9.27886e-06,2.36066e-05,4.34431e-05,0.000108986,2.10307e-05,1.94776e-06
1547,1.01223e-05,2.26287e-05,4.06098e-05,0.000105253,2.92975e-05,4.22913e-06
1548,8.38922e-06,2.20041e-05,3.85567e-05,9.93578e-05,3.59301e-05,3.95264e-06
1549,4.39776e-06,2.14505e-05,3.87467e-05,9.66508e-05,3.95416e-05,2.67407e-06
1550,2.28808e-06,1.97109e-05,4.1343e-05,9.83172e-05,4.10757e-05,2.55239e-06
1551,6.52819e-06,1.69688e-05,4.45757e-05,9.82393e-05,4.21312e-05,4.19828e-06
1552,1.3377e-05,1.57682e-05,4.50499e-05,9.30414e-05,4.4395e-05,5.99165e-06
1553,1.60953e-05,1.68217e-05,4.13785e-05,8.24476e-05,4.71406e-05,5.22939e-06
1554,1.25821e-05,1.66982e-05,3.54958e-05,7.03192e-05,4.89474e-05,1.57905e-06
1555,5.51897e-06,1.33553e-05,3.18708e-05,6.56066e-05,5.04817e-05,-2.35459e-06
1556,1.9219e-06,1.00143e-05,3.41598e-05,6.8775e-05,5.04274e-05,-5.83466e-06
1557,3.67588e-06,9.06752e-06,3.84774e-05,6.97672e-05,5.01708e-05,-8.50363e-06
1558,5.6039e-06,9.0609e-06,3.87377e-05,6.41027e-05,5.28243e-05,-9.92632e-06
