Time_Index,DELTOID_Affected,DELTOID_NonAffected,BICEPS_Affected,BICEPS_NonAffected,FOREARM_Affected,FOREARM_NonAffected
1,4.6918e-06,-5.41151e-06,5.31728e-05,0.000286833,2.22609e-05,3.92132e-05
2,7.43601e-06,-1.89646e-05,5.26359e-05,0.000282871,2.22635e-05,3.18339e-05
3,1.08348e-05,-2.99507e-05,4.93058e-05,0.00028546,1.84598e-05,2.8813e-05
4,9.57172e-06,-1.70367e-05,5.05608e-05,0.000295737,1.27486e-05,3.4037e-05
5,6.00204e-06,1.53948e-06,5.44041e-05,0.000304777,8.05892e-06,3.86327e-05
6,3.28834e-06,5.04653e-06,5.66723e-05,0.00030723,7.0076e-06,3.85356e-05
7,3.39263e-06,3.51345e-06,5.72254e-05,0.000307933,8.85204e-06,3.85404e-05
8,6.25227e-06,3.1786e-06,5.51224e-05,0.000306674,9.57528e-06,3.87413e-05
9,9.07357e-06,2.58069e-06,5.17406e-05,0.000307104,7.19148e-06,3.67339e-05
10,7.05697e-06,-6.53598e-06,5.199e-05,0.000308939,5.54098e-06,3.14224e-05
11,1.00837e-06,-2.19744e-05,5.62485e-05,0.000307358,7.85396e-06,2.79632e-05
12,-3.27318e-06,-2.7724e-05,5.93618e-05,0.000305018,1.26153e-05,3.21593e-05
13,-2.85872e-06,-1.60346e-05,5.87865e-05,0.000305938,1.66032e-05,4.10198e-05
14,2.1187e-06,8.16763e-08,5.36666e-05,0.000308044,1.77095e-05,4.62152e-05
15,8.79878e-06,8.75433e-06,4.67272e-05,0.000307999,1.65273e-05,4.64158e-05
16,1.18204e-05,3.6939e-06,4.45407e-05,0.000304065,1.5037e-05,4.19116e-05
17,1.04877e-05,-1.0403e-05,5.14456e-05,0.000296263,1.56366e-05,3.44143e-05
18,9.32104e-06,-1.57242e-05,6.01226e-05,0.000291583,1.72948e-05,3.10129e-05
19,1.00407e-05,-5.67098e-06,6.07389e-05,0.000294984,1.76131e-05,3.46238e-05
20,1.15363e-05,6.49108e-06,5.26291e-05,0.000299628,1.667e-05,4.1229e-05
21,1.24089e-05,9.80462e-06,4.46924e-05,0.000296954,1.63794e-05,4.48095e-05
22,1.07055e-05,3.15445e-06,4.57986e-05,0.000287545,1.52987e-05,4.16562e-05
23,6.30346e-06,-1.29855e-05,5.28127e-05,0.000275763,1.47419e-05,3.31317e-05
24,5.46638e-06,-2.44531e-05,5.79617e-05,0.000269891,1.78848e-05,2.83349e-05
25,8.73608e-06,-1.82194e-05,5.75397e-05,0.000272715,2.1413e-05,3.21849e-05
26,1.21614e-05,-2.12978e-06,5.47279e-05,0.000276941,2.26206e-05,3.85492e-05
27,1.285e-05,8.46865e-06,5.53032e-05,0.000273757,2.32411e-05,4.13088e-05
28,1.48387e-05,8.03545e-06,5.65032e-05,0.000264566,2.13273e-05,3.95399e-05
29,2.01264e-05,-8.54784e-06,5.47027e-05,0.000252202,1.99255e-05,3.38696e-05
30,2.16626e-05,-2.47004e-05,5.21856e-05,0.000241961,1.98496e-05,3.22824e-05
31,1.74264e-05,-1.84502e-05,5.42871e-05,0.00024014,1.86963e-05,3.70721e-05
32,1.13194e-05,-6.60646e-06,5.85318e-05,0.000240407,1.67803e-05,3.88318e-05
33,7.70271e-06,-2.80017e-06,6.15832e-05,0.000239902,1.49202e-05,3.75202e-05
34,9.61929e-06,1.73464e-07,6.18553e-05,0.000238643,1.39595e-05,4.01839e-05
35,1.79285e-05,1.70805e-06,5.82879e-05,0.00023474,1.39932e-05,4.38414e-05
36,2.53451e-05,3.33797e-07,5.39158e-05,0.000231831,1.39076e-05,4.62063e-05
37,2.59614e-05,-7.49224e-06,5.62717e-05,0.00022645,1.24114e-05,4.49959e-05
38,2.15742e-05,-2.05442e-05,6.52322e-05,0.000216732,1.08649e-05,3.99895e-05
39,1.65938e-05,-2.55084e-05,7.10472e-05,0.000212467,1.13832e-05,3.82858e-05
40,1.37248e-05,-1.39593e-05,6.97505e-05,0.000217528,1.4168e-05,4.08703e-05
41,1.3686e-05,-2.86723e-07,6.39617e-05,0.000220412,1.67195e-05,4.26928e-05
42,1.46383e-05,2.7731e-06,5.86802e-05,0.000215801,1.79353e-05,4.10413e-05
43,1.26684e-05,-6.24498e-06,5.85354e-05,0.0002064,1.76227e-05,3.6772e-05
44,8.38184e-06,-2.01351e-05,6.31311e-05,0.0001932,1.53509e-05,3.18276e-05
45,6.60906e-06,-2.34456e-05,6.5759e-05,0.000181836,1.13481e-05,3.14793e-05
46,8.33281e-06,-1.04617e-05,6.20292e-05,0.000179651,8.43899e-06,3.50644e-05
47,1.14117e-05,4.69052e-06,5.27516e-05,0.000184112,7.5444e-06,3.57092e-05
48,1.59295e-05,8.4917e-06,4.3244e-05,0.000186101,6.44477e-06,3.24708e-05
49,1.79989e-05,6.25775e-07,4.18276e-05,0.000181837,4.47353e-06,3.01411e-05
50,1.56314e-05,-1.35203e-05,4.96755e-05,0.000171055,4.53455e-06,2.98579e-05
51,1.52002e-05,-1.82024e-05,5.58736e-05,0.000161154,8.40637e-06,3.2186e-05
52,1.86698e-05,-6.62301e-06,5.50926e-05,0.000160399,1.31737e-05,3.7243e-05
53,2.16686e-05,7.54018e-06,5.16759e-05,0.000163243,1.4368e-05,4.26461e-05
54,2.09725e-05,1.06564e-05,5.13774e-05,0.000161315,1.46099e-05,4.56048e-05
55,1.70044e-05,1.91402e-06,5.02437e-05,0.000154499,1.86613e-05,4.50241e-05
56,1.64536e-05,-1.70899e-05,4.38562e-05,0.000144524,2.39833e-05,4.12254e-05
57,1.99993e-05,-2.86822e-05,3.75933e-05,0.000136674,2.48051e-05,3.78917e-05
58,2.07474e-05,-1.51237e-05,4.09268e-05,0.000138303,2.04309e-05,4.02417e-05
59,1.68045e-05,1.65652e-06,5.05157e-05,0.000140624,1.66945e-05,4.6593e-05
60,1.20797e-05,2.84686e-06,5.63776e-05,0.00013365,1.75351e-05,5.17621e-05
61,1.1547e-05,3.0673e-07,5.57111e-05,0.000124452,2.02867e-05,5.20021e-05
62,1.43002e-05,-2.98402e-07,5.10892e-05,0.000119051,2.11403e-05,4.7969e-05
63,1.60895e-05,-1.16125e-06,4.66756e-05,0.000117859,1.84581e-05,4.37802e-05
64,1.33034e-05,-9.16617e-06,4.74279e-05,0.000113697,1.30306e-05,4.00278e-05
65,8.49076e-06,-2.33225e-05,5.36176e-05,0.000105518,8.72814e-06,3.5017e-05
66,6.08002e-06,-2.69588e-05,5.80217e-05,0.00010192,8.92177e-06,3.39165e-05
67,6.95872e-06,-1.42308e-05,5.56456e-05,0.000104116,1.18976e-05,3.95353e-05
68,8.68207e-06,-1.1162e-06,4.82121e-05,0.000103347,1.3951e-05,4.32999e-05
69,8.62898e-06,1.63602e-06,4.28789e-05,9.76125e-05,1.24865e-05,4.09171e-05
70,6.44679e-06,-6.22693e-06,4.39129e-05,8.97044e-05,9.14125e-06,3.51761e-05
71,4.11114e-06,-1.90782e-05,4.83691e-05,8.07618e-05,9.11944e-06,2.92389e-05
72,3.50282e-06,-2.44507e-05,4.995e-05,7.48644e-05,1.23618e-05,2.81955e-05
73,4.86841e-06,-1.56394e-05,4.88715e-05,7.5511e-05,1.56042e-05,3.19573e-05
74,8.40888e-06,-3.12395e-06,4.61751e-05,7.8556e-05,1.79743e-05,3.60644e-05
75,1.24277e-05,8.53746e-07,4.17984e-05,7.96085e-05,1.83808e-05,3.8751e-05
76,1.1306e-05,-5.0941e-06,4.13253e-05,7.72918e-05,1.57292e-05,3.88649e-05
77,7.05472e-06,-1.6977e-05,4.71909e-05,7.05584e-05,1.14378e-05,3.54005e-05
78,8.80639e-06,-2.21072e-05,5.3692e-05,6.54849e-05,9.60253e-06,3.19392e-05
79,1.13229e-05,-1.23492e-05,5.50756e-05,6.61096e-05,1.06351e-05,3.32322e-05
80,1.12999e-05,1.02408e-06,5.40178e-05,6.96159e-05,1.33059e-05,3.70622e-05
81,1.11171e-05,5.60557e-06,5.6951e-05,7.0503e-05,1.79208e-05,3.95912e-05
82,1.00079e-05,3.44981e-07,5.75291e-05,6.7293e-05,2.0857e-05,4.13931e-05
83,1.09608e-05,-1.52352e-05,5.14183e-05,5.92282e-05,2.10923e-05,4.02025e-05
84,1.32958e-05,-2.62237e-05,4.53176e-05,5.22264e-05,1.82776e-05,3.73502e-05
85,1.10437e-05,-1.65863e-05,4.86363e-05,5.59493e-05,1.51421e-05,3.87089e-05
86,7.04572e-06,-1.88644e-06,5.63035e-05,6.069e-05,1.39648e-05,4.25096e-05
87,6.82948e-06,2.93377e-06,6.0525e-05,5.79262e-05,1.45569e-05,4.38005e-05
88,9.49712e-06,3.56621e-06,5.92302e-05,5.52411e-05,1.63789e-05,3.96755e-05
89,1.11488e-05,3.46198e-06,5.23361e-05,5.65279e-05,1.61777e-05,3.32482e-05
90,1.06911e-05,4.77631e-06,4.4939e-05,5.90784e-05,1.32454e-05,2.96174e-05
91,9.7454e-06,-5.90063e-07,4.44324e-05,5.48592e-05,1.11853e-05,2.69956e-05
92,9.84e-06,-1.51565e-05,5.13361e-05,4.6196e-05,1.24774e-05,2.2703e-05
93,1.11059e-05,-1.97146e-05,5.65664e-05,4.26672e-05,1.39447e-05,2.2827e-05
94,1.20066e-05,-5.24001e-06,5.51883e-05,4.58133e-05,1.30157e-05,3.00357e-05
95,1.35059e-05,1.09787e-05,4.87698e-05,4.8098e-05,1.20684e-05,3.57607e-05
96,1.52871e-05,1.43912e-05,4.24846e-05,4.5973e-05,1.31655e-05,3.35867e-05
97,1.5168e-05,2.89562e-06,4.14258e-05,4.05091e-05,1.4033e-05,2.56064e-05
98,1.31365e-05,-1.47587e-05,4.70819e-05,3.41691e-05,1.53723e-05,2.05234e-05
99,1.15329e-05,-2.02436e-05,5.27498e-05,3.17471e-05,1.8157e-05,2.39562e-05
100,1.10824e-05,-8.79079e-06,5.3685e-05,3.35425e-05,1.90624e-05,3.39047e-05
101,1.17334e-05,4.15739e-06,5.17559e-05,3.52893e-05,1.5698e-05,4.27839e-05
102,1.45724e-05,4.59658e-06,4.94423e-05,3.46128e-05,1.15806e-05,4.37611e-05
103,1.82073e-05,-6.6927e-06,4.98795e-05,3.09277e-05,1.04908e-05,3.66395e-05
104,1.99905e-05,-2.11521e-05,5.48076e-05,2.26118e-05,1.19361e-05,2.74633e-05
105,2.0944e-05,-2.54061e-05,5.73983e-05,1.71371e-05,1.52914e-05,2.4316e-05
106,2.11359e-05,-1.40261e-05,5.55661e-05,2.11868e-05,1.76965e-05,2.74654e-05
107,1.96386e-05,1.24915e-06,5.28103e-05,2.93226e-05,1.71168e-05,2.84626e-05
108,1.60575e-05,7.73804e-06,5.15706e-05,3.33336e-05,1.55533e-05,2.60509e-05
109,1.36692e-05,2.38273e-06,5.01388e-05,3.20712e-05,1.49726e-05,2.50592e-05
110,1.58442e-05,-1.71284e-05,4.65733e-05,2.62513e-05,1.52953e-05,2.40075e-05
111,1.79273e-05,-3.30046e-05,4.46645e-05,2.13946e-05,1.33286e-05,2.2773e-05
112,1.48527e-05,-2.1948e-05,4.92713e-05,2.53315e-05,9.64713e-06,2.70932e-05
113,1.09136e-05,-5.60859e-06,5.59623e-05,3.07449e-05,8.28275e-06,3.34436e-05
114,9.16716e-06,-2.2426e-06,6.0327e-05,3.17309e-05,8.61529e-06,3.39757e-05
115,1.06838e-05,-1.68278e-07,6.06147e-05,3.0876e-05,1.01313e-05,3.21255e-05
116,1.74503e-05,4.42977e-06,5.49729e-05,2.92632e-05,1.3219e-05,3.14355e-05
117,2.55015e-05,7.63374e-06,4.77648e-05,3.15551e-05,1.42792e-05,3.07255e-05
118,2.75079e-05,8.26894e-08,4.71036e-05,3.20641e-05,1.31077e-05,2.82822e-05
119,2.35819e-05,-1.55209e-05,5.31007e-05,2.50737e-05,1.3655e-05,2.5649e-05
120,2.09884e-05,-2.13212e-05,5.79435e-05,1.78777e-05,1.54513e-05,2.80126e-05
121,2.2099e-05,-1.00015e-05,5.72786e-05,1.71312e-05,1.52463e-05,3.69229e-05
122,2.44777e-05,3.39809e-06,5.12624e-05,2.03067e-05,1.46956e-05,4.40527e-05
123,2.63402e-05,6.9962e-06,4.50471e-05,2.26935e-05,1.56398e-05,4.47441e-05
124,2.54782e-05,-1.01868e-06,4.52071e-05,2.10787e-05,1.59006e-05,4.17344e-05
125,2.092e-05,-1.42455e-05,5.25052e-05,1.60226e-05,1.68884e-05,3.69991e-05
126,1.87917e-05,-1.97351e-05,5.99976e-05,1.28465e-05,1.96732e-05,3.32691e-05
127,2.25568e-05,-1.11768e-05,6.15047e-05,1.45617e-05,1.94647e-05,3.37943e-05
128,2.72551e-05,1.6916e-06,5.47574e-05,1.83052e-05,1.61282e-05,3.6638e-05
129,2.69437e-05,7.7611e-06,4.65273e-05,2.05945e-05,1.65488e-05,3.887e-05
130,2.27499e-05,3.90451e-06,4.50465e-05,1.98021e-05,2.08876e-05,3.96903e-05
131,1.90946e-05,-9.14733e-06,5.19758e-05,1.53657e-05,2.38664e-05,3.64682e-05
132,1.8103e-05,-1.79007e-05,6.01353e-05,1.29681e-05,2.4925e-05,3.22473e-05
133,2.05135e-05,-1.26207e-05,6.13311e-05,1.67897e-05,2.36256e-05,3.17516e-05
134,2.20663e-05,-2.27565e-06,5.83891e-05,2.09294e-05,2.08756e-05,3.40828e-05
135,1.82385e-05,4.22912e-06,5.73633e-05,2.00982e-05,1.97007e-05,3.63712e-05
136,1.52203e-05,3.77085e-06,5.64933e-05,1.65251e-05,2.0684e-05,3.62174e-05
137,1.78804e-05,-1.2166e-05,5.31257e-05,1.10167e-05,2.14572e-05,3.39483e-05
138,2.1171e-05,-2.70053e-05,4.8957e-05,9.42254e-06,1.90337e-05,3.21191e-05
139,1.94341e-05,-1.59575e-05,4.85063e-05,1.52754e-05,1.54131e-05,3.23334e-05
140,1.44212e-05,1.44257e-06,5.19072e-05,2.09582e-05,1.45221e-05,3.56164e-05
141,1.08799e-05,6.47992e-06,5.70875e-05,2.34107e-05,1.80399e-05,4.03985e-05
142,9.97869e-06,6.24964e-06,5.87393e-05,2.54892e-05,2.23185e-05,4.37485e-05
143,1.1368e-05,3.28502e-06,5.38623e-05,2.66473e-05,2.42307e-05,4.4542e-05
144,1.24712e-05,3.4329e-06,4.74477e-05,2.58053e-05,2.32349e-05,4.39949e-05
145,9.74525e-06,3.47667e-07,4.854e-05,2.23269e-05,2.01114e-05,3.87955e-05
146,4.70479e-06,-1.10491e-05,5.72635e-05,1.72896e-05,1.82155e-05,2.96051e-05
147,1.44951e-06,-1.65978e-05,6.485e-05,1.61261e-05,2.06312e-05,2.67998e-05
148,2.53777e-06,-7.85461e-06,6.54379e-05,1.864e-05,2.39958e-05,3.2966e-05
149,7.22977e-06,2.17952e-06,5.91347e-05,1.93657e-05,2.32907e-05,3.80861e-05
150,1.16051e-05,3.40521e-06,5.20929e-05,1.87142e-05,1.8614e-05,3.84632e-05
151,1.20436e-05,-4.88599e-06,5.07714e-05,1.7416e-05,1.38779e-05,3.73292e-05
152,9.66068e-06,-1.74583e-05,5.62718e-05,1.33922e-05,1.38569e-05,3.58876e-05
153,8.17591e-06,-2.10899e-05,6.19045e-05,9.74171e-06,1.8817e-05,3.50625e-05
154,8.39529e-06,-1.01626e-05,6.14461e-05,1.20448e-05,2.27839e-05,3.62169e-05
155,9.82475e-06,3.23967e-06,5.38926e-05,1.74663e-05,2.17304e-05,3.85414e-05
156,1.01347e-05,5.69309e-06,4.60682e-05,2.01007e-05,1.61899e-05,3.86707e-05
157,7.38268e-06,-3.18639e-06,4.51939e-05,1.83432e-05,7.87359e-06,3.71094e-05
158,3.96086e-06,-1.79213e-05,5.00896e-05,1.41115e-05,2.73289e-06,3.61729e-05
159,3.83878e-06,-2.46455e-05,5.45329e-05,1.28069e-05,5.34437e-06,3.63756e-05
160,4.81637e-06,-1.4846e-05,5.50196e-05,1.7538e-05,1.09406e-05,3.89366e-05
161,4.62708e-06,-2.17508e-07,5.27484e-05,2.22125e-05,1.34292e-05,4.30073e-05
162,3.65006e-06,2.33703e-06,5.34299e-05,2.27431e-05,1.48519e-05,4.40413e-05
163,3.72568e-06,-7.74677e-06,5.41441e-05,1.99681e-05,1.55645e-05,4.15244e-05
164,7.36002e-06,-2.70754e-05,5.10372e-05,1.40814e-05,1.57659e-05,3.63203e-05
165,1.12359e-05,-3.93848e-05,4.88982e-05,9.55364e-06,1.48285e-05,3.31819e-05
166,9.38116e-06,-2.67473e-05,5.28388e-05,1.29194e-05,1.18997e-05,3.57001e-05
167,2.91546e-06,-7.1688e-06,5.81712e-05,2.01837e-05,1.08963e-05,3.69947e-05
168,-1.2648e-06,-1.33564e-08,5.93343e-05,2.31542e-05,1.37816e-05,3.64577e-05
169,1.88979e-07,4.46481e-07,5.64232e-05,2.38738e-05,1.74176e-05,3.80019e-05
170,6.62756e-06,1.73759e-06,5.14845e-05,2.59089e-05,1.93162e-05,4.25697e-05
171,1.32993e-05,5.22631e-06,4.75922e-05,2.98714e-05,1.82686e-05,4.72447e-05
172,1.4762e-05,-3.13132e-07,4.9711e-05,3.01828e-05,1.61152e-05,4.58159e-05
173,1.2315e-05,-1.62605e-05,5.64742e-05,2.54673e-05,1.56235e-05,4.27168e-05
174,1.03897e-05,-2.22074e-05,6.07815e-05,2.27297e-05,1.69104e-05,4.4099e-05
175,1.09352e-05,-1.1477e-05,6.01019e-05,2.62885e-05,1.87129e-05,4.86495e-05
176,1.28267e-05,2.11034e-06,5.57997e-05,3.13819e-05,1.87131e-05,5.18738e-05
177,1.2788e-05,9.46796e-06,5.2558e-05,3.45972e-05,1.59383e-05,5.29434e-05
178,8.29774e-06,5.41086e-06,5.52372e-05,3.34455e-05,1.15998e-05,5.08231e-05
179,3.46486e-06,-7.04072e-06,6.20152e-05,2.73344e-05,1.01043e-05,4.68338e-05
180,3.65226e-06,-1.17282e-05,6.44132e-05,2.22921e-05,1.30963e-05,4.66737e-05
181,6.59273e-06,-9.49912e-07,6.11443e-05,2.39292e-05,1.72509e-05,5.30971e-05
182,7.71576e-06,1.15157e-05,5.63538e-05,3.03152e-05,1.92032e-05,6.06667e-05
183,7.15516e-06,1.30317e-05,5.27121e-05,3.4443e-05,2.1156e-05,6.17293e-05
184,6.33211e-06,4.04919e-06,5.17284e-05,3.22502e-05,2.41739e-05,5.57203e-05
185,4.91888e-06,-1.00674e-05,5.28008e-05,2.41509e-05,2.608e-05,4.63044e-05
186,4.5447e-06,-1.6376e-05,5.31808e-05,1.94327e-05,2.36854e-05,4.07563e-05
187,7.67018e-06,-5.81219e-06,5.26579e-05,2.39231e-05,1.4361e-05,4.25671e-05
188,1.17301e-05,9.51039e-06,5.11925e-05,3.05294e-05,3.39338e-06,4.62543e-05
189,1.15414e-05,1.43294e-05,5.07567e-05,3.11509e-05,-3.13214e-07,4.64841e-05
190,7.83602e-06,1.03923e-05,5.13625e-05,2.70796e-05,3.37694e-06,4.36706e-05
191,7.19605e-06,-2.62209e-06,5.16844e-05,2.18284e-05,7.96591e-06,4.0258e-05
192,9.46336e-06,-1.49632e-05,5.10366e-05,2.1879e-05,8.91077e-06,3.92622e-05
193,7.48164e-06,-9.8331e-06,5.16635e-05,3.00484e-05,7.24395e-06,4.21983e-05
194,1.99069e-06,2.3457e-06,5.34165e-05,3.50352e-05,7.66241e-06,4.45955e-05
195,-1.18683e-06,8.38459e-06,5.64069e-05,3.19385e-05,1.04592e-05,4.2565e-05
196,1.84079e-06,8.07954e-06,5.94643e-05,2.58991e-05,1.19921e-05,4.09863e-05
197,7.80731e-06,3.79032e-06,5.81288e-05,2.16396e-05,1.07846e-05,4.2407e-05
198,1.09502e-05,2.79344e-06,5.42132e-05,2.30576e-05,8.68874e-06,4.49423e-05
199,1.00845e-05,1.65817e-06,5.50811e-05,2.31608e-05,7.0687e-06,4.16408e-05
200,8.5222e-06,-6.17395e-06,6.21858e-05,1.82468e-05,6.66638e-06,3.36851e-05
201,7.49504e-06,-1.10531e-05,6.69184e-05,1.55275e-05,8.89134e-06,3.27651e-05
202,7.53645e-06,-4.21721e-06,6.41691e-05,1.962e-05,1.19129e-05,3.92839e-05
203,1.04899e-05,5.03648e-06,5.6124e-05,2.58927e-05,1.28226e-05,4.35159e-05
204,1.40178e-05,8.94833e-06,4.79883e-05,2.99159e-05,1.2299e-05,4.30606e-05
205,1.42642e-05,2.85184e-06,4.52301e-05,2.85507e-05,1.22674e-05,3.95695e-05
206,1.23871e-05,-1.00801e-05,4.88827e-05,2.22876e-05,1.30358e-05,3.45908e-05
207,1.2257e-05,-1.59155e-05,5.22541e-05,1.84812e-05,1.42582e-05,3.33134e-05
208,1.44069e-05,-8.45242e-06,5.26454e-05,2.16382e-05,1.53568e-05,3.77202e-05
209,1.57429e-05,1.29786e-06,5.00676e-05,2.68773e-05,1.53877e-05,4.223e-05
210,1.36529e-05,2.31977e-06,4.63752e-05,2.86115e-05,1.3773e-05,4.32912e-05
211,9.42549e-06,-6.17805e-06,4.75989e-05,2.69471e-05,1.03188e-05,4.18677e-05
212,5.84776e-06,-2.06701e-05,5.44455e-05,2.228e-05,5.95252e-06,3.63759e-05
213,6.68623e-06,-2.77018e-05,5.99987e-05,1.92401e-05,5.08915e-06,3.02569e-05
214,8.98421e-06,-1.7332e-05,6.12762e-05,2.34645e-05,8.17616e-06,3.04067e-05
215,1.19582e-05,-1.23678e-06,5.97462e-05,3.08256e-05,1.12339e-05,3.51904e-05
216,1.34489e-05,5.19543e-06,5.83963e-05,3.43282e-05,1.24077e-05,3.67088e-05
217,1.36618e-05,-1.75748e-07,5.74349e-05,3.39934e-05,1.20298e-05,3.29067e-05
218,1.69984e-05,-1.68444e-05,5.19609e-05,2.97048e-05,1.21318e-05,2.73635e-05
219,1.93066e-05,-2.99812e-05,4.39586e-05,2.68492e-05,1.12794e-05,2.54188e-05
220,1.97839e-05,-1.87615e-05,4.39238e-05,3.23918e-05,8.697e-06,2.82884e-05
221,2.02338e-05,-2.29888e-07,5.11174e-05,3.83199e-05,9.70309e-06,3.00245e-05
222,2.08568e-05,4.51985e-06,5.50265e-05,3.63638e-05,1.49769e-05,2.93698e-05
223,1.95796e-05,3.51189e-06,5.21307e-05,3.39088e-05,1.84208e-05,3.05867e-05
224,1.66431e-05,1.74839e-06,4.45147e-05,3.38073e-05,1.92675e-05,3.27346e-05
225,1.43815e-05,1.64683e-06,3.69236e-05,3.50675e-05,1.82928e-05,3.48577e-05
226,1.39092e-05,-4.68326e-06,3.57482e-05,3.45598e-05,1.42163e-05,3.32364e-05
227,1.56597e-05,-1.93681e-05,4.17948e-05,3.14836e-05,9.40606e-06,2.64821e-05
228,1.78274e-05,-2.39495e-05,4.81945e-05,3.15951e-05,9.07868e-06,2.2895e-05
229,1.98631e-05,-1.17562e-05,5.02279e-05,3.71146e-05,1.27821e-05,2.70978e-05
230,2.29836e-05,5.22149e-07,4.7936e-05,4.07109e-05,1.55235e-05,3.16276e-05
231,2.51428e-05,1.90694e-06,4.3661e-05,3.71126e-05,1.46807e-05,3.05551e-05
232,2.18659e-05,-8.69339e-06,4.19336e-05,3.1317e-05,1.11008e-05,2.56077e-05
233,1.58275e-05,-2.47174e-05,4.33703e-05,2.86072e-05,9.02345e-06,2.0459e-05
234,1.20326e-05,-3.21262e-05,4.46265e-05,3.13721e-05,1.21823e-05,1.90536e-05
235,1.07515e-05,-2.49383e-05,4.62065e-05,3.70196e-05,1.72969e-05,2.12155e-05
236,1.21012e-05,-1.32294e-05,4.5283e-05,4.11219e-05,2.02879e-05,2.42947e-05
237,1.42587e-05,-7.6341e-06,3.97065e-05,4.20906e-05,2.09882e-05,2.7593e-05
238,1.33812e-05,-1.13033e-05,3.82145e-05,3.95547e-05,2.09293e-05,2.94194e-05
239,9.90253e-06,-2.35231e-05,4.3917e-05,3.24655e-05,2.34238e-05,2.64722e-05
240,7.8945e-06,-3.10788e-05,4.76121e-05,2.73269e-05,2.96012e-05,2.29777e-05
241,9.71568e-06,-2.47075e-05,4.44385e-05,2.97877e-05,3.24171e-05,2.53478e-05
242,1.2068e-05,-1.41103e-05,4.22251e-05,3.69647e-05,2.75536e-05,3.22393e-05
243,1.35911e-05,-9.0202e-06,4.81881e-05,4.29756e-05,2.24534e-05,3.59589e-05
244,1.65113e-05,-9.64369e-06,5.35371e-05,4.278e-05,2.05765e-05,3.4872e-05
245,2.02902e-05,-2.24617e-05,4.89149e-05,3.55613e-05,2.0518e-05,3.18217e-05
246,2.1977e-05,-3.5061e-05,4.08389e-05,2.92542e-05,1.96645e-05,2.95353e-05
247,1.94127e-05,-2.62533e-05,3.9392e-05,3.32706e-05,1.6959e-05,3.05085e-05
248,1.54595e-05,-1.11355e-05,4.29546e-05,4.05878e-05,1.56239e-05,2.92756e-05
249,1.40998e-05,-5.97371e-06,4.52542e-05,4.30687e-05,1.86034e-05,2.82845e-05
250,1.60052e-05,-3.29806e-06,4.37263e-05,4.57349e-05,2.2025e-05,2.92343e-05
251,1.99148e-05,-1.40369e-06,4.01696e-05,5.11469e-05,2.24762e-05,2.92131e-05
252,2.17476e-05,-1.72166e-06,3.8803e-05,5.62319e-05,2.05892e-05,3.13521e-05
253,1.81025e-05,-8.11868e-06,4.22213e-05,5.39588e-05,1.84398e-05,3.42935e-05
254,1.40701e-05,-2.10198e-05,4.8074e-05,4.55222e-05,1.72722e-05,3.56409e-05
255,1.47493e-05,-2.50811e-05,5.16568e-05,4.15654e-05,1.69088e-05,3.6558e-05
256,1.75396e-05,-1.09742e-05,5.08755e-05,4.73939e-05,1.65873e-05,4.05797e-05
257,1.80339e-05,5.82265e-06,4.64573e-05,5.60899e-05,1.50697e-05,4.32578e-05
258,1.62288e-05,1.1164e-05,4.29471e-05,5.96331e-05,1.37048e-05,4.14493e-05
259,1.36849e-05,3.02855e-06,4.52786e-05,5.61125e-05,1.38574e-05,3.69128e-05
260,1.25815e-05,-1.11348e-05,5.0528e-05,5.04019e-05,1.53023e-05,3.27567e-05
261,1.49357e-05,-1.63299e-05,5.25524e-05,4.95807e-05,1.66356e-05,3.21559e-05
262,1.94986e-05,-7.67717e-06,5.14583e-05,5.28362e-05,1.70942e-05,3.56224e-05
263,2.30372e-05,4.05789e-06,4.86103e-05,5.48192e-05,1.65891e-05,4.02947e-05
264,2.42184e-05,8.91979e-06,4.68871e-05,5.52376e-05,1.59508e-05,4.47258e-05
265,2.381e-05,5.24109e-06,5.21404e-05,5.53099e-05,1.3172e-05,4.76911e-05
266,2.25951e-05,-6.43635e-06,6.07111e-05,5.0157e-05,1.05552e-05,4.58074e-05
267,2.19471e-05,-1.39632e-05,6.26804e-05,4.28375e-05,1.35484e-05,4.24753e-05
268,1.98675e-05,-5.57065e-06,5.79247e-05,4.21466e-05,1.87106e-05,4.34919e-05
269,1.59501e-05,8.63975e-06,5.28929e-05,4.5412e-05,1.78113e-05,4.69961e-05
270,1.32608e-05,1.30604e-05,5.11228e-05,4.57175e-05,1.24874e-05,4.91338e-05
271,1.48838e-05,5.147e-06,5.10235e-05,4.50549e-05,1.00938e-05,5.00471e-05
272,2.06421e-05,-1.57796e-05,4.93972e-05,4.30236e-05,1.15825e-05,4.63692e-05
273,2.23753e-05,-3.07422e-05,4.77739e-05,4.05045e-05,1.40353e-05,4.07512e-05
274,1.63203e-05,-1.74732e-05,5.16584e-05,4.08173e-05,1.55793e-05,4.23855e-05
275,9.42098e-06,2.50311e-06,5.76727e-05,4.01271e-05,1.63348e-05,4.77774e-05
276,7.16064e-06,8.15388e-06,6.06302e-05,3.95666e-05,1.73995e-05,5.05602e-05
277,9.83746e-06,6.94853e-06,5.85378e-05,4.22663e-05,1.87896e-05,5.27116e-05
278,1.50498e-05,3.92163e-06,5.19795e-05,4.51073e-05,1.86759e-05,5.2375e-05
279,1.72078e-05,3.17363e-06,4.62525e-05,4.70959e-05,1.56964e-05,4.99096e-05
280,1.25291e-05,-1.32689e-06,4.80348e-05,4.6793e-05,1.17413e-05,4.54045e-05
281,4.52581e-06,-1.28576e-05,5.5047e-05,4.28381e-05,1.06869e-05,3.88001e-05
282,-1.05998e-06,-1.61858e-05,5.93067e-05,3.98924e-05,1.26932e-05,3.45151e-05
283,-1.10334e-06,-6.73332e-06,5.8774e-05,4.28152e-05,1.36999e-05,3.67389e-05
284,4.2829e-06,2.95769e-06,5.43969e-05,4.74584e-05,1.23963e-05,4.18816e-05
285,9.39066e-06,5.57258e-06,4.93951e-05,4.88846e-05,1.08069e-05,4.44374e-05
286,7.73251e-06,2.32812e-07,4.85869e-05,4.74994e-05,1.03102e-05,4.08638e-05
287,3.09267e-06,-1.12468e-05,5.23529e-05,4.34849e-05,1.11911e-05,3.39131e-05
288,2.79724e-06,-1.76874e-05,5.52895e-05,3.93132e-05,1.29886e-05,3.2646e-05
289,7.09785e-06,-1.09284e-05,5.53742e-05,4.03519e-05,1.45777e-05,3.92413e-05
290,1.29974e-05,2.6479e-08,5.21692e-05,4.58597e-05,1.4797e-05,4.55932e-05
291,1.77494e-05,3.54445e-06,4.76246e-05,4.82246e-05,1.53563e-05,4.61714e-05
292,1.59265e-05,-9.23899e-07,4.93029e-05,4.36931e-05,1.43001e-05,4.43146e-05
293,7.36786e-06,-9.49959e-06,5.68501e-05,3.49927e-05,1.13664e-05,4.259e-05
294,7.60033e-08,-1.25908e-05,6.04429e-05,3.02096e-05,1.2432e-05,4.21124e-05
295,-3.52988e-07,-4.50123e-06,5.80116e-05,3.36969e-05,1.58482e-05,4.4572e-05
296,4.14747e-06,4.66519e-06,5.54034e-05,3.8364e-05,1.78378e-05,4.83883e-05
297,7.71495e-06,5.61889e-06,5.53506e-05,3.76475e-05,1.91853e-05,5.03626e-05
298,1.15875e-05,-4.89913e-07,5.36001e-05,3.3476e-05,2.13115e-05,4.9115e-05
299,1.67455e-05,-1.44564e-05,4.75464e-05,2.76538e-05,2.39029e-05,4.33167e-05
300,1.79191e-05,-2.43259e-05,4.36807e-05,2.62815e-05,2.47056e-05,4.01598e-05
301,1.24135e-05,-1.21198e-05,4.86802e-05,3.6189e-05,2.30538e-05,4.31519e-05
302,5.67893e-06,5.08806e-06,5.59186e-05,4.71978e-05,2.12556e-05,4.41569e-05
303,3.20765e-06,1.19944e-05,6.0065e-05,5.23776e-05,2.19625e-05,4.32972e-05
304,4.78105e-06,1.40392e-05,6.00139e-05,5.67024e-05,2.39505e-05,4.5308e-05
305,9.2689e-06,1.32428e-05,5.48772e-05,5.89904e-05,2.46699e-05,4.63576e-05
306,1.38484e-05,1.1694e-05,4.87613e-05,6.00411e-05,2.31588e-05,4.533e-05
307,1.41037e-05,2.64323e-06,4.79589e-05,5.78245e-05,2.09449e-05,4.14368e-05
308,1.16786e-05,-1.44549e-05,5.17379e-05,5.06174e-05,1.89869e-05,3.76894e-05
309,1.04395e-05,-2.11545e-05,5.60576e-05,4.75366e-05,1.83035e-05,3.747e-05
310,1.02159e-05,-9.43035e-06,5.94195e-05,5.0527e-05,1.97169e-05,3.88279e-05
311,1.0712e-05,4.47269e-06,5.90298e-05,5.19907e-05,2.11356e-05,3.92298e-05
312,1.1484e-05,8.0477e-06,5.55348e-05,4.78096e-05,1.98953e-05,4.05084e-05
313,1.10032e-05,-1.18689e-06,5.53393e-05,3.96006e-05,1.76316e-05,4.223e-05
314,9.24545e-06,-1.60001e-05,6.01915e-05,3.22494e-05,1.86503e-05,4.12961e-05
315,8.16091e-06,-2.14229e-05,6.34589e-05,3.16648e-05,2.28733e-05,3.94827e-05
316,1.03409e-05,-1.24183e-05,6.16513e-05,3.85321e-05,2.51295e-05,4.13267e-05
317,1.44297e-05,-7.67303e-07,5.42191e-05,4.65068e-05,2.42424e-05,4.70657e-05
318,1.5433e-05,3.62634e-06,4.61845e-05,4.904e-05,2.29694e-05,5.03898e-05
319,1.20363e-05,-2.24669e-07,4.47933e-05,4.34985e-05,1.88112e-05,4.75097e-05
320,6.83207e-06,-1.17428e-05,4.99666e-05,3.44173e-05,1.40389e-05,3.89763e-05
321,4.1709e-06,-2.04124e-05,5.46984e-05,3.1968e-05,1.57927e-05,3.10705e-05
322,4.46305e-06,-1.43808e-05,5.55433e-05,3.86517e-05,2.05258e-05,2.89674e-05
323,5.82047e-06,-1.88959e-06,5.44163e-05,4.50841e-05,2.48981e-05,3.15369e-05
324,6.88712e-06,2.32247e-06,5.50058e-05,4.62501e-05,2.7603e-05,3.49305e-05
325,9.94719e-06,-4.32925e-06,5.51746e-05,4.61297e-05,2.39298e-05,3.58801e-05
326,1.6563e-05,-2.1603e-05,5.0441e-05,4.35539e-05,1.68038e-05,3.3196e-05
327,1.9286e-05,-3.3537e-05,4.52858e-05,3.88067e-05,1.06354e-05,3.31501e-05
328,1.47716e-05,-2.37443e-05,4.74902e-05,3.88879e-05,6.72337e-06,3.92587e-05
329,9.94795e-06,-1.31912e-05,5.27607e-05,4.17296e-05,5.36098e-06,4.40084e-05
330,8.7873e-06,-1.25503e-05,5.51568e-05,4.41268e-05,7.52558e-06,4.33176e-05
331,1.04212e-05,-1.04739e-05,5.36708e-05,4.7242e-05,1.21722e-05,4.01115e-05
332,1.28574e-05,-6.93371e-06,4.78913e-05,4.85766e-05,1.59306e-05,3.54163e-05
333,1.31166e-05,-4.36402e-06,4.3085e-05,4.83181e-05,1.54487e-05,3.48123e-05
334,1.02947e-05,-9.74649e-06,4.47094e-05,4.60922e-05,1.18897e-05,3.55296e-05
335,8.07467e-06,-2.00486e-05,4.89775e-05,4.19952e-05,1.03482e-05,3.20984e-05
336,7.72447e-06,-2.10338e-05,5.09164e-05,4.347e-05,1.35339e-05,2.93344e-05
337,8.74708e-06,-8.70791e-06,5.21035e-05,5.12417e-05,1.85225e-05,3.1413e-05
338,1.13757e-05,2.46986e-06,5.23294e-05,5.57404e-05,2.18354e-05,3.484e-05
339,1.40479e-05,4.95791e-06,5.06995e-05,5.5046e-05,2.2509e-05,3.48409e-05
340,1.26556e-05,-1.89192e-06,5.00441e-05,5.26372e-05,2.01093e-05,3.00807e-05
341,7.3831e-06,-1.13948e-05,5.2638e-05,4.93696e-05,1.5817e-05,2.30945e-05
342,3.36398e-06,-1.10363e-05,5.67743e-05,4.69815e-05,1.24183e-05,2.05768e-05
343,3.31092e-06,2.03806e-07,5.94745e-05,4.85686e-05,1.16741e-05,2.60873e-05
344,7.68643e-06,8.81052e-06,5.60906e-05,5.33915e-05,1.35711e-05,3.543e-05
345,1.23729e-05,6.40142e-06,4.99552e-05,5.66901e-05,1.61486e-05,4.00639e-05
346,1.26058e-05,-2.67636e-06,5.08369e-05,5.42381e-05,1.51213e-05,3.58574e-05
347,8.12042e-06,-1.43069e-05,5.70724e-05,4.58027e-05,1.38015e-05,2.60111e-05
348,5.33067e-06,-1.9032e-05,5.96808e-05,3.82177e-05,1.58367e-05,1.95018e-05
349,8.18532e-06,-9.97478e-06,5.89409e-05,3.87726e-05,1.41123e-05,2.16305e-05
350,1.1813e-05,4.60329e-06,5.9714e-05,4.58015e-05,9.29352e-06,3.05452e-05
351,1.26392e-05,1.14463e-05,6.09787e-05,5.17063e-05,8.63353e-06,3.82642e-05
352,1.36581e-05,8.92198e-06,5.89568e-05,5.19064e-05,9.32699e-06,4.13611e-05
353,1.76449e-05,-5.76222e-06,5.27857e-05,4.59433e-05,9.08017e-06,3.97682e-05
354,2.32161e-05,-1.95533e-05,4.82606e-05,4.08468e-05,9.0491e-06,3.71166e-05
355,2.44405e-05,-1.40415e-05,5.02132e-05,4.58644e-05,1.14889e-05,3.93581e-05
356,2.35256e-05,-3.66247e-06,5.49588e-05,4.91483e-05,1.64002e-05,4.05251e-05
357,2.39216e-05,-1.22784e-06,5.87735e-05,4.54603e-05,2.06945e-05,3.91894e-05
358,2.35889e-05,-3.46107e-07,5.86241e-05,4.75503e-05,2.09498e-05,4.11213e-05
359,2.37283e-05,1.15917e-06,5.38257e-05,5.34774e-05,2.01735e-05,4.52088e-05
360,2.50078e-05,3.03346e-06,4.78575e-05,5.63606e-05,2.03512e-05,4.97686e-05
361,2.37766e-05,-9.79607e-07,4.79698e-05,5.0967e-05,1.9201e-05,4.88793e-05
362,1.8991e-05,-1.32695e-05,5.38834e-05,4.17309e-05,1.61005e-05,4.17649e-05
363,1.41254e-05,-1.92728e-05,5.93767e-05,3.89013e-05,1.3852e-05,3.92071e-05
364,1.16155e-05,-1.13161e-05,6.09127e-05,4.45939e-05,1.60054e-05,4.45578e-05
365,1.34718e-05,-2.88651e-06,5.67759e-05,5.02578e-05,2.11126e-05,4.98875e-05
366,1.74302e-05,-1.69069e-06,4.89767e-05,4.92042e-05,2.34942e-05,5.05623e-05
367,1.80581e-05,-8.99272e-06,4.61549e-05,4.45572e-05,2.05748e-05,4.75937e-05
368,1.63619e-05,-2.08949e-05,5.21512e-05,4.08216e-05,1.78191e-05,4.38533e-05
369,1.84669e-05,-2.49787e-05,5.89805e-05,4.05243e-05,1.80435e-05,4.23902e-05
370,2.2019e-05,-1.48617e-05,6.03438e-05,4.20187e-05,1.89988e-05,4.53819e-05
371,2.17172e-05,-7.95144e-07,5.47003e-05,4.20066e-05,1.90032e-05,5.1348e-05
372,1.92939e-05,5.27963e-06,4.55587e-05,4.0296e-05,1.82567e-05,5.58942e-05
373,1.64851e-05,9.43675e-07,4.30677e-05,3.79047e-05,1.54598e-05,5.51537e-05
374,1.05794e-05,-1.19718e-05,4.94397e-05,3.31854e-05,1.13927e-05,5.06219e-05
375,3.10291e-06,-2.1412e-05,5.46618e-05,3.17387e-05,1.04253e-05,4.98202e-05
376,2.12807e-06,-1.65268e-05,5.49835e-05,3.83339e-05,1.19972e-05,5.38414e-05
377,8.70891e-06,-4.2415e-06,5.35642e-05,4.46252e-05,1.12217e-05,5.47797e-05
378,1.39009e-05,2.36538e-06,5.52601e-05,4.3396e-05,1.16887e-05,4.94997e-05
379,1.34495e-05,-9.56663e-07,5.71529e-05,3.90196e-05,1.39499e-05,4.33519e-05
380,1.05362e-05,-1.65541e-05,5.47387e-05,3.51895e-05,1.39901e-05,4.01167e-05
381,9.56525e-06,-3.17674e-05,5.08725e-05,3.40228e-05,1.16332e-05,4.19185e-05
382,9.98672e-06,-2.64447e-05,5.22517e-05,4.0386e-05,8.7658e-06,4.61747e-05
383,9.78213e-06,-1.12172e-05,5.74477e-05,4.71843e-05,7.85472e-06,4.79529e-05
384,8.65614e-06,-2.71238e-06,6.16147e-05,4.88899e-05,9.73896e-06,4.87179e-05
385,8.2495e-06,1.74585e-06,6.12124e-05,5.00079e-05,1.26871e-05,4.88614e-05
386,9.44621e-06,3.3787e-06,5.32568e-05,5.09729e-05,1.41736e-05,4.86105e-05
387,8.61522e-06,2.70554e-06,4.21891e-05,5.18878e-05,1.27584e-05,5.04594e-05
388,4.77781e-06,-6.42081e-06,3.79051e-05,4.9854e-05,1.03033e-05,4.84404e-05
389,3.34387e-06,-2.27237e-05,4.32353e-05,4.46609e-05,1.04369e-05,4.12985e-05
390,5.48844e-06,-2.80663e-05,5.11435e-05,4.34747e-05,1.2193e-05,3.48704e-05
391,6.74129e-06,-1.5608e-05,5.41823e-05,4.97964e-05,1.33826e-05,3.44812e-05
392,6.13163e-06,-6.4999e-07,4.97046e-05,5.42219e-05,1.48494e-05,3.83522e-05
393,6.0952e-06,8.04139e-06,4.36646e-05,5.16439e-05,1.68967e-05,4.12677e-05
394,6.90596e-06,6.36725e-06,4.54926e-05,4.5037e-05,1.7183e-05,3.93744e-05
395,8.18144e-06,-6.64526e-06,5.56955e-05,3.84714e-05,1.71332e-05,3.25433e-05
396,8.23587e-06,-1.64157e-05,6.38698e-05,3.71516e-05,1.85269e-05,3.14793e-05
397,6.63081e-06,-1.00603e-05,6.34269e-05,4.12867e-05,1.75434e-05,4.03563e-05
398,1.02002e-05,3.45865e-06,5.38182e-05,4.57367e-05,1.27113e-05,5.02139e-05
399,1.91128e-05,8.49345e-06,4.27805e-05,4.69788e-05,8.87022e-06,5.44248e-05
400,2.17039e-05,3.02357e-06,4.24304e-05,4.46026e-05,8.57871e-06,5.26818e-05
401,1.54046e-05,-7.26986e-06,5.1456e-05,3.83903e-05,9.56205e-06,4.48707e-05
402,8.71529e-06,-1.15578e-05,5.75511e-05,3.54825e-05,1.08982e-05,3.73312e-05
403,6.98911e-06,-3.83893e-06,5.66317e-05,4.23271e-05,1.32107e-05,3.58614e-05
404,9.92047e-06,7.98482e-06,5.44049e-05,5.16288e-05,1.42533e-05,3.77961e-05
405,9.3471e-06,1.32553e-05,5.45099e-05,5.37138e-05,1.30113e-05,3.83449e-05
406,6.04903e-06,1.09344e-05,5.29469e-05,5.2943e-05,1.17689e-05,3.56422e-05
407,7.48255e-06,-3.37527e-06,4.64192e-05,4.96851e-05,1.34461e-05,2.90145e-05
408,1.29457e-05,-1.78957e-05,3.95748e-05,4.55614e-05,1.49198e-05,2.45855e-05
409,1.31827e-05,-1.14427e-05,4.27974e-05,4.80545e-05,1.35903e-05,2.72448e-05
410,8.2613e-06,1.2113e-06,5.26017e-05,5.3851e-05,1.14691e-05,3.13905e-05
411,5.84558e-06,6.21444e-06,5.729e-05,5.60861e-05,1.05434e-05,3.27483e-05
412,6.98613e-06,9.90237e-06,5.50155e-05,5.57974e-05,1.21797e-05,3.13705e-05
413,1.10932e-05,1.19587e-05,4.96635e-05,5.73894e-05,1.64081e-05,3.06126e-05
414,1.53421e-05,1.05525e-05,4.57337e-05,6.03668e-05,1.99358e-05,3.22603e-05
415,1.58685e-05,3.48734e-07,4.73048e-05,5.96784e-05,2.01984e-05,3.2169e-05
416,1.33407e-05,-1.70713e-05,5.15777e-05,5.44895e-05,1.85613e-05,2.56867e-05
417,1.19256e-05,-2.53394e-05,5.29774e-05,5.32847e-05,1.77046e-05,1.97029e-05
418,1.14337e-05,-1.6014e-05,5.15297e-05,5.86639e-05,1.85331e-05,2.09675e-05
419,1.00288e-05,-2.69736e-06,4.66571e-05,6.45362e-05,1.94959e-05,2.54433e-05
420,8.7698e-06,1.72763e-06,4.06655e-05,6.63437e-05,1.93005e-05,2.71896e-05
421,1.08549e-05,-6.06472e-06,4.1381e-05,6.14138e-05,1.72473e-05,2.55595e-05
422,1.52391e-05,-1.95208e-05,4.85511e-05,5.134e-05,1.55779e-05,2.36558e-05
423,1.71047e-05,-2.59326e-05,5.4361e-05,4.59836e-05,1.77804e-05,2.60589e-05
424,1.4912e-05,-1.87344e-05,5.56761e-05,5.06185e-05,2.20115e-05,3.23543e-05
425,1.25196e-05,-6.55889e-06,5.24879e-05,5.78382e-05,2.40163e-05,3.52702e-05
426,1.21239e-05,-3.25321e-07,4.80467e-05,5.99182e-05,2.37862e-05,3.2991e-05
427,1.1939e-05,-2.25972e-06,4.98158e-05,5.58073e-05,2.06049e-05,2.83127e-05
428,1.04296e-05,-1.15884e-05,5.7707e-05,4.86188e-05,1.69099e-05,2.30292e-05
429,1.11049e-05,-1.78815e-05,6.20302e-05,4.43378e-05,1.51543e-05,2.14559e-05
430,1.43272e-05,-1.09621e-05,6.00998e-05,4.66522e-05,1.49409e-05,2.72864e-05
431,1.55788e-05,2.09278e-06,5.75797e-05,5.24546e-05,1.66146e-05,3.36444e-05
432,1.34577e-05,9.92762e-06,5.91459e-05,5.53088e-05,1.74318e-05,3.49569e-05
433,1.19803e-05,6.2223e-06,5.91154e-05,5.40868e-05,1.60509e-05,3.25387e-05
434,1.41036e-05,-1.31716e-05,5.38879e-05,5.00026e-05,1.55419e-05,2.79356e-05
435,1.69668e-05,-2.93398e-05,4.8539e-05,4.77706e-05,1.45058e-05,2.56087e-05
436,1.71189e-05,-2.17998e-05,4.98823e-05,5.23696e-05,1.17514e-05,3.08159e-05
437,1.5112e-05,-7.25678e-06,5.59444e-05,5.89148e-05,1.13124e-05,3.58554e-05
438,1.50697e-05,6.29403e-07,5.97355e-05,6.26629e-05,1.3944e-05,3.44653e-05
439,1.67673e-05,4.60627e-06,5.76424e-05,6.28072e-05,1.48896e-05,3.20078e-05
440,1.88609e-05,4.05661e-06,5.01781e-05,6.15721e-05,1.26074e-05,3.21352e-05
441,1.90989e-05,3.20631e-06,4.33996e-05,6.01248e-05,1.00168e-05,3.49595e-05
442,1.53394e-05,-3.54802e-06,4.42797e-05,5.65608e-05,8.43474e-06,3.37876e-05
443,1.10502e-05,-1.619e-05,5.12997e-05,4.87293e-05,8.62136e-06,2.89937e-05
444,9.95197e-06,-1.96397e-05,5.77304e-05,4.42768e-05,1.08591e-05,2.96741e-05
445,1.0907e-05,-7.4354e-06,5.9564e-05,5.0307e-05,1.41766e-05,3.49101e-05
446,1.18981e-05,4.51603e-06,5.41921e-05,5.94939e-05,1.68613e-05,3.61584e-05
447,1.25752e-05,7.57597e-06,4.59748e-05,6.25718e-05,1.74648e-05,3.35899e-05
448,1.30089e-05,2.1139e-06,4.53406e-05,5.7071e-05,1.62311e-05,3.11538e-05
449,1.55706e-05,-1.09231e-05,5.18345e-05,4.84731e-05,1.73003e-05,2.91916e-05
450,1.96898e-05,-1.98887e-05,5.46019e-05,4.53609e-05,2.277e-05,2.84313e-05
451,2.05211e-05,-1.37364e-05,5.18018e-05,4.98711e-05,2.4981e-05,3.17981e-05
452,1.6992e-05,-2.34191e-07,4.77337e-05,5.62545e-05,1.75938e-05,3.86171e-05
453,1.46585e-05,5.17631e-06,4.63571e-05,5.9534e-05,8.18902e-06,4.34875e-05
454,1.39788e-05,-1.28027e-06,4.94236e-05,5.71034e-05,5.96773e-06,4.22336e-05
455,1.28788e-05,-1.54972e-05,5.60785e-05,5.06551e-05,8.82103e-06,3.58589e-05
456,1.46333e-05,-2.37695e-05,6.10547e-05,4.84576e-05,1.19e-05,3.34371e-05
457,1.77668e-05,-1.58746e-05,6.19194e-05,5.44171e-05,1.29964e-05,4.01524e-05
458,1.84188e-05,-7.24787e-07,6.11802e-05,6.08591e-05,1.11908e-05,4.64448e-05
459,1.77297e-05,7.55625e-06,6.32874e-05,6.09785e-05,9.94173e-06,4.40292e-05
460,2.05903e-05,5.80362e-06,6.45466e-05,5.72049e-05,1.21443e-05,3.97164e-05
461,2.52547e-05,-1.1176e-05,5.7223e-05,5.14614e-05,1.57686e-05,3.87635e-05
462,2.66502e-05,-2.68426e-05,4.7902e-05,4.71793e-05,1.52204e-05,4.10266e-05
463,2.1508e-05,-1.75728e-05,4.83724e-05,5.20226e-05,1.17247e-05,4.26546e-05
464,1.33355e-05,-3.17293e-06,5.53805e-05,5.95777e-05,1.04523e-05,4.11214e-05
465,8.74512e-06,7.96865e-07,5.99326e-05,6.24683e-05,1.14455e-05,4.02901e-05
466,9.63156e-06,2.22538e-06,5.83635e-05,6.07022e-05,1.35301e-05,4.45712e-05
467,1.369e-05,2.89416e-06,5.15015e-05,5.90836e-05,1.62951e-05,5.19108e-05
468,1.51238e-05,2.5953e-06,4.58225e-05,5.80068e-05,1.74152e-05,5.48976e-05
469,1.29274e-05,-5.36194e-06,4.84373e-05,5.08611e-05,1.61337e-05,5.13042e-05
470,1.25773e-05,-1.9376e-05,5.64445e-05,4.03954e-05,1.55685e-05,4.55574e-05
471,1.58532e-05,-2.43217e-05,6.09166e-05,3.55804e-05,1.7034e-05,4.33437e-05
472,1.74067e-05,-1.39566e-05,5.82394e-05,3.9741e-05,1.8079e-05,4.21242e-05
473,1.60151e-05,-1.21454e-06,4.96944e-05,4.74982e-05,1.74025e-05,3.98164e-05
474,1.39998e-05,3.95673e-06,4.16227e-05,5.39601e-05,1.67997e-05,3.90057e-05
475,1.20053e-05,-2.3241e-06,4.122e-05,5.47703e-05,1.65278e-05,3.95651e-05
476,1.04465e-05,-1.6157e-05,4.71863e-05,4.98521e-05,1.63486e-05,3.79385e-05
477,1.07337e-05,-2.43323e-05,5.20043e-05,4.65283e-05,1.57459e-05,3.53708e-05
478,1.14518e-05,-1.75736e-05,5.38061e-05,4.9897e-05,1.43445e-05,3.55403e-05
479,1.19013e-05,-5.2352e-06,5.24998e-05,5.47063e-05,1.2088e-05,3.71217e-05
480,1.05992e-05,-1.02135e-06,4.86006e-05,5.52482e-05,8.65314e-06,3.72335e-05
481,5.1036e-06,-7.78086e-06,4.71043e-05,5.14134e-05,5.65491e-06,3.2204e-05
482,1.95484e-06,-2.13438e-05,4.95787e-05,4.45623e-05,6.17353e-06,2.49213e-05
483,5.54883e-06,-2.75748e-05,5.22945e-05,3.90769e-05,1.27251e-05,2.47564e-05
484,9.37849e-06,-1.68262e-05,5.23242e-05,4.17355e-05,1.67634e-05,3.21135e-05
485,8.8918e-06,-1.50545e-06,4.9384e-05,5.12988e-05,1.12001e-05,3.74859e-05
486,5.75082e-06,3.33803e-06,4.82796e-05,5.83845e-05,5.57092e-06,3.81505e-05
487,2.60133e-06,-1.75264e-06,4.96977e-05,5.86693e-05,7.04633e-06,3.64201e-05
488,3.39866e-06,-1.74636e-05,5.06177e-05,5.35643e-05,1.38263e-05,3.37523e-05
489,7.09704e-06,-2.87773e-05,5.00316e-05,4.84921e-05,1.77986e-05,3.46861e-05
490,7.86363e-06,-2.03614e-05,5.37525e-05,5.29886e-05,1.51434e-05,3.8623e-05
491,5.82905e-06,-7.75832e-06,5.97439e-05,5.90374e-05,1.16727e-05,3.8374e-05
492,4.53952e-06,-3.02842e-06,6.24097e-05,5.75351e-05,1.43345e-05,3.48266e-05
493,6.92728e-06,6.64777e-07,6.10065e-05,5.39269e-05,1.99829e-05,3.2178e-05
494,1.14859e-05,3.27544e-06,5.45023e-05,5.18563e-05,2.26108e-05,3.14263e-05
495,1.34939e-05,5.00598e-06,4.91786e-05,5.14776e-05,2.23013e-05,3.34562e-05
496,1.02672e-05,-2.11995e-07,5.18615e-05,4.75596e-05,2.21637e-05,3.59084e-05
497,5.90584e-06,-1.49428e-05,5.99959e-05,4.11341e-05,2.23902e-05,3.57128e-05
498,4.93177e-06,-2.17617e-05,6.45026e-05,3.96525e-05,2.16292e-05,3.48788e-05
499,7.03865e-06,-1.19477e-05,6.29462e-05,4.35608e-05,2.15953e-05,3.68663e-05
500,1.08749e-05,1.88992e-06,5.67913e-05,4.76981e-05,2.30439e-05,3.88773e-05
501,1.46764e-05,1.02779e-05,4.96992e-05,5.11368e-05,2.3577e-05,3.81266e-05
502,1.42893e-05,6.77934e-06,4.70947e-05,5.14331e-05,2.25777e-05,3.36653e-05
503,8.24955e-06,-8.31362e-06,5.1269e-05,4.71785e-05,2.22283e-05,2.68896e-05
504,3.9422e-06,-1.8589e-05,5.70753e-05,4.32796e-05,2.13786e-05,2.58684e-05
505,5.99293e-06,-1.31765e-05,5.92964e-05,4.58291e-05,2.04839e-05,3.16731e-05
506,1.23276e-05,-1.26581e-06,5.67259e-05,5.04653e-05,2.01976e-05,3.57234e-05
507,1.85211e-05,3.37304e-06,5.1242e-05,5.04292e-05,1.93778e-05,3.53095e-05
508,1.74782e-05,-2.83063e-06,4.85176e-05,4.63004e-05,1.8506e-05,3.46935e-05
509,1.08744e-05,-1.57658e-05,5.2076e-05,4.0903e-05,1.85167e-05,3.5533e-05
510,7.75781e-06,-2.1711e-05,5.85459e-05,3.89831e-05,1.98169e-05,3.88491e-05
511,6.79898e-06,-1.24116e-05,6.1996e-05,4.44304e-05,2.11363e-05,4.37833e-05
512,6.72943e-06,1.47577e-06,6.05197e-05,5.30096e-05,2.1052e-05,4.36056e-05
513,6.19619e-06,7.08337e-06,5.59031e-05,5.68505e-05,2.26404e-05,3.80542e-05
514,4.83115e-06,2.54465e-06,5.11178e-05,5.66211e-05,2.34181e-05,3.27224e-05
515,5.44604e-06,-1.23095e-05,4.67695e-05,5.13728e-05,2.08716e-05,3.04492e-05
516,6.87125e-06,-2.25236e-05,4.34282e-05,4.45536e-05,1.57575e-05,3.31943e-05
517,8.52607e-06,-1.23544e-05,4.42503e-05,4.59376e-05,1.04347e-05,3.9894e-05
518,1.06881e-05,-3.95443e-07,4.75396e-05,4.80973e-05,1.02019e-05,4.16469e-05
519,1.17641e-05,1.68538e-06,5.15047e-05,4.79889e-05,1.61615e-05,3.88334e-05
520,1.01184e-05,2.76293e-06,5.45849e-05,5.27989e-05,2.1372e-05,3.9215e-05
521,8.91673e-06,3.22306e-06,5.30721e-05,5.74739e-05,2.16383e-05,4.05796e-05
522,1.17806e-05,3.77136e-06,4.84863e-05,5.84712e-05,1.96031e-05,3.95714e-05
523,1.70127e-05,-1.24668e-06,4.76237e-05,5.6114e-05,1.78764e-05,3.55819e-05
524,2.08709e-05,-1.35671e-05,5.25639e-05,5.32319e-05,1.77467e-05,3.21443e-05
525,2.26044e-05,-1.66706e-05,5.74883e-05,5.3465e-05,1.85373e-05,3.27841e-05
526,2.26072e-05,-4.11298e-06,5.75098e-05,5.84736e-05,1.89413e-05,3.77954e-05
527,2.18228e-05,8.57043e-06,5.17314e-05,6.37787e-05,1.79883e-05,4.1973e-05
528,2.18916e-05,1.15801e-05,4.43753e-05,6.64971e-05,1.60491e-05,4.10568e-05
529,2.15383e-05,1.55932e-06,4.33582e-05,6.51349e-05,1.41029e-05,3.47661e-05
530,1.94456e-05,-1.44567e-05,5.09136e-05,5.92037e-05,1.35029e-05,2.72483e-05
531,1.92146e-05,-2.07031e-05,5.86995e-05,5.3743e-05,1.36598e-05,2.54486e-05
532,2.3063e-05,-9.86011e-06,6.11098e-05,5.30865e-05,1.26657e-05,3.02783e-05
533,2.65382e-05,5.79657e-06,5.8418e-05,5.4739e-05,1.19821e-05,3.6663e-05
534,2.47993e-05,1.27087e-05,5.1721e-05,5.63588e-05,1.28749e-05,3.89306e-05
535,1.97084e-05,8.29505e-06,4.80363e-05,5.75913e-05,1.13066e-05,3.55996e-05
536,1.60083e-05,-4.49645e-06,5.09716e-05,5.50676e-05,8.44559e-06,2.9074e-05
537,1.58916e-05,-1.07619e-05,5.39631e-05,5.06587e-05,7.53607e-06,2.51871e-05
538,1.6515e-05,4.3386e-07,5.49379e-05,5.17946e-05,7.1957e-06,2.7936e-05
539,1.43635e-05,1.63558e-05,5.52289e-05,5.96541e-05,6.83627e-06,3.45022e-05
540,1.15319e-05,1.86847e-05,5.5748e-05,6.64889e-05,8.8824e-06,3.68601e-05
541,1.18545e-05,5.74037e-06,5.60502e-05,6.49176e-05,1.20247e-05,3.31928e-05
542,1.66021e-05,-1.8408e-05,5.10077e-05,5.45598e-05,1.33035e-05,2.73045e-05
543,2.04144e-05,-3.48825e-05,4.34739e-05,4.92012e-05,1.29368e-05,2.59283e-05
544,1.80604e-05,-2.53318e-05,4.40131e-05,5.68874e-05,1.25106e-05,3.16763e-05
545,1.24795e-05,-7.68178e-06,5.04394e-05,6.28949e-05,1.07214e-05,3.88413e-05
546,7.92648e-06,-1.23939e-06,5.43628e-05,5.87393e-05,7.18564e-06,4.36117e-05
547,7.03517e-06,-2.88441e-07,5.12675e-05,5.61902e-05,4.19853e-06,4.32765e-05
548,1.08909e-05,-1.48999e-06,4.22444e-05,5.96471e-05,3.85837e-06,3.7654e-05
549,1.50731e-05,-3.75563e-06,3.56667e-05,6.51773e-05,7.42119e-06,3.36683e-05
550,1.49409e-05,-1.2429e-05,3.88435e-05,6.42811e-05,1.39665e-05,3.3332e-05
551,1.31954e-05,-2.50493e-05,4.84861e-05,5.53844e-05,1.8743e-05,3.16619e-05
552,1.33611e-05,-2.70385e-05,5.5791e-05,4.85445e-05,1.9321e-05,2.9497e-05
553,1.5166e-05,-1.43259e-05,5.61968e-05,5.17381e-05,1.90102e-05,3.26108e-05
554,1.58424e-05,-1.1346e-06,4.99435e-05,6.03916e-05,1.91858e-05,3.80193e-05
555,1.39989e-05,2.73139e-06,4.31591e-05,6.56271e-05,1.79625e-05,3.93191e-05
556,9.53646e-06,-2.72722e-06,4.33917e-05,6.35263e-05,1.54026e-05,3.40901e-05
557,6.04564e-06,-1.40966e-05,4.84132e-05,5.64738e-05,1.53138e-05,2.62065e-05
558,5.93592e-06,-1.99562e-05,5.2439e-05,5.29772e-05,1.64937e-05,2.46391e-05
559,5.91043e-06,-1.2317e-05,5.52501e-05,5.61565e-05,1.61978e-05,3.20553e-05
560,5.95929e-06,-9.54788e-09,5.30746e-05,5.98276e-05,1.57948e-05,4.12638e-05
561,7.86586e-06,4.35021e-06,4.55416e-05,5.85345e-05,1.62363e-05,4.48631e-05
562,1.02922e-05,-3.16383e-06,4.25288e-05,5.25869e-05,1.61758e-05,4.19019e-05
563,1.06651e-05,-1.96805e-05,4.78864e-05,4.4696e-05,1.54836e-05,3.58963e-05
564,1.09742e-05,-2.84399e-05,5.28018e-05,4.25925e-05,1.70621e-05,3.28837e-05
565,1.148e-05,-1.94752e-05,5.13941e-05,4.84627e-05,1.99746e-05,3.42015e-05
566,1.08056e-05,-5.18787e-06,4.8842e-05,5.41771e-05,1.90713e-05,3.80462e-05
567,1.00888e-05,3.36114e-07,5.09556e-05,5.53778e-05,1.63907e-05,4.23022e-05
568,9.9044e-06,-3.67275e-06,5.23947e-05,5.52636e-05,1.75635e-05,4.24858e-05
569,1.21941e-05,-1.66058e-05,4.82925e-05,5.17926e-05,2.11661e-05,3.56749e-05
570,1.48481e-05,-2.48464e-05,4.34383e-05,4.82823e-05,2.05679e-05,3.09836e-05
571,1.3268e-05,-1.46351e-05,4.53055e-05,5.21085e-05,1.66842e-05,3.44293e-05
572,9.72401e-06,-1.97391e-06,4.9406e-05,5.68041e-05,1.37518e-05,4.03754e-05
573,7.48414e-06,7.61247e-07,5.05482e-05,5.72185e-05,1.44594e-05,4.49899e-05
574,6.51708e-06,-5.65579e-07,5.0956e-05,5.65839e-05,1.76072e-05,4.66323e-05
575,8.04726e-06,5.65008e-08,5.03339e-05,5.65515e-05,1.90867e-05,4.39498e-05
576,1.18402e-05,3.75898e-06,4.74922e-05,5.82986e-05,1.72841e-05,4.00547e-05
577,1.54674e-05,-8.32806e-08,4.66077e-05,5.70123e-05,1.38416e-05,3.57232e-05
578,1.7578e-05,-1.25259e-05,5.07602e-05,5.06225e-05,1.25878e-05,3.05198e-05
579,1.82463e-05,-1.5189e-05,5.68094e-05,4.63086e-05,1.42947e-05,3.01535e-05
580,1.7796e-05,-1.12944e-06,6.07751e-05,4.93309e-05,1.55891e-05,3.39615e-05
581,1.75566e-05,1.1722e-05,5.96374e-05,5.57152e-05,1.41963e-05,3.71021e-05
582,1.91192e-05,1.18818e-05,5.4889e-05,5.97971e-05,1.16818e-05,3.80592e-05
583,1.95312e-05,1.61477e-06,5.35714e-05,5.81781e-05,9.74073e-06,3.62043e-05
584,1.60005e-05,-1.01805e-05,5.81924e-05,5.22626e-05,1.02781e-05,3.34447e-05
585,1.05564e-05,-1.23748e-05,6.0969e-05,4.99467e-05,1.35186e-05,3.44922e-05
586,7.3588e-06,-4.4631e-06,6.04587e-05,5.51225e-05,1.64877e-05,4.03999e-05
587,9.6155e-06,1.43139e-06,5.86188e-05,6.03541e-05,1.5168e-05,4.50042e-05
588,1.52609e-05,-3.94103e-07,5.67182e-05,5.83418e-05,1.15559e-05,4.39682e-05
589,1.8298e-05,-6.5848e-06,5.8145e-05,5.19875e-05,9.21379e-06,3.92028e-05
590,1.68583e-05,-1.52271e-05,6.06151e-05,4.63016e-05,1.04685e-05,3.4979e-05
591,1.4914e-05,-1.94157e-05,6.223e-05,4.56427e-05,1.66685e-05,3.43678e-05
592,1.53967e-05,-1.12964e-05,6.45856e-05,5.14836e-05,2.15527e-05,3.72589e-05
593,1.52286e-05,2.16235e-06,6.61487e-05,5.7747e-05,2.21951e-05,3.9646e-05
594,1.27815e-05,8.06902e-06,6.68254e-05,5.84486e-05,2.09768e-05,4.01954e-05
595,9.15129e-06,4.20323e-06,6.40476e-05,5.43984e-05,1.77524e-05,3.88825e-05
596,5.87077e-06,-1.11839e-05,5.54346e-05,4.66606e-05,1.67818e-05,3.46461e-05
597,4.4154e-06,-2.54874e-05,4.7151e-05,4.27584e-05,1.75618e-05,3.50461e-05
598,2.83313e-06,-1.86731e-05,4.7217e-05,4.94255e-05,1.56524e-05,4.33121e-05
599,1.31007e-06,-5.04055e-06,5.16507e-05,5.53743e-05,1.30693e-05,4.78667e-05
600,-3.35638e-07,-1.05862e-06,5.5448e-05,5.42796e-05,1.26049e-05,4.56975e-05
601,-1.20023e-06,-1.91675e-07,5.7798e-05,5.31346e-05,1.25986e-05,4.34779e-05
602,1.28466e-06,-1.14068e-07,5.62185e-05,5.28348e-05,1.19692e-05,4.31655e-05
603,5.61707e-06,8.68435e-08,5.09206e-05,5.35942e-05,1.11921e-05,4.40101e-05
604,6.1104e-06,-8.15309e-06,4.70627e-05,5.26809e-05,9.52037e-06,4.19686e-05
605,3.01495e-06,-2.42225e-05,4.88961e-05,4.99542e-05,7.17291e-06,3.66369e-05
606,1.70593e-06,-2.79397e-05,5.43603e-05,4.90083e-05,6.28921e-06,3.39584e-05
607,3.13774e-06,-1.29766e-05,5.76438e-05,4.99644e-05,8.3814e-06,3.61341e-05
608,6.86064e-06,2.25483e-06,5.34055e-05,5.1627e-05,1.18844e-05,3.94604e-05
609,1.1535e-05,5.2568e-06,4.47113e-05,5.33148e-05,1.41189e-05,4.13518e-05
610,1.30866e-05,-4.86538e-06,4.14173e-05,5.23455e-05,1.4202e-05,3.82382e-05
611,1.14707e-05,-2.00262e-05,4.60867e-05,4.83943e-05,1.42693e-05,3.04172e-05
612,1.21472e-05,-2.54881e-05,5.10507e-05,4.5733e-05,1.57477e-05,2.63364e-05
613,1.6188e-05,-1.70136e-05,5.2709e-05,4.74114e-05,1.6832e-05,3.20614e-05
614,1.90351e-05,-5.14565e-06,5.11933e-05,5.08953e-05,1.60562e-05,4.03072e-05
615,1.76377e-05,4.09874e-08,4.61465e-05,5.16888e-05,1.47568e-05,4.23639e-05
616,1.35675e-05,-3.40077e-06,4.27898e-05,4.88998e-05,1.30748e-05,3.81434e-05
617,1.07727e-05,-1.44588e-05,4.83893e-05,4.34574e-05,1.19655e-05,3.17634e-05
618,8.87927e-06,-1.96309e-05,5.70621e-05,4.15995e-05,1.57355e-05,2.92673e-05
619,8.71193e-06,-7.95188e-06,5.63699e-05,4.60293e-05,2.12194e-05,3.40632e-05
620,1.26734e-05,8.26457e-06,5.01786e-05,5.0153e-05,2.21611e-05,4.05924e-05
621,1.65926e-05,1.50156e-05,4.8772e-05,5.16871e-05,1.93789e-05,4.12235e-05
622,2.04453e-05,1.0927e-05,4.82557e-05,5.27935e-05,1.34349e-05,3.70196e-05
623,2.65321e-05,-5.25986e-06,4.4484e-05,5.08045e-05,1.02028e-05,3.02118e-05
624,3.26625e-05,-1.88496e-05,4.03347e-05,4.8481e-05,1.05996e-05,2.48386e-05
625,3.19365e-05,-1.13992e-05,4.16685e-05,5.13483e-05,9.17318e-06,2.47178e-05
626,2.73867e-05,3.33801e-06,4.58571e-05,5.3218e-05,9.22552e-06,2.70338e-05
627,2.44356e-05,8.06756e-06,4.98333e-05,5.32514e-05,1.38068e-05,3.26423e-05
628,2.20204e-05,6.03286e-06,5.10302e-05,5.77625e-05,1.8017e-05,4.1927e-05
629,2.21658e-05,-9.34378e-08,4.62899e-05,6.16504e-05,1.75529e-05,4.79989e-05
630,2.51552e-05,-3.72665e-06,4.07451e-05,6.15063e-05,1.25164e-05,4.97144e-05
631,2.58323e-05,-7.68446e-06,4.18161e-05,5.66041e-05,7.44792e-06,4.82105e-05
632,2.29436e-05,-1.66346e-05,4.89675e-05,5.17554e-05,8.51828e-06,4.39123e-05
633,2.07377e-05,-2.05349e-05,5.46137e-05,5.33243e-05,1.45249e-05,3.97076e-05
634,2.12904e-05,-1.2448e-05,5.65832e-05,5.98043e-05,1.8483e-05,3.92953e-05
635,2.42357e-05,-1.08264e-06,5.56536e-05,6.55865e-05,1.82644e-05,4.16534e-05
636,2.61881e-05,4.34131e-06,5.32141e-05,6.83382e-05,1.72339e-05,4.28456e-05
637,2.26017e-05,-1.17243e-06,5.28736e-05,6.72126e-05,1.66051e-05,3.9565e-05
638,1.548e-05,-1.4348e-05,5.65316e-05,6.29424e-05,1.66101e-05,3.29795e-05
639,1.17206e-05,-2.00737e-05,5.96304e-05,5.96473e-05,1.72441e-05,3.02381e-05
640,1.25016e-05,-1.13472e-05,5.90735e-05,5.94709e-05,1.82073e-05,3.61448e-05
641,1.5078e-05,1.15566e-06,5.34143e-05,6.05435e-05,1.97644e-05,4.48421e-05
642,1.61092e-05,5.68561e-06,4.49988e-05,6.13313e-05,2.09464e-05,4.85288e-05
643,1.55651e-05,8.74312e-07,4.32852e-05,6.03549e-05,2.07081e-05,4.66594e-05
644,1.41951e-05,-1.02294e-05,5.09466e-05,5.54308e-05,2.09078e-05,4.36419e-05
645,1.39719e-05,-1.4753e-05,5.88653e-05,5.35521e-05,2.19604e-05,4.56395e-05
646,1.44921e-05,-4.83649e-06,6.00245e-05,6.02551e-05,2.25311e-05,5.18661e-05
647,1.33013e-05,6.77363e-06,5.69304e-05,6.9579e-05,2.17245e-05,5.49382e-05
648,1.0647e-05,6.74449e-06,5.67424e-05,7.21615e-05,2.22232e-05,5.36989e-05
649,9.1602e-06,2.47208e-07,5.85405e-05,6.82967e-05,2.48582e-05,5.14728e-05
650,1.00546e-05,-1.13923e-05,5.65902e-05,6.05114e-05,2.62007e-05,4.58302e-05
651,1.14512e-05,-1.82592e-05,5.05349e-05,5.49276e-05,2.29358e-05,4.19811e-05
652,1.05079e-05,-6.07116e-06,4.77806e-05,5.95562e-05,1.60369e-05,4.65331e-05
653,5.7929e-06,5.49373e-06,5.09996e-05,6.45245e-05,1.0817e-05,4.88219e-05
654,-7.76498e-07,6.64015e-06,5.53214e-05,6.20207e-05,9.63458e-06,4.5803e-05
655,-3.72236e-06,7.49185e-06,5.4976e-05,5.79407e-05,1.14816e-05,4.57555e-05
656,1.62159e-06,7.20074e-06,4.93662e-05,5.68079e-05,1.53228e-05,4.5716e-05
657,1.19357e-05,5.46454e-06,4.3797e-05,5.86587e-05,1.85453e-05,4.44963e-05
658,1.56981e-05,-2.73274e-06,4.54504e-05,5.65018e-05,1.75215e-05,3.98338e-05
659,1.03384e-05,-1.73167e-05,5.37095e-05,4.92307e-05,1.45296e-05,3.10409e-05
660,4.44608e-06,-2.21462e-05,5.99945e-05,4.49479e-05,1.46119e-05,2.53803e-05
661,4.68581e-06,-8.58992e-06,5.88408e-05,4.67523e-05,1.8572e-05,2.57977e-05
662,1.01179e-05,6.69514e-06,5.14175e-05,4.99129e-05,2.20239e-05,2.89303e-05
663,1.4349e-05,1.00589e-05,4.52625e-05,5.27287e-05,2.11941e-05,3.19875e-05
664,1.30839e-05,6.5405e-07,4.68278e-05,5.32078e-05,1.70878e-05,3.25675e-05
665,8.82715e-06,-1.49467e-05,5.35033e-05,4.96764e-05,1.36873e-05,2.81713e-05
666,6.57949e-06,-2.35894e-05,5.64915e-05,4.57216e-05,1.34273e-05,2.34059e-05
667,6.74719e-06,-1.69305e-05,5.52483e-05,4.59069e-05,1.41355e-05,2.60961e-05
668,9.98047e-06,-4.59119e-06,5.05601e-05,5.00188e-05,1.33239e-05,3.38893e-05
669,1.37016e-05,4.20558e-07,4.41451e-05,5.46148e-05,1.15978e-05,3.82748e-05
670,1.20677e-05,-4.2716e-06,4.36447e-05,5.55107e-05,9.48072e-06,3.66406e-05
671,7.25338e-06,-1.66402e-05,4.96985e-05,5.03771e-05,8.0591e-06,3.25201e-05
672,7.70935e-06,-2.40189e-05,5.58263e-05,4.56424e-05,1.32811e-05,3.19973e-05
673,1.28174e-05,-1.59683e-05,5.70871e-05,4.9578e-05,2.20821e-05,3.63767e-05
674,1.64085e-05,-1.63792e-06,5.47836e-05,5.75584e-05,2.61629e-05,4.05501e-05
675,1.63176e-05,4.15018e-06,5.45485e-05,5.82572e-05,2.65006e-05,4.05919e-05
676,1.53243e-05,-5.34568e-07,5.44731e-05,5.31567e-05,2.46289e-05,3.62163e-05
677,1.62567e-05,-1.39349e-05,5.16743e-05,4.73938e-05,2.3304e-05,2.87908e-05
678,1.58246e-05,-2.43906e-05,4.78334e-05,4.62717e-05,2.05472e-05,2.47065e-05
679,9.82105e-06,-1.73207e-05,4.90731e-05,5.36249e-05,1.54455e-05,2.90037e-05
680,5.0585e-06,-5.47137e-06,5.26793e-05,5.99594e-05,1.04893e-05,3.34219e-05
681,5.42774e-06,-2.9935e-06,5.44041e-05,6.03433e-05,8.32118e-06,3.35054e-05
682,6.72706e-06,-1.62135e-06,5.45045e-05,6.11058e-05,9.88698e-06,3.42664e-05
683,7.75055e-06,1.73695e-06,5.12678e-05,6.11845e-05,1.26557e-05,3.51805e-05
684,9.22375e-06,5.12292e-06,4.60903e-05,5.80598e-05,1.48222e-05,3.49323e-05
685,8.84118e-06,-4.22829e-07,4.65377e-05,5.10713e-05,1.54465e-05,3.06698e-05
686,6.05729e-06,-1.56405e-05,5.495e-05,4.46796e-05,1.63316e-05,2.42153e-05
687,3.76988e-06,-2.17041e-05,6.29886e-05,4.55508e-05,1.88688e-05,2.09279e-05
688,3.81876e-06,-1.04367e-05,6.47961e-05,5.20566e-05,2.29086e-05,2.28994e-05
689,6.24197e-06,2.0154e-06,6.12567e-05,5.68289e-05,2.42986e-05,2.54393e-05
690,9.64922e-06,4.60823e-06,5.79064e-05,5.6249e-05,2.13126e-05,2.58998e-05
691,1.23287e-05,-1.81097e-06,5.84354e-05,5.11094e-05,1.75822e-05,2.30591e-05
692,1.42008e-05,-1.24618e-05,6.09137e-05,4.56389e-05,1.68093e-05,1.90745e-05
693,1.62144e-05,-1.70161e-05,6.18532e-05,4.65833e-05,1.57826e-05,2.00522e-05
694,1.68182e-05,-1.11456e-05,6.20196e-05,5.37256e-05,1.32166e-05,2.60029e-05
695,1.59826e-05,-2.5595e-06,6.04402e-05,5.97015e-05,1.38202e-05,3.2497e-05
696,1.49137e-05,-4.44812e-07,5.5342e-05,6.04094e-05,1.66292e-05,3.66548e-05
697,1.26536e-05,-7.6825e-06,5.15835e-05,5.68766e-05,1.66617e-05,3.74067e-05
698,9.37249e-06,-2.16511e-05,5.66921e-05,5.06314e-05,1.49942e-05,3.37939e-05
699,8.218e-06,-2.93546e-05,6.34797e-05,4.88701e-05,1.7414e-05,3.20677e-05
700,9.93582e-06,-1.9956e-05,6.54904e-05,5.70559e-05,2.00473e-05,3.71312e-05
701,1.18807e-05,-4.39956e-06,6.34214e-05,6.76456e-05,1.76123e-05,4.51237e-05
702,1.00353e-05,3.43161e-07,6.26377e-05,7.14834e-05,1.55023e-05,4.8543e-05
703,8.16275e-06,-6.73901e-06,6.30196e-05,6.78582e-05,1.71793e-05,4.51452e-05
704,1.08489e-05,-2.38243e-05,5.7011e-05,5.92638e-05,2.04595e-05,3.72956e-05
705,1.64189e-05,-3.59293e-05,5.11983e-05,5.29629e-05,2.02634e-05,3.13291e-05
706,1.64303e-05,-2.53081e-05,5.28311e-05,5.33926e-05,1.51487e-05,3.23308e-05
707,9.67579e-06,-1.19658e-05,5.56836e-05,5.54847e-05,1.11024e-05,3.69287e-05
708,4.42799e-06,-1.21231e-05,5.36651e-05,5.89113e-05,1.25646e-05,4.08765e-05
709,6.09074e-06,-1.48989e-05,4.98563e-05,6.41413e-05,1.70308e-05,4.48917e-05
710,1.26551e-05,-1.58089e-05,4.66865e-05,6.68242e-05,1.88535e-05,4.65505e-05
711,1.6129e-05,-1.29662e-05,4.45128e-05,6.43987e-05,1.47872e-05,4.39244e-05
712,1.33393e-05,-1.50461e-05,4.58299e-05,5.61263e-05,8.14798e-06,3.82644e-05
713,8.06599e-06,-2.68906e-05,5.04801e-05,4.77875e-05,5.6967e-06,3.26848e-05
714,4.91169e-06,-3.41643e-05,5.52418e-05,4.66413e-05,1.03386e-05,3.21148e-05
715,5.3874e-06,-2.55167e-05,5.69332e-05,5.27791e-05,1.71923e-05,3.84919e-05
716,9.94464e-06,-1.1381e-05,5.27675e-05,5.90747e-05,1.91634e-05,4.50844e-05
717,1.54854e-05,-3.32389e-06,4.63969e-05,6.09582e-05,1.44231e-05,4.56531e-05
718,1.60335e-05,-6.55705e-06,4.66029e-05,5.87413e-05,6.99433e-06,4.08063e-05
719,1.22722e-05,-1.79812e-05,5.22042e-05,5.35852e-05,3.74894e-06,3.48997e-05
720,1.18112e-05,-2.32425e-05,5.52728e-05,4.93073e-05,6.33304e-06,3.32951e-05
721,1.44606e-05,-1.50258e-05,5.53255e-05,5.04962e-05,1.08829e-05,3.66659e-05
722,1.62227e-05,-4.0429e-06,5.26189e-05,5.46353e-05,1.37001e-05,3.97493e-05
723,1.68804e-05,-2.27936e-06,4.75071e-05,5.5896e-05,1.43835e-05,3.93682e-05
724,1.71184e-05,-9.10648e-06,4.71725e-05,5.17869e-05,1.37491e-05,3.67217e-05
725,1.66803e-05,-1.91428e-05,5.36489e-05,4.31351e-05,1.60074e-05,3.30437e-05
726,1.58483e-05,-2.24733e-05,5.70645e-05,3.75903e-05,2.37129e-05,3.11332e-05
727,1.48366e-05,-1.35375e-05,5.52518e-05,4.08216e-05,2.94879e-05,3.30304e-05
728,1.59052e-05,8.42692e-08,5.51621e-05,4.63832e-05,3.05997e-05,3.64559e-05
729,1.75016e-05,7.36478e-06,5.6801e-05,4.84181e-05,2.84943e-05,3.77391e-05
730,1.56744e-05,7.38021e-06,5.47863e-05,4.71564e-05,2.05949e-05,3.62498e-05
731,1.63485e-05,-5.03588e-06,4.65548e-05,4.16258e-05,9.92013e-06,3.1287e-05
732,2.09347e-05,-1.6743e-05,3.98116e-05,3.7328e-05,8.99814e-07,2.83921e-05
733,2.04647e-05,-8.42239e-06,4.2202e-05,3.9552e-05,-1.35697e-06,3.18148e-05
734,1.45896e-05,3.8575e-06,4.70316e-05,4.06716e-05,4.07892e-06,3.29068e-05
735,1.03743e-05,5.68322e-06,4.72073e-05,3.91793e-05,1.29334e-05,3.12773e-05
736,1.00753e-05,3.6118e-06,4.42997e-05,4.24135e-05,1.97883e-05,3.21543e-05
737,1.29723e-05,4.29237e-06,4.08642e-05,4.64696e-05,2.21844e-05,3.15359e-05
738,1.74561e-05,7.58175e-06,3.84216e-05,4.752e-05,2.07112e-05,3.2164e-05
739,1.89796e-05,3.32942e-06,4.25123e-05,4.4619e-05,1.66721e-05,3.42837e-05
740,1.49232e-05,-8.66536e-06,5.19444e-05,3.99098e-05,1.20702e-05,3.44904e-05
741,7.79577e-06,-1.2506e-05,5.7939e-05,3.95493e-05,9.41982e-06,3.57507e-05
742,3.20659e-06,-3.11614e-06,5.66436e-05,4.44365e-05,9.55546e-06,3.97087e-05
743,4.47139e-06,6.71071e-06,5.15512e-05,4.96146e-05,9.76133e-06,4.17571e-05
744,8.82081e-06,9.48039e-06,4.86896e-05,5.06999e-05,8.99823e-06,4.24749e-05
745,1.14267e-05,3.57807e-06,5.15803e-05,4.85629e-05,7.6712e-06,4.34029e-05
746,1.06988e-05,-6.03009e-06,5.71694e-05,4.48488e-05,7.67579e-06,4.26399e-05
747,9.50174e-06,-7.52597e-06,5.96515e-05,4.25696e-05,1.09558e-05,4.24351e-05
748,1.07014e-05,2.51369e-06,5.84541e-05,4.57236e-05,1.55064e-05,4.60137e-05
749,1.37305e-05,1.20472e-05,5.52743e-05,5.18724e-05,1.62783e-05,5.09086e-05
750,1.67337e-05,1.10635e-05,5.13871e-05,5.34955e-05,1.30439e-05,5.17915e-05
751,1.63856e-05,1.94215e-06,5.16827e-05,4.85576e-05,8.83363e-06,4.68895e-05
752,1.10304e-05,-1.14307e-05,5.7527e-05,4.23949e-05,7.12926e-06,3.80976e-05
753,8.6557e-06,-1.76989e-05,6.19425e-05,4.29656e-05,8.85876e-06,3.24097e-05
754,1.37745e-05,-8.27111e-06,6.14538e-05,5.00246e-05,9.97629e-06,3.31059e-05
755,1.99384e-05,4.25628e-06,5.85108e-05,5.48756e-05,1.03818e-05,3.72316e-05
756,2.08078e-05,5.74795e-06,5.80393e-05,5.33276e-05,1.36216e-05,4.10032e-05
757,1.81294e-05,-6.40233e-07,5.85462e-05,4.84049e-05,1.66458e-05,4.05784e-05
758,1.75799e-05,-1.18365e-05,5.50183e-05,4.21499e-05,1.81779e-05,3.64508e-05
759,1.77735e-05,-1.72732e-05,4.7835e-05,4.00509e-05,1.79809e-05,3.55353e-05
760,1.3342e-05,-5.63896e-06,4.50798e-05,4.7056e-05,1.6323e-05,4.15844e-05
761,6.34445e-06,5.43563e-06,4.85937e-05,5.33905e-05,1.54499e-05,5.09476e-05
762,2.51404e-06,5.71191e-06,5.33254e-05,5.38233e-05,1.60543e-05,5.76383e-05
763,3.11267e-06,4.83938e-06,5.4432e-05,5.32373e-05,1.80687e-05,6.00881e-05
764,6.51336e-06,4.62395e-06,4.99404e-05,5.24994e-05,2.05492e-05,5.5041e-05
765,9.29412e-06,4.6109e-06,4.35667e-05,5.13933e-05,1.99642e-05,4.48403e-05
766,7.39965e-06,-3.60246e-06,4.18066e-05,4.7843e-05,1.49925e-05,3.69262e-05
767,4.17585e-06,-2.13461e-05,4.63674e-05,4.08144e-05,1.10187e-05,3.57822e-05
768,5.89222e-06,-2.87852e-05,5.14333e-05,3.80147e-05,1.13883e-05,3.93886e-05
769,1.06967e-05,-1.66383e-05,5.25606e-05,4.37812e-05,1.43648e-05,4.39308e-05
770,1.36383e-05,-3.83192e-06,4.97537e-05,5.07819e-05,1.64061e-05,4.6964e-05
771,1.44993e-05,-1.68798e-06,4.65781e-05,5.29279e-05,1.66585e-05,4.87047e-05
772,1.41462e-05,-8.51061e-06,4.77796e-05,5.0305e-05,1.49784e-05,4.79067e-05
773,1.39191e-05,-1.836e-05,5.36181e-05,4.64334e-05,1.24148e-05,4.2696e-05
774,1.493e-05,-2.07955e-05,5.96524e-05,4.65103e-05,1.21581e-05,4.07753e-05
775,1.63159e-05,-1.09644e-05,6.19905e-05,5.27657e-05,1.58729e-05,4.59645e-05
776,1.84701e-05,2.14855e-06,5.68203e-05,6.043e-05,1.89117e-05,5.2252e-05
777,2.02949e-05,7.62915e-06,4.94288e-05,6.47448e-05,1.7663e-05,5.39659e-05
778,1.90401e-05,1.80328e-06,4.85346e-05,6.22306e-05,1.34315e-05,5.0441e-05
779,1.50859e-05,-1.35351e-05,5.28389e-05,5.24109e-05,8.69946e-06,4.41218e-05
780,1.37598e-05,-2.17875e-05,5.53714e-05,4.58034e-05,7.19142e-06,4.17489e-05
781,1.7217e-05,-9.29009e-06,5.49527e-05,5.20127e-05,8.20473e-06,4.3767e-05
782,2.04354e-05,9.47337e-06,5.3637e-05,6.30039e-05,9.43849e-06,4.61888e-05
783,1.73746e-05,1.38602e-05,5.30586e-05,6.70279e-05,1.23578e-05,4.7287e-05
784,1.2034e-05,4.41006e-06,5.17146e-05,6.27244e-05,1.53568e-05,4.50273e-05
785,1.32121e-05,-1.57268e-05,4.75206e-05,5.31202e-05,1.50311e-05,3.95269e-05
786,1.73525e-05,-2.91172e-05,4.38916e-05,4.81961e-05,1.35967e-05,3.77654e-05
787,1.59407e-05,-1.73315e-05,4.45398e-05,5.58472e-05,1.38988e-05,4.27894e-05
788,9.79846e-06,5.73462e-07,4.88329e-05,6.30721e-05,1.47606e-05,4.87085e-05
789,4.57232e-06,6.82878e-06,5.39216e-05,6.19412e-05,1.44082e-05,5.03156e-05
790,2.39953e-06,8.47449e-06,5.56138e-05,6.0883e-05,1.42404e-05,4.81042e-05
791,4.09475e-06,1.02516e-05,5.08346e-05,6.35555e-05,1.66532e-05,4.4619e-05
792,8.08091e-06,1.15438e-05,4.48638e-05,6.77549e-05,2.01602e-05,4.13857e-05
793,1.00572e-05,5.39494e-06,4.62706e-05,6.52009e-05,2.14947e-05,3.80155e-05
794,9.75532e-06,-7.88961e-06,5.33415e-05,5.77024e-05,2.08394e-05,3.42586e-05
795,7.37122e-06,-1.20899e-05,5.64441e-05,5.52792e-05,2.11717e-05,3.38403e-05
796,4.52715e-06,-3.14485e-07,5.2436e-05,5.96378e-05,2.24398e-05,3.70656e-05
797,4.36552e-06,1.22502e-05,4.49925e-05,6.19427e-05,2.1417e-05,4.10738e-05
798,6.98406e-06,1.23791e-05,3.98195e-05,5.94602e-05,1.66595e-05,4.32408e-05
799,8.66277e-06,4.1237e-07,4.14637e-05,5.53049e-05,1.07972e-05,4.14491e-05
800,7.71885e-06,-1.47872e-05,4.74381e-05,5.06269e-05,9.35778e-06,3.66809e-05
801,6.42837e-06,-1.88122e-05,5.27272e-05,5.04565e-05,1.48613e-05,3.45078e-05
802,6.02113e-06,-7.60499e-06,5.67643e-05,5.74275e-05,2.14967e-05,3.64286e-05
803,6.2099e-06,6.03776e-06,5.56932e-05,6.54844e-05,2.22538e-05,3.77413e-05
804,7.09741e-06,1.08715e-05,4.87229e-05,6.72662e-05,1.79968e-05,3.66979e-05
805,7.51607e-06,5.00779e-06,4.61059e-05,6.48378e-05,1.2988e-05,3.40765e-05
806,6.48408e-06,-9.38919e-06,5.08657e-05,6.18252e-05,1.18272e-05,2.95796e-05
807,7.43357e-06,-1.93721e-05,5.56413e-05,5.96933e-05,1.60788e-05,2.85339e-05
808,1.07464e-05,-1.19583e-05,5.4662e-05,5.84623e-05,2.1446e-05,3.54803e-05
809,1.49942e-05,3.16008e-06,5.07424e-05,5.86088e-05,2.22153e-05,4.30876e-05
810,1.74297e-05,9.50986e-06,5.15918e-05,6.01796e-05,1.93385e-05,4.51787e-05
811,1.6371e-05,3.66244e-06,5.54693e-05,5.96769e-05,1.86038e-05,4.12037e-05
812,1.42633e-05,-1.36728e-05,5.51398e-05,5.39495e-05,2.1822e-05,3.32274e-05
813,1.19826e-05,-2.57859e-05,5.24437e-05,4.93855e-05,2.4399e-05,2.93569e-05
814,1.00079e-05,-1.52479e-05,5.49341e-05,5.49896e-05,2.22616e-05,3.34878e-05
815,1.00302e-05,-1.30265e-06,5.92308e-05,6.39685e-05,2.02105e-05,3.67377e-05
816,1.27158e-05,-1.74665e-06,5.95541e-05,6.78742e-05,2.10146e-05,3.7356e-05
817,1.59765e-05,-6.38728e-06,5.51491e-05,6.75453e-05,2.15815e-05,4.17556e-05
818,1.79727e-05,-6.18266e-06,4.76021e-05,6.37588e-05,1.95204e-05,4.48854e-05
819,1.8729e-05,-3.01601e-06,4.15271e-05,6.00948e-05,1.44627e-05,4.04614e-05
820,1.84601e-05,-9.5054e-06,4.34856e-05,5.581e-05,9.10819e-06,3.11136e-05
821,1.82903e-05,-2.63603e-05,5.22858e-05,5.16104e-05,8.24192e-06,2.43025e-05
822,1.76928e-05,-3.31869e-05,5.84404e-05,5.30474e-05,1.17567e-05,2.50479e-05
823,1.56323e-05,-2.04704e-05,5.647e-05,5.80785e-05,1.48515e-05,2.83996e-05
824,1.40854e-05,-4.54729e-06,4.84421e-05,6.19725e-05,1.51772e-05,2.81964e-05
825,1.46256e-05,9.61471e-07,4.19698e-05,6.46778e-05,1.38245e-05,2.8745e-05
826,1.35877e-05,-6.22293e-06,4.31211e-05,6.39685e-05,1.23548e-05,3.12559e-05
827,1.024e-05,-1.91611e-05,4.9621e-05,5.68981e-05,1.16364e-05,3.16476e-05
828,8.01445e-06,-2.28156e-05,5.30547e-05,4.99706e-05,1.28531e-05,3.14022e-05
829,7.73019e-06,-1.25103e-05,5.31951e-05,5.13471e-05,1.48947e-05,3.28687e-05
830,8.91723e-06,4.03754e-07,5.22124e-05,5.68134e-05,1.53934e-05,3.46344e-05
831,1.09102e-05,5.04635e-06,4.98966e-05,5.83963e-05,1.50806e-05,3.5315e-05
832,1.07534e-05,3.04365e-07,5.00277e-05,5.52846e-05,1.33371e-05,3.38035e-05
833,8.07137e-06,-1.15368e-05,5.52334e-05,4.97622e-05,8.96035e-06,3.04309e-05
834,5.6777e-06,-2.03915e-05,6.08072e-05,4.73753e-05,8.16156e-06,3.06579e-05
835,3.66119e-06,-1.48334e-05,6.11379e-05,5.19365e-05,1.22302e-05,3.66673e-05
836,4.15059e-06,-2.19358e-06,5.69216e-05,5.73467e-05,1.51657e-05,4.14163e-05
837,6.2614e-06,1.71984e-06,5.33945e-05,5.79769e-05,1.7121e-05,4.06614e-05
838,7.47387e-06,-6.11726e-06,5.28063e-05,5.52989e-05,2.11261e-05,3.77074e-05
839,9.30321e-06,-2.33015e-05,4.94804e-05,4.77829e-05,2.34461e-05,3.24698e-05
840,1.2147e-05,-3.27496e-05,4.39997e-05,4.10594e-05,1.96342e-05,2.97872e-05
841,9.89742e-06,-1.8563e-05,4.51993e-05,4.60962e-05,1.34982e-05,3.70933e-05
842,2.9893e-06,-4.0441e-06,5.19885e-05,5.5678e-05,1.3602e-05,4.35089e-05
843,-1.40091e-07,-1.36846e-06,5.76065e-05,5.86446e-05,2.00243e-05,4.42539e-05
844,3.81732e-06,3.27578e-06,5.85243e-05,5.85576e-05,2.46988e-05,4.57488e-05
845,1.1181e-05,8.12559e-06,5.39009e-05,5.8596e-05,2.35739e-05,4.52956e-05
846,1.46591e-05,8.61438e-06,4.72016e-05,6.04325e-05,1.84565e-05,4.22006e-05
847,1.21622e-05,-9.90517e-07,4.52425e-05,6.08643e-05,1.42047e-05,3.79986e-05
848,8.45286e-06,-1.80324e-05,4.91044e-05,5.62518e-05,1.45941e-05,3.6508e-05
849,7.91368e-06,-2.48488e-05,5.37025e-05,5.36595e-05,1.84696e-05,4.1512e-05
850,9.5276e-06,-1.41724e-05,5.5857e-05,5.71365e-05,2.1966e-05,5.06735e-05
851,1.28279e-05,-9.6359e-07,5.39547e-05,6.30544e-05,2.3181e-05,5.39474e-05
852,1.77147e-05,2.50195e-06,4.94384e-05,6.76347e-05,2.14521e-05,4.81268e-05
853,2.06434e-05,-5.63331e-06,4.93692e-05,6.52458e-05,1.71212e-05,3.92294e-05
854,2.03077e-05,-1.67494e-05,5.56719e-05,5.43414e-05,1.30454e-05,3.4081e-05
855,1.78499e-05,-1.80797e-05,6.07474e-05,4.66085e-05,1.23572e-05,3.50739e-05
856,1.52088e-05,-8.07975e-06,5.92065e-05,5.24911e-05,1.42918e-05,4.03404e-05
857,1.57956e-05,2.2132e-06,5.29649e-05,6.47762e-05,1.56252e-05,4.42427e-05
858,1.70765e-05,3.27172e-06,4.76429e-05,6.96215e-05,1.43466e-05,4.27595e-05
859,1.45728e-05,-5.92045e-06,4.9873e-05,6.39031e-05,1.14597e-05,3.77149e-05
860,9.84552e-06,-2.14534e-05,5.74979e-05,5.36287e-05,8.68646e-06,2.97098e-05
861,7.40622e-06,-2.76923e-05,5.91064e-05,5.01596e-05,7.68042e-06,2.32632e-05
862,7.82214e-06,-1.47914e-05,5.49136e-05,5.68048e-05,6.24314e-06,2.53334e-05
863,8.76722e-06,2.9864e-06,5.30721e-05,6.43393e-05,4.95075e-06,3.19756e-05
864,1.079e-05,8.8351e-06,5.58765e-05,6.59929e-05,9.14725e-06,3.27935e-05
865,1.45484e-05,2.57641e-06,5.79568e-05,6.1527e-05,1.54218e-05,2.71668e-05
866,1.67447e-05,-1.35188e-05,5.2255e-05,5.27065e-05,1.75381e-05,2.19722e-05
867,1.64578e-05,-2.51221e-05,4.44668e-05,4.64427e-05,1.57878e-05,2.46681e-05
868,1.58904e-05,-1.77373e-05,4.68478e-05,4.95361e-05,1.38937e-05,3.2889e-05
869,1.75674e-05,-6.06675e-06,5.52168e-05,5.54971e-05,1.55367e-05,3.71164e-05
870,1.95981e-05,-4.01965e-06,5.99062e-05,5.65823e-05,2.1778e-05,3.43913e-05
871,2.02817e-05,-5.21134e-06,6.07725e-05,5.45584e-05,2.73964e-05,3.37299e-05
872,2.35832e-05,-4.65855e-06,5.85392e-05,5.30713e-05,2.58049e-05,3.67456e-05
873,2.76173e-05,-3.16376e-06,5.3264e-05,5.29261e-05,1.8242e-05,3.97868e-05
874,2.84022e-05,-1.08886e-05,5.09852e-05,5.15608e-05,1.206e-05,3.99012e-05
875,2.71693e-05,-2.735e-05,5.54098e-05,4.67924e-05,1.11069e-05,3.49917e-05
876,2.56361e-05,-3.30318e-05,6.07604e-05,4.41781e-05,1.43625e-05,3.13117e-05
877,2.23314e-05,-1.92047e-05,6.1626e-05,4.80575e-05,1.84064e-05,3.42208e-05
878,1.89666e-05,-4.32997e-07,5.77225e-05,5.27818e-05,1.99344e-05,4.02222e-05
879,1.876e-05,8.76288e-06,5.30424e-05,5.35628e-05,1.82647e-05,4.24265e-05
880,2.01931e-05,2.90636e-06,5.35582e-05,4.8887e-05,1.47692e-05,3.80572e-05
881,2.03401e-05,-1.21976e-05,5.87194e-05,4.1841e-05,1.18158e-05,3.08932e-05
882,1.79037e-05,-2.09589e-05,6.21756e-05,3.9288e-05,1.21219e-05,2.89146e-05
883,1.50187e-05,-1.61469e-05,6.10398e-05,4.34081e-05,1.4414e-05,3.44902e-05
884,1.58769e-05,-7.11786e-06,5.51272e-05,4.9291e-05,1.51987e-05,4.19198e-05
885,1.87734e-05,-3.96821e-06,4.79813e-05,5.40903e-05,1.28937e-05,4.47741e-05
886,1.85157e-05,-8.53484e-06,4.72967e-05,5.64461e-05,8.95173e-06,4.09732e-05
887,1.5203e-05,-1.95239e-05,5.56661e-05,5.25814e-05,8.81244e-06,3.44405e-05
888,1.29273e-05,-2.57647e-05,6.32672e-05,4.52776e-05,1.45412e-05,3.41894e-05
889,1.24173e-05,-1.77388e-05,6.22844e-05,4.4614e-05,1.99009e-05,3.97994e-05
890,1.24199e-05,-2.96677e-06,5.74512e-05,5.10709e-05,1.88601e-05,4.2533e-05
891,1.17282e-05,4.48026e-06,5.4808e-05,5.55933e-05,1.50609e-05,4.25529e-05
892,1.10875e-05,4.63242e-08,5.32448e-05,5.36458e-05,1.15421e-05,4.41254e-05
893,1.23976e-05,-1.76811e-05,4.98768e-05,4.58261e-05,8.42987e-06,4.41827e-05
894,1.48225e-05,-3.17482e-05,4.68161e-05,4.06348e-05,5.9856e-06,4.15094e-05
895,1.51014e-05,-2.11922e-05,4.9612e-05,4.73064e-05,4.69478e-06,3.99814e-05
896,1.17392e-05,-2.79254e-06,5.52976e-05,5.59763e-05,4.41598e-06,4.22078e-05
897,8.45229e-06,4.57005e-06,5.74269e-05,5.44223e-05,6.30496e-06,4.4669e-05
898,8.31798e-06,7.54938e-06,5.50074e-05,5.0925e-05,1.15632e-05,4.5252e-05
899,1.16603e-05,8.64506e-06,4.98496e-05,5.22644e-05,1.66919e-05,4.28689e-05
900,1.40425e-05,6.00928e-06,4.59607e-05,5.63038e-05,1.77776e-05,3.72943e-05
901,1.10954e-05,-4.19818e-06,4.77129e-05,5.7564e-05,1.5678e-05,3.07108e-05
902,6.11295e-06,-2.00242e-05,5.45018e-05,5.46198e-05,1.49266e-05,2.72212e-05
903,4.64099e-06,-2.42145e-05,5.9278e-05,5.46114e-05,1.6569e-05,3.07639e-05
904,6.12793e-06,-9.71303e-06,5.71208e-05,6.01284e-05,1.9094e-05,3.7134e-05
905,8.22302e-06,6.50051e-06,4.98744e-05,6.62875e-05,2.02167e-05,4.03333e-05
906,1.04338e-05,1.23995e-05,4.5184e-05,6.85691e-05,1.87014e-05,3.71493e-05
907,1.10945e-05,6.5726e-06,4.89083e-05,6.47245e-05,1.42654e-05,3.01898e-05
908,1.06055e-05,-6.57725e-06,5.59095e-05,5.65754e-05,9.44543e-06,2.5103e-05
909,1.04462e-05,-1.24007e-05,5.74905e-05,5.15564e-05,7.91804e-06,2.59097e-05
910,1.00185e-05,-3.76363e-06,5.42297e-05,5.39665e-05,1.06081e-05,3.02704e-05
911,1.23913e-05,7.08552e-06,4.73848e-05,5.8622e-05,1.392e-05,3.37455e-05
912,1.83985e-05,8.98244e-06,3.94812e-05,5.97718e-05,1.5225e-05,3.50633e-05
913,2.22782e-05,2.9981e-06,3.9004e-05,5.67941e-05,1.56197e-05,3.44761e-05
914,2.12816e-05,-7.23664e-06,4.73965e-05,4.99294e-05,1.49397e-05,3.19614e-05
915,1.75083e-05,-1.08474e-05,5.62313e-05,4.40674e-05,1.42031e-05,2.99527e-05
916,1.37989e-05,-7.93581e-07,5.9363e-05,4.62944e-05,1.63807e-05,3.15955e-05
917,1.09744e-05,1.17405e-05,5.80811e-05,5.32608e-05,2.01941e-05,3.47387e-05
918,9.75994e-06,1.49871e-05,5.65865e-05,5.75848e-05,2.03374e-05,3.67005e-05
919,1.34467e-05,7.70843e-06,5.54297e-05,5.74006e-05,1.78233e-05,3.77187e-05
920,1.94257e-05,-1.13474e-05,5.02904e-05,5.2333e-05,1.77183e-05,3.73312e-05
921,1.93683e-05,-2.59442e-05,4.41087e-05,4.60179e-05,1.91445e-05,3.8223e-05
922,1.37932e-05,-1.48687e-05,4.51984e-05,4.42894e-05,1.88304e-05,4.4455e-05
923,1.08786e-05,5.15395e-06,5.01569e-05,4.49644e-05,1.82469e-05,4.79512e-05
924,1.24174e-05,1.3515e-05,5.27649e-05,4.58577e-05,1.9978e-05,4.53483e-05
925,1.45434e-05,1.51007e-05,5.09869e-05,4.93327e-05,2.2633e-05,4.27777e-05
926,1.72372e-05,1.53996e-05,4.54019e-05,5.12565e-05,2.32359e-05,4.2355e-05
927,1.95518e-05,1.5982e-05,4.2534e-05,5.09662e-05,2.19142e-05,4.38221e-05
928,1.96099e-05,9.60551e-06,4.82514e-05,5.01189e-05,2.00443e-05,4.16542e-05
929,1.98314e-05,-5.39224e-06,5.74955e-05,4.76935e-05,1.67604e-05,3.54912e-05
930,2.12204e-05,-1.20616e-05,6.1388e-05,4.84235e-05,1.22243e-05,3.40382e-05
931,2.21546e-05,-2.5595e-06,5.99298e-05,5.45136e-05,1.08672e-05,3.91486e-05
932,2.3928e-05,8.86933e-06,5.58793e-05,5.96891e-05,1.44286e-05,4.55887e-05
933,2.68405e-05,1.13589e-05,4.98293e-05,5.92951e-05,1.70937e-05,4.90208e-05
934,2.62968e-05,4.29831e-06,4.63688e-05,5.21563e-05,1.47163e-05,4.77484e-05
935,2.05421e-05,-6.79164e-06,4.8027e-05,4.20982e-05,1.15214e-05,4.38036e-05
936,1.44435e-05,-1.03854e-05,5.13754e-05,3.84459e-05,1.3416e-05,4.39613e-05
937,1.11876e-05,-2.01976e-06,5.29766e-05,4.42903e-05,1.7285e-05,4.88521e-05
938,1.02359e-05,7.96545e-06,5.10496e-05,5.24194e-05,1.79902e-05,5.26663e-05
939,1.07889e-05,9.7395e-06,4.74028e-05,5.5378e-05,1.61451e-05,5.30364e-05
940,1.15449e-05,1.87545e-06,4.76305e-05,5.27507e-05,1.29981e-05,5.00316e-05
941,1.21726e-05,-1.35336e-05,5.3442e-05,4.78431e-05,1.12844e-05,4.46303e-05
942,1.18486e-05,-2.40065e-05,5.71117e-05,4.64822e-05,1.38417e-05,4.19354e-05
943,1.07975e-05,-1.70385e-05,5.52869e-05,5.17627e-05,1.80054e-05,4.48269e-05
944,9.34099e-06,1.83772e-08,5.51077e-05,5.70648e-05,2.12338e-05,4.88409e-05
945,6.63906e-06,9.19903e-06,5.98118e-05,5.61318e-05,2.80532e-05,4.78902e-05
946,3.80245e-06,4.12944e-06,6.08643e-05,5.12298e-05,3.41891e-05,4.24374e-05
947,3.7385e-06,-1.36733e-05,5.24932e-05,4.27025e-05,3.13491e-05,3.52177e-05
948,6.30768e-06,-2.66195e-05,4.06932e-05,3.65565e-05,2.18839e-05,2.92279e-05
949,8.08412e-06,-1.64702e-05,3.85951e-05,4.33664e-05,1.18658e-05,3.18406e-05
950,8.26887e-06,2.91952e-07,4.4943e-05,5.3094e-05,7.54709e-06,3.73096e-05
951,5.58888e-06,9.2358e-06,5.03867e-05,5.72835e-05,1.11006e-05,3.86682e-05
952,2.93e-06,1.17661e-05,5.03368e-05,6.06966e-05,1.7072e-05,3.8437e-05
953,6.22655e-06,8.95011e-06,4.63371e-05,6.37244e-05,1.84392e-05,3.75564e-05
954,1.18458e-05,3.39565e-06,4.38302e-05,6.47453e-05,1.49291e-05,3.64587e-05
955,1.15984e-05,-8.00918e-06,4.59362e-05,6.18127e-05,1.27649e-05,3.56506e-05
956,5.70473e-06,-2.25673e-05,5.19567e-05,5.66738e-05,1.58597e-05,3.52879e-05
957,-3.34639e-07,-2.60701e-05,5.75768e-05,5.57799e-05,1.96876e-05,3.52546e-05
958,-2.44868e-06,-1.3881e-05,5.96619e-05,6.26305e-05,2.04335e-05,3.2759e-05
959,1.24276e-06,-9.069e-07,5.5249e-05,6.77573e-05,1.95823e-05,2.84816e-05
960,7.53201e-06,3.14006e-06,4.73135e-05,6.58484e-05,1.89252e-05,2.65323e-05
961,9.22508e-06,-4.16979e-06,4.39591e-05,5.7348e-05,1.6828e-05,2.54867e-05
962,6.45375e-06,-1.64553e-05,4.87429e-05,4.54393e-05,1.32229e-05,2.61728e-05
963,4.03997e-06,-2.10636e-05,5.54211e-05,3.90005e-05,1.22177e-05,3.2688e-05
964,2.48902e-06,-1.43027e-05,5.83337e-05,4.27426e-05,1.48726e-05,4.04212e-05
965,3.79583e-06,-5.50536e-06,5.51855e-05,4.99195e-05,1.79059e-05,4.15864e-05
966,9.64074e-06,-2.34953e-06,4.81333e-05,5.36809e-05,1.89359e-05,3.82887e-05
967,1.26658e-05,-5.08214e-06,4.66281e-05,5.29835e-05,1.61068e-05,3.366e-05
968,8.45492e-06,-1.30065e-05,5.41837e-05,4.62531e-05,1.18026e-05,2.62491e-05
969,6.54565e-06,-1.78893e-05,5.8626e-05,3.84074e-05,1.11841e-05,1.86378e-05
970,1.20512e-05,-1.04602e-05,5.31789e-05,3.8327e-05,1.21788e-05,1.86819e-05
971,1.76686e-05,1.70209e-06,4.7647e-05,4.54586e-05,1.13056e-05,2.66585e-05
972,1.56826e-05,5.39176e-06,5.20514e-05,5.1344e-05,8.85337e-06,3.26614e-05
973,1.1556e-05,-2.92753e-06,5.83399e-05,5.37172e-05,8.29726e-06,3.23185e-05
974,1.23375e-05,-2.29476e-05,5.48927e-05,5.00867e-05,1.00048e-05,3.0863e-05
975,1.58559e-05,-3.56395e-05,4.81171e-05,4.5586e-05,1.00077e-05,3.43748e-05
976,1.62606e-05,-2.30784e-05,5.00548e-05,4.96992e-05,7.90474e-06,4.16214e-05
977,1.30552e-05,-6.6579e-06,5.64576e-05,5.5858e-05,6.4467e-06,4.50841e-05
978,1.12671e-05,-3.60905e-06,5.95243e-05,5.72712e-05,8.83879e-06,4.2511e-05
979,1.2752e-05,-2.62295e-06,5.93963e-05,5.80219e-05,1.4836e-05,4.13587e-05
980,1.6197e-05,-1.52829e-07,5.4942e-05,5.88966e-05,2.09266e-05,4.4542e-05
981,1.68168e-05,2.82939e-07,4.86443e-05,5.89e-05,2.33169e-05,4.51174e-05
982,1.28465e-05,-9.44926e-06,4.70629e-05,5.64721e-05,2.11744e-05,4.20835e-05
983,8.05701e-06,-2.55371e-05,5.08348e-05,5.16803e-05,1.96384e-05,3.94549e-05
984,5.9178e-06,-2.90054e-05,5.43476e-05,4.97761e-05,2.33724e-05,3.95543e-05
985,7.26863e-06,-1.54777e-05,5.40223e-05,5.34857e-05,2.83756e-05,4.22945e-05
986,1.14917e-05,-1.38832e-06,4.85971e-05,5.82952e-05,2.61772e-05,4.39833e-05
987,1.53998e-05,3.78144e-06,4.33431e-05,6.14739e-05,1.52036e-05,4.25744e-05
988,1.46027e-05,-1.96138e-06,4.60383e-05,6.09748e-05,3.59026e-06,3.86068e-05
989,9.74751e-06,-1.33687e-05,5.34619e-05,5.63623e-05,7.45482e-07,3.44877e-05
990,7.6914e-06,-1.70813e-05,5.61396e-05,5.26731e-05,6.32319e-06,3.39133e-05
991,9.96321e-06,-8.16149e-06,5.384e-05,5.39789e-05,1.26737e-05,3.84548e-05
992,1.19653e-05,3.28398e-06,4.89351e-05,5.61083e-05,1.52845e-05,4.40668e-05
993,1.32074e-05,6.55406e-06,4.1948e-05,5.52827e-05,1.49049e-05,4.51576e-05
994,1.23061e-05,1.67797e-06,4.0132e-05,5.24642e-05,1.25514e-05,3.91108e-05
995,9.01097e-06,-7.50553e-06,4.70229e-05,4.57637e-05,1.03028e-05,2.92097e-05
996,8.88115e-06,-1.16654e-05,5.6506e-05,3.94662e-05,1.05276e-05,2.65052e-05
997,1.2078e-05,-5.97997e-06,6.04649e-05,4.13918e-05,1.22467e-05,3.59258e-05
998,1.52166e-05,1.68112e-06,5.91776e-05,4.8307e-05,1.40027e-05,4.47219e-05
999,1.69289e-05,3.06718e-06,5.90685e-05,5.13147e-05,1.66566e-05,4.12346e-05
1000,1.70798e-05,-2.27158e-06,5.79997e-05,4.76887e-05,1.95573e-05,3.06628e-05
1001,1.85591e-05,-1.71196e-05,5.3996e-05,3.88613e-05,1.98779e-05,2.21504e-05
1002,1.93996e-05,-2.94231e-05,4.90181e-05,3.54213e-05,1.64884e-05,1.96928e-05
1003,1.59201e-05,-2.09802e-05,5.04649e-05,4.44769e-05,1.17712e-05,2.5718e-05
1004,1.2309e-05,-5.86993e-06,5.73551e-05,5.34003e-05,1.13853e-05,3.27859e-05
1005,1.18322e-05,7.5328e-07,6.16118e-05,5.34764e-05,1.66819e-05,3.53972e-05
1006,1.45436e-05,3.34803e-06,5.90075e-05,5.00105e-05,2.34075e-05,3.8929e-05
1007,1.93559e-05,2.99827e-06,5.16097e-05,4.7321e-05,2.66627e-05,4.28014e-05
1008,2.20095e-05,1.10606e-06,4.72882e-05,4.89906e-05,2.54113e-05,4.19916e-05
1009,1.67395e-05,-7.55523e-06,5.04893e-05,5.08405e-05,2.30689e-05,3.53642e-05
1010,6.50911e-06,-2.20141e-05,5.66655e-05,4.78831e-05,2.2491e-05,2.98948e-05
1011,1.05732e-06,-2.53516e-05,5.85986e-05,4.58164e-05,2.28835e-05,3.07313e-05
1012,4.20766e-06,-1.23592e-05,5.7243e-05,5.12471e-05,2.21813e-05,3.63187e-05
1013,1.18771e-05,2.84746e-07,5.4136e-05,5.91356e-05,1.99337e-05,4.06155e-05
1014,1.77364e-05,1.50325e-06,5.07138e-05,6.09974e-05,1.7371e-05,4.09588e-05
1015,1.74953e-05,-9.82175e-06,5.03008e-05,5.55823e-05,1.62744e-05,3.9012e-05
1016,1.16578e-05,-2.53376e-05,5.43083e-05,4.81939e-05,1.86874e-05,3.7831e-05
1017,5.9606e-06,-2.92723e-05,5.80531e-05,4.59819e-05,2.37773e-05,3.95616e-05
1018,4.63751e-06,-1.67399e-05,5.85588e-05,5.17156e-05,2.74501e-05,4.11723e-05
1019,6.08305e-06,-2.34282e-06,5.36661e-05,5.96293e-05,2.79133e-05,3.9574e-05
1020,6.31129e-06,1.25253e-06,4.61905e-05,6.25368e-05,2.58873e-05,3.6259e-05
1021,4.71133e-06,-4.7853e-06,4.70475e-05,5.9204e-05,2.12355e-05,3.30901e-05
1022,4.02597e-06,-1.68728e-05,5.65245e-05,5.32363e-05,1.58781e-05,3.02876e-05
1023,6.79199e-06,-2.36015e-05,6.20702e-05,5.23841e-05,1.34852e-05,3.13888e-05
1024,9.97368e-06,-1.66008e-05,6.06642e-05,5.89288e-05,1.43969e-05,3.76501e-05
1025,9.25824e-06,-4.62115e-06,5.85082e-05,6.498e-05,1.67596e-05,4.32058e-05
1026,6.30578e-06,-2.37066e-07,5.77913e-05,6.47374e-05,1.89455e-05,4.21318e-05
1027,6.49923e-06,-6.57446e-06,5.67258e-05,6.22294e-05,1.97692e-05,3.54525e-05
1028,1.1121e-05,-2.33793e-05,5.37473e-05,5.77394e-05,1.73815e-05,2.474e-05
1029,1.62248e-05,-3.38263e-05,5.03659e-05,5.39627e-05,1.32346e-05,1.99132e-05
1030,1.71464e-05,-2.13567e-05,5.12395e-05,5.7624e-05,1.10455e-05,3.03855e-05
1031,1.59087e-05,-4.79777e-06,5.46798e-05,6.23426e-05,1.29743e-05,4.06108e-05
1032,1.53588e-05,2.4737e-06,5.68178e-05,6.43037e-05,1.61991e-05,4.21864e-05
1033,1.61261e-05,7.79991e-06,5.52927e-05,6.61327e-05,1.77017e-05,4.13296e-05
1034,1.87075e-05,1.12569e-05,4.89612e-05,6.52857e-05,1.65781e-05,3.71711e-05
1035,2.0492e-05,1.14063e-05,4.30753e-05,6.23328e-05,1.34435e-05,3.41263e-05
1036,1.89419e-05,6.65568e-07,4.4054e-05,5.80004e-05,1.14507e-05,3.20314e-05
1037,1.76237e-05,-1.69284e-05,4.95702e-05,5.36657e-05,1.31701e-05,2.92745e-05
1038,2.03136e-05,-2.2084e-05,5.18958e-05,5.48787e-05,1.81725e-05,3.29085e-05
1039,2.38353e-05,-9.18737e-06,4.87861e-05,6.19084e-05,2.30046e-05,4.33153e-05
1040,2.56393e-05,4.14139e-06,4.14413e-05,6.63225e-05,2.5277e-05,4.96837e-05
1041,2.61296e-05,8.36652e-06,3.48143e-05,6.57436e-05,2.48063e-05,4.65048e-05
1042,2.30711e-05,2.66438e-06,3.58486e-05,6.21308e-05,2.27568e-05,3.65105e-05
1043,1.58919e-05,-9.92752e-06,4.43571e-05,5.61986e-05,1.89541e-05,2.74235e-05
1044,9.72339e-06,-1.57873e-05,5.15463e-05,5.27701e-05,1.15743e-05,2.76934e-05
1045,8.26795e-06,-6.57988e-06,5.32278e-05,5.53696e-05,4.70557e-06,3.62155e-05
1046,1.07605e-05,6.97921e-06,4.94274e-05,6.02237e-05,6.20431e-06,4.25996e-05
1047,1.30404e-05,1.18443e-05,4.36982e-05,6.15301e-05,1.34398e-05,4.14962e-05
1048,1.3167e-05,5.69444e-06,4.33163e-05,5.88138e-05,1.64606e-05,3.77335e-05
1049,1.01612e-05,-8.81322e-06,4.98938e-05,5.51214e-05,1.51402e-05,3.45395e-05
1050,5.16015e-06,-1.56958e-05,5.74541e-05,5.35025e-05,1.60158e-05,3.25105e-05
1051,2.54628e-06,-4.73596e-06,6.03723e-05,5.63577e-05,1.54882e-05,3.42487e-05
1052,2.41785e-06,1.1202e-05,5.99936e-05,6.10588e-05,1.22049e-05,4.03861e-05
1053,2.99667e-06,1.55544e-05,5.99792e-05,6.30873e-05,1.15216e-05,4.40342e-05
1054,6.03098e-06,5.69116e-06,6.00605e-05,6.01853e-05,1.44079e-05,4.12856e-05
1055,1.04136e-05,-1.47643e-05,5.75605e-05,5.15434e-05,1.5629e-05,3.63954e-05
1056,1.32662e-05,-2.78952e-05,5.4972e-05,4.68646e-05,1.286e-05,3.75847e-05
1057,1.15474e-05,-1.96821e-05,5.76994e-05,4.9752e-05,8.87225e-06,4.41022e-05
1058,6.39984e-06,-7.49285e-06,6.19077e-05,5.366e-05,7.38691e-06,4.52184e-05
1059,3.01847e-06,-3.81552e-06,6.2781e-05,5.70383e-05,9.87411e-06,4.39422e-05
1060,2.4721e-06,6.2081e-07,5.991e-05,5.85776e-05,1.28265e-05,4.87985e-05
1061,4.60775e-06,6.98086e-06,5.51126e-05,5.70979e-05,1.27029e-05,5.32861e-05
1062,8.50289e-06,9.52749e-06,5.27599e-05,5.44387e-05,1.09434e-05,5.3908e-05
1063,1.07053e-05,2.3203e-07,5.64839e-05,5.18801e-05,1.16454e-05,5.11526e-05
1064,1.0674e-05,-1.73949e-05,6.19878e-05,4.8949e-05,1.52657e-05,4.5664e-05
1065,9.95247e-06,-2.28315e-05,6.31169e-05,4.90078e-05,1.99818e-05,4.2002e-05
1066,9.58675e-06,-9.27644e-06,6.07068e-05,5.33827e-05,2.25548e-05,4.27528e-05
1067,1.10381e-05,6.052e-06,5.64227e-05,5.67321e-05,2.10217e-05,4.49665e-05
1068,1.36124e-05,1.03976e-05,5.11795e-05,5.71508e-05,1.56937e-05,4.62442e-05
1069,1.36557e-05,1.45607e-06,4.96027e-05,5.42725e-05,9.55574e-06,4.55898e-05
1070,1.02377e-05,-1.37607e-05,5.38873e-05,4.714e-05,7.49505e-06,4.30738e-05
1071,7.96044e-06,-1.86582e-05,5.9281e-05,4.21679e-05,1.183e-05,4.20211e-05
1072,9.30709e-06,-6.07799e-06,6.2051e-05,4.61026e-05,1.78635e-05,4.35501e-05
1073,1.2736e-05,9.03757e-06,5.96554e-05,5.3569e-05,2.13866e-05,4.36092e-05
1074,1.54372e-05,1.17629e-05,5.16773e-05,5.49004e-05,2.12835e-05,3.83503e-05
1075,1.34836e-05,2.53334e-06,4.51941e-05,4.93892e-05,1.92607e-05,2.97872e-05
1076,9.09128e-06,-1.17198e-05,4.63964e-05,4.26255e-05,1.84548e-05,2.31619e-05
1077,8.33219e-06,-1.71779e-05,5.23632e-05,4.13831e-05,1.94433e-05,2.3089e-05
1078,1.02442e-05,-8.0215e-06,5.44689e-05,4.89193e-05,1.81361e-05,2.78574e-05
1079,1.16306e-05,3.14702e-06,5.13697e-05,5.81839e-05,1.39868e-05,3.34064e-05
1080,1.01346e-05,4.00803e-06,5.19257e-05,5.98186e-05,1.34253e-05,3.61508e-05
1081,8.1441e-06,-7.8651e-06,5.50929e-05,5.44002e-05,1.62214e-05,3.62242e-05
1082,1.14355e-05,-2.90981e-05,5.50129e-05,4.75252e-05,1.7802e-05,3.52598e-05
1083,1.94491e-05,-4.05782e-05,5.09295e-05,4.40688e-05,1.59608e-05,3.62639e-05
1084,2.33968e-05,-2.82083e-05,4.95742e-05,4.89109e-05,1.29016e-05,4.07662e-05
1085,2.16229e-05,-1.32394e-05,5.26785e-05,5.54112e-05,1.29812e-05,4.17583e-05
1086,1.82908e-05,-1.04439e-05,5.72867e-05,5.67396e-05,1.70441e-05,3.98236e-05
1087,1.60358e-05,-1.06293e-05,5.98547e-05,5.67872e-05,2.07764e-05,3.97743e-05
1088,1.69088e-05,-8.87535e-06,5.62599e-05,5.88299e-05,2.08522e-05,4.20083e-05
1089,1.84015e-05,-5.14652e-06,4.95591e-05,6.17468e-05,1.81223e-05,4.44662e-05
1090,1.68572e-05,-1.01389e-05,4.81048e-05,5.90235e-05,1.5419e-05,4.0761e-05
1091,1.34348e-05,-2.25811e-05,5.27217e-05,5.08359e-05,1.59745e-05,3.3048e-05
1092,1.09729e-05,-2.48111e-05,5.60658e-05,4.71941e-05,2.01351e-05,3.0272e-05
1093,1.01162e-05,-1.16662e-05,5.5952e-05,5.33076e-05,2.29022e-05,3.64996e-05
1094,1.2999e-05,2.05708e-06,5.2925e-05,6.17046e-05,2.03182e-05,4.46743e-05
1095,1.8174e-05,8.00143e-06,4.90851e-05,6.45822e-05,1.50341e-05,4.91634e-05
1096,1.8922e-05,4.48736e-06,4.88819e-05,5.91068e-05,1.09455e-05,4.70561e-05
1097,1.48706e-05,-5.08833e-06,5.28982e-05,5.08954e-05,8.91703e-06,3.8781e-05
1098,1.34229e-05,-8.0479e-06,5.42751e-05,4.99497e-05,9.09325e-06,3.39656e-05
1099,1.62367e-05,4.8136e-07,5.18186e-05,5.78123e-05,1.03894e-05,3.88277e-05
1100,1.90383e-05,9.88913e-06,4.84195e-05,6.53704e-05,1.23205e-05,4.80072e-05
1101,1.93195e-05,1.17923e-05,4.54873e-05,6.541e-05,1.55683e-05,5.24366e-05
1102,1.8614e-05,6.54144e-06,4.65619e-05,6.00302e-05,1.61854e-05,4.91597e-05
1103,1.7219e-05,-5.09411e-06,5.25718e-05,5.41643e-05,1.36332e-05,4.22295e-05
1104,1.58088e-05,-1.29546e-05,5.60796e-05,5.3143e-05,1.37489e-05,3.92896e-05
1105,1.48915e-05,-7.44551e-06,5.39078e-05,5.77339e-05,1.35724e-05,4.18397e-05
1106,1.20637e-05,4.0244e-06,5.23559e-05,6.14547e-05,1.15624e-05,4.51573e-05
1107,8.88629e-06,7.48477e-06,5.55518e-05,6.14264e-05,1.31151e-05,4.58015e-05
1108,9.15939e-06,-1.49188e-06,5.74234e-05,5.97772e-05,1.48073e-05,4.43386e-05
1109,1.37993e-05,-2.19088e-05,5.14904e-05,5.20643e-05,1.38014e-05,4.11476e-05
1110,1.89008e-05,-3.44744e-05,4.3542e-05,4.39242e-05,1.09066e-05,3.89768e-05
1111,1.76701e-05,-2.27208e-05,4.47621e-05,4.57356e-05,8.99476e-06,3.86283e-05
1112,1.08317e-05,-6.70135e-06,5.3407e-05,4.90844e-05,1.10956e-05,3.83857e-05
1113,6.36992e-06,-1.81413e-06,5.83748e-05,5.03172e-05,1.59062e-05,3.92383e-05
1114,8.15226e-06,-1.76885e-07,5.51539e-05,5.26469e-05,1.95273e-05,3.94212e-05
1115,1.28719e-05,-2.91621e-07,4.82243e-05,5.28441e-05,1.96138e-05,3.87061e-05
1116,1.43351e-05,-7.92799e-07,4.40003e-05,5.24554e-05,1.71863e-05,4.07218e-05
1117,1.01942e-05,-6.4957e-06,4.50715e-05,5.00711e-05,1.48812e-05,3.90596e-05
1118,6.31275e-06,-1.94514e-05,4.92597e-05,4.60724e-05,1.38029e-05,3.16902e-05
1119,8.30881e-06,-2.29134e-05,5.31821e-05,4.65878e-05,1.2836e-05,3.05015e-05
1120,1.33484e-05,-1.04228e-05,5.43994e-05,5.25696e-05,1.24798e-05,3.61016e-05
1121,1.54124e-05,1.91921e-06,5.05796e-05,5.58219e-05,1.33445e-05,3.96247e-05
1122,1.39934e-05,3.95628e-06,4.51231e-05,5.43701e-05,1.50697e-05,3.76876e-05
1123,1.18924e-05,-3.51792e-06,4.53364e-05,5.14482e-05,1.69915e-05,3.17118e-05
1124,1.12318e-05,-1.47418e-05,5.20433e-05,4.90917e-05,2.0322e-05,2.63206e-05
1125,1.25752e-05,-1.80523e-05,5.90486e-05,5.04023e-05,2.29551e-05,2.58442e-05
1126,1.56565e-05,-9.24499e-06,6.17543e-05,5.5918e-05,2.09541e-05,3.04963e-05
1127,1.98092e-05,8.25431e-07,5.84784e-05,6.10889e-05,1.76136e-05,3.63071e-05
1128,2.19646e-05,1.79902e-06,5.23145e-05,6.20002e-05,1.73937e-05,3.98253e-05
1129,1.96394e-05,-5.85363e-06,5.18172e-05,5.82898e-05,1.65978e-05,3.84941e-05
1130,1.44804e-05,-1.73251e-05,5.99091e-05,5.00009e-05,1.44445e-05,3.14854e-05
1131,1.08092e-05,-2.05199e-05,6.74156e-05,4.5327e-05,1.49489e-05,2.62428e-05
1132,8.93808e-06,-7.91411e-06,6.63437e-05,4.96573e-05,1.54614e-05,2.95034e-05
1133,7.32407e-06,8.66634e-06,6.05839e-05,5.52657e-05,1.30648e-05,3.7094e-05
1134,6.38218e-06,1.45182e-05,5.85849e-05,5.78445e-05,1.19816e-05,4.21597e-05
1135,7.4121e-06,6.73426e-06,5.84085e-05,5.81058e-05,1.36106e-05,4.02442e-05
1136,1.11509e-05,-1.2298e-05,5.44312e-05,5.27634e-05,1.60622e-05,3.32568e-05
1137,1.4424e-05,-2.66366e-05,4.84986e-05,4.81816e-05,1.49258e-05,2.78973e-05
1138,1.29615e-05,-2.13546e-05,4.86281e-05,5.27838e-05,8.63497e-06,3.10297e-05
1139,1.08474e-05,-1.14681e-05,5.4081e-05,5.90519e-05,4.21644e-06,3.67221e-05
1140,1.19839e-05,-1.04583e-05,5.75553e-05,6.0056e-05,4.38016e-06,3.69533e-05
1141,1.49216e-05,-1.09895e-05,5.54387e-05,5.99976e-05,7.21832e-06,3.78067e-05
1142,1.69878e-05,-8.62789e-06,4.76264e-05,5.84521e-05,1.09883e-05,3.96147e-05
1143,1.65951e-05,-6.09153e-06,3.94672e-05,5.34281e-05,1.49867e-05,3.78558e-05
1144,1.29977e-05,-1.28153e-05,3.88944e-05,4.55845e-05,1.68737e-05,3.08606e-05
1145,8.84441e-06,-2.81539e-05,4.64061e-05,4.10437e-05,1.57624e-05,2.58144e-05
1146,8.58373e-06,-3.25784e-05,5.28796e-05,4.29911e-05,1.35946e-05,2.84796e-05
1147,1.22113e-05,-1.72039e-05,5.18822e-05,4.96972e-05,1.28642e-05,3.48456e-05
1148,1.74247e-05,1.74752e-06,4.27752e-05,5.63474e-05,1.38967e-05,3.87288e-05
1149,2.07408e-05,1.02278e-05,3.26281e-05,5.90132e-05,1.51355e-05,4.06812e-05
1150,1.90035e-05,2.16318e-06,3.23749e-05,5.54835e-05,1.49159e-05,4.02861e-05
1151,1.38718e-05,-1.58182e-05,4.33849e-05,4.72772e-05,1.39925e-05,3.57912e-05
1152,1.20385e-05,-2.43897e-05,5.30607e-05,4.47751e-05,1.62108e-05,3.20504e-05
1153,1.4018e-05,-1.47469e-05,5.33195e-05,5.26323e-05,2.01794e-05,3.271e-05
1154,1.73959e-05,-3.34941e-07,4.67328e-05,6.10268e-05,2.12284e-05,3.54692e-05
1155,2.18425e-05,4.82504e-06,3.88578e-05,6.17147e-05,2.08993e-05,3.61601e-05
1156,2.33056e-05,-2.79957e-07,3.80696e-05,5.76449e-05,2.05377e-05,3.36783e-05
1157,2.01843e-05,-1.1692e-05,4.61268e-05,5.10314e-05,1.94404e-05,2.88884e-05
1158,1.80112e-05,-1.7801e-05,5.26891e-05,4.6422e-05,2.07278e-05,2.79072e-05
1159,1.89435e-05,-9.83501e-06,5.13957e-05,4.92726e-05,2.1512e-05,3.40785e-05
1160,1.9641e-05,3.5778e-06,4.89257e-05,5.64364e-05,1.98214e-05,4.18567e-05
1161,1.71895e-05,7.55891e-06,4.94698e-05,6.0145e-05,2.07582e-05,4.32499e-05
1162,1.48765e-05,1.16695e-06,4.99329e-05,5.91041e-05,2.55869e-05,3.83478e-05
1163,1.6108e-05,-1.41996e-05,4.7982e-05,5.45057e-05,2.87394e-05,3.45796e-05
1164,1.66787e-05,-2.56631e-05,4.6459e-05,5.10306e-05,2.33904e-05,3.50625e-05
1165,1.58868e-05,-1.75667e-05,5.00133e-05,5.51549e-05,1.05653e-05,3.70558e-05
1166,1.58264e-05,-3.73858e-06,5.55717e-05,6.12322e-05,3.53913e-07,3.56309e-05
1167,1.50922e-05,2.29267e-06,6.06666e-05,6.18652e-05,-4.65087e-07,2.88883e-05
1168,1.39567e-05,3.71322e-06,6.26922e-05,6.07376e-05,5.82062e-06,2.46591e-05
1169,1.57513e-05,2.55196e-06,5.77976e-05,6.06164e-05,1.20938e-05,2.50107e-05
1170,2.05624e-05,1.43685e-06,4.89899e-05,5.9596e-05,1.3496e-05,2.40757e-05
1171,2.14132e-05,-4.30226e-06,4.58909e-05,5.39195e-05,1.11352e-05,2.12962e-05
1172,1.63751e-05,-1.6765e-05,5.0942e-05,4.67865e-05,9.50179e-06,2.15513e-05
1173,1.07706e-05,-2.23021e-05,5.59924e-05,4.54966e-05,1.06092e-05,2.67469e-05
1174,8.48148e-06,-1.27766e-05,5.53304e-05,5.09261e-05,1.18522e-05,3.29415e-05
1175,9.04384e-06,1.17901e-06,4.90666e-05,5.58684e-05,1.16308e-05,3.44695e-05
1176,1.1669e-05,6.98317e-06,4.23301e-05,5.60488e-05,1.14863e-05,3.28999e-05
1177,1.44017e-05,4.41924e-07,4.24421e-05,5.20523e-05,1.15379e-05,3.15906e-05
1178,1.37439e-05,-1.21099e-05,4.82734e-05,4.67235e-05,1.15305e-05,3.02799e-05
1179,1.10056e-05,-1.53177e-05,5.10111e-05,4.52047e-05,1.18431e-05,3.09497e-05
1180,1.06094e-05,-4.20957e-06,5.14414e-05,4.99781e-05,1.11046e-05,3.54503e-05
1181,1.37339e-05,6.76362e-06,5.24972e-05,5.70072e-05,1.2353e-05,4.12316e-05
1182,1.734e-05,7.16104e-06,5.1579e-05,6.09824e-05,1.68281e-05,4.3491e-05
1183,1.58783e-05,2.34882e-08,4.99263e-05,5.97084e-05,1.75679e-05,4.12011e-05
1184,8.89293e-06,-1.03206e-05,5.18518e-05,5.24789e-05,1.41805e-05,3.76424e-05
1185,3.27167e-06,-1.49716e-05,5.50234e-05,4.5934e-05,1.4881e-05,4.07838e-05
1186,4.05177e-06,-6.88221e-06,5.4023e-05,4.86906e-05,1.84609e-05,5.05862e-05
1187,7.96882e-06,4.7027e-06,5.2465e-05,5.74588e-05,1.77745e-05,5.75361e-05
1188,8.21562e-06,9.1348e-06,5.35058e-05,6.15747e-05,1.30067e-05,5.55611e-05
1189,7.7876e-06,4.79664e-06,5.19474e-05,5.98945e-05,9.91771e-06,4.53342e-05
1190,1.08969e-05,-1.07171e-05,4.60806e-05,5.24947e-05,9.95922e-06,3.03774e-05
1191,1.51322e-05,-2.2693e-05,4.11631e-05,4.57546e-05,9.56394e-06,2.04083e-05
1192,1.55516e-05,-1.22155e-05,4.2443e-05,4.87269e-05,7.55842e-06,2.28791e-05
1193,1.27224e-05,1.31069e-06,4.59071e-05,5.44618e-05,8.29375e-06,2.96122e-05
1194,1.03781e-05,1.92849e-06,4.771e-05,5.55788e-05,1.28094e-05,3.55016e-05
1195,1.07591e-05,4.38346e-08,4.75188e-05,5.57823e-05,1.50516e-05,4.0194e-05
1196,1.32143e-05,1.61087e-06,4.39567e-05,5.49966e-05,1.38051e-05,3.91385e-05
1197,1.4387e-05,5.03148e-06,3.94505e-05,5.16907e-05,1.17197e-05,3.5013e-05
1198,1.16454e-05,8.68567e-10,4.18098e-05,4.82735e-05,9.83459e-06,3.11722e-05
1199,7.68829e-06,-1.52544e-05,5.0683e-05,4.59171e-05,9.70939e-06,2.81773e-05
1200,7.47866e-06,-2.21551e-05,5.81726e-05,4.62507e-05,1.45033e-05,2.93558e-05
1201,9.80579e-06,-1.19848e-05,6.08498e-05,4.99748e-05,2.13648e-05,3.51434e-05
1202,1.10458e-05,2.07368e-07,5.8883e-05,5.28063e-05,2.4412e-05,3.95499e-05
1203,1.22478e-05,4.16663e-06,5.56594e-05,5.41025e-05,2.30441e-05,4.09559e-05
1204,1.39633e-05,-2.8489e-06,5.6055e-05,5.41101e-05,2.00337e-05,3.96404e-05
1205,1.36465e-05,-1.57811e-05,6.01207e-05,4.95483e-05,1.81721e-05,3.57424e-05
1206,1.05272e-05,-2.18672e-05,6.21418e-05,4.35191e-05,1.92716e-05,3.52544e-05
1207,7.46305e-06,-1.38449e-05,6.14552e-05,4.37264e-05,2.169e-05,4.22017e-05
1208,9.76965e-06,-1.41562e-06,5.90933e-05,4.98676e-05,2.35654e-05,5.08705e-05
1209,1.64457e-05,4.18018e-06,5.45806e-05,5.42503e-05,2.44913e-05,5.39943e-05
1210,1.84854e-05,-2.2727e-07,5.24554e-05,5.36414e-05,2.11254e-05,5.08336e-05
1211,1.15667e-05,-1.2165e-05,5.55583e-05,4.91656e-05,1.56971e-05,4.50302e-05
1212,5.23303e-06,-1.79064e-05,6.03755e-05,4.56396e-05,1.46921e-05,4.21127e-05
1213,6.48631e-06,-8.7791e-06,6.34982e-05,4.84297e-05,1.72156e-05,4.50232e-05
1214,1.11532e-05,2.83969e-06,6.40464e-05,5.49838e-05,1.9696e-05,5.23965e-05
1215,1.26234e-05,5.5706e-06,6.38118e-05,5.76484e-05,2.14893e-05,5.86208e-05
1216,1.25915e-05,4.5858e-07,6.17793e-05,5.44271e-05,2.07715e-05,5.62713e-05
1217,1.46642e-05,-1.62853e-05,5.67611e-05,4.82685e-05,1.71959e-05,4.2828e-05
1218,1.4896e-05,-2.94173e-05,5.28106e-05,4.51712e-05,1.29253e-05,3.21999e-05
1219,8.70993e-06,-1.80506e-05,5.37442e-05,5.13024e-05,1.01464e-05,3.63351e-05
1220,2.23383e-06,-1.42243e-06,5.56344e-05,5.84607e-05,1.0562e-05,4.43289e-05
1221,1.04409e-06,4.64737e-06,5.67102e-05,6.12566e-05,1.38881e-05,4.50205e-05
1222,4.43084e-06,8.02084e-06,5.58292e-05,6.27573e-05,1.67828e-05,4.2845e-05
1223,1.13946e-05,9.57039e-06,5.09138e-05,6.03264e-05,1.72295e-05,4.23903e-05
1224,1.79515e-05,1.04644e-05,4.66591e-05,5.65598e-05,1.59079e-05,4.32971e-05
1225,1.92929e-05,2.08654e-06,4.992e-05,5.2287e-05,1.32858e-05,4.10149e-05
1226,1.53182e-05,-1.70527e-05,5.76464e-05,4.7659e-05,1.11967e-05,3.43593e-05
1227,1.14216e-05,-2.49839e-05,6.05826e-05,4.69215e-05,1.21609e-05,3.21103e-05
1228,1.05022e-05,-1.16943e-05,5.69489e-05,5.16e-05,1.50505e-05,3.74605e-05
1229,1.16703e-05,5.46622e-06,5.0312e-05,5.53145e-05,1.77788e-05,4.25865e-05
1230,1.26109e-05,1.39123e-05,4.51616e-05,5.35807e-05,1.97081e-05,4.16587e-05
1231,1.18258e-05,8.78977e-06,4.59579e-05,4.7004e-05,1.92218e-05,3.66486e-05
1232,8.93922e-06,-6.41027e-06,5.1297e-05,4.06418e-05,1.91028e-05,3.42693e-05
1233,7.20446e-06,-1.49974e-05,5.52272e-05,4.00744e-05,2.23863e-05,3.9637e-05
1234,7.22187e-06,-7.20333e-06,5.67374e-05,4.52835e-05,2.63276e-05,4.80498e-05
1235,8.22977e-06,6.24203e-06,5.51247e-05,5.28811e-05,2.71326e-05,5.01821e-05
1236,1.04579e-05,1.31828e-05,5.08615e-05,5.73104e-05,2.40384e-05,4.4639e-05
1237,8.28504e-06,1.05943e-05,4.77705e-05,5.34724e-05,1.80472e-05,3.72104e-05
1238,2.27785e-06,-2.7959e-06,4.88738e-05,4.30935e-05,1.21985e-05,3.28571e-05
1239,-2.15467e-06,-1.53085e-05,5.12481e-05,3.77743e-05,1.07765e-05,3.49817e-05
1240,-3.24025e-06,-1.28378e-05,4.90652e-05,4.42332e-05,1.07476e-05,4.162e-05
1241,6.43425e-07,-2.44743e-07,4.51196e-05,5.55744e-05,9.45946e-06,4.57579e-05
1242,5.68117e-06,8.67938e-06,4.80795e-05,6.06718e-05,8.95123e-06,4.32742e-05
1243,9.72e-06,8.93002e-06,5.5809e-05,5.74741e-05,1.07014e-05,3.59708e-05
1244,1.50627e-05,-4.09207e-06,5.66997e-05,5.07858e-05,1.35726e-05,2.86036e-05
1245,1.90204e-05,-1.76729e-05,4.94513e-05,4.63863e-05,1.40023e-05,2.89541e-05
1246,1.50932e-05,-1.03928e-05,4.63451e-05,4.94131e-05,1.20906e-05,3.7232e-05
1247,6.47234e-06,5.29308e-06,5.13199e-05,5.77719e-05,1.13318e-05,4.10024e-05
1248,1.05544e-06,1.11931e-05,5.72657e-05,6.33899e-05,1.29666e-05,3.87006e-05
1249,7.1856e-07,9.16528e-06,5.73666e-05,6.41781e-05,1.46658e-05,3.86136e-05
1250,4.63605e-06,2.96284e-06,5.27591e-05,6.14563e-05,1.48994e-05,4.1041e-05
1251,8.11853e-06,-2.38324e-06,5.02434e-05,5.9732e-05,1.30045e-05,4.13287e-05
1252,5.91762e-06,-1.16131e-05,5.41465e-05,5.84985e-05,1.04602e-05,3.71267e-05
1253,1.69577e-06,-2.60401e-05,6.0731e-05,5.51744e-05,1.07351e-05,2.99598e-05
1254,2.05726e-06,-2.9376e-05,6.29095e-05,5.39276e-05,1.4209e-05,2.97304e-05
1255,6.51353e-06,-1.54703e-05,5.88078e-05,5.7066e-05,1.62876e-05,3.70167e-05
1256,1.04662e-05,-1.78262e-06,5.16265e-05,6.02549e-05,1.48748e-05,4.04844e-05
1257,1.20655e-05,-1.34114e-06,4.6355e-05,5.98219e-05,1.32148e-05,3.81646e-05
1258,1.22232e-05,-1.47545e-05,4.75745e-05,5.58743e-05,1.26642e-05,3.47412e-05
1259,1.14847e-05,-3.28093e-05,5.43943e-05,5.13645e-05,1.1307e-05,3.38936e-05
1260,1.16614e-05,-3.92851e-05,5.86022e-05,5.12183e-05,9.62501e-06,3.56294e-05
1261,1.3377e-05,-2.79916e-05,5.75883e-05,5.6753e-05,1.03899e-05,3.81042e-05
1262,1.5018e-05,-1.12769e-05,5.36861e-05,6.25782e-05,1.36667e-05,3.90151e-05
1263,1.49913e-05,-2.80635e-06,5.14327e-05,6.38204e-05,1.43361e-05,4.02675e-05
1264,1.28236e-05,-6.78884e-06,5.42601e-05,6.16263e-05,1.07093e-05,3.98581e-05
1265,8.98517e-06,-1.99661e-05,5.86482e-05,5.61084e-05,7.16511e-06,3.31938e-05
1266,8.30235e-06,-2.61701e-05,5.89453e-05,5.07487e-05,7.73521e-06,2.78353e-05
1267,1.15799e-05,-1.61632e-05,5.595e-05,5.13763e-05,1.21806e-05,3.17608e-05
1268,1.3959e-05,-2.68702e-06,5.54559e-05,5.7217e-05,1.58436e-05,3.68803e-05
1269,1.33597e-05,3.19054e-06,5.93593e-05,6.22756e-05,1.82763e-05,3.90847e-05
1270,1.21382e-05,1.88151e-07,6.15982e-05,6.22892e-05,1.94085e-05,4.06016e-05
1271,1.27489e-05,-1.55753e-05,5.99849e-05,5.40008e-05,1.89657e-05,3.84472e-05
1272,1.40971e-05,-2.8336e-05,5.96727e-05,4.65668e-05,1.82424e-05,3.54091e-05
1273,1.35387e-05,-1.981e-05,6.23219e-05,5.16698e-05,1.68292e-05,3.74564e-05
1274,1.08191e-05,-8.57302e-06,6.41412e-05,5.77509e-05,1.51141e-05,3.99158e-05
1275,7.25668e-06,-7.48091e-06,6.26231e-05,5.54782e-05,1.55362e-05,3.97696e-05
1276,4.84988e-06,-7.16844e-06,5.71888e-05,5.30589e-05,1.79115e-05,4.04549e-05
1277,7.01852e-06,-5.93686e-06,4.90029e-05,5.54148e-05,1.92309e-05,4.13903e-05
1278,1.14222e-05,-4.49605e-06,4.35487e-05,5.91423e-05,1.90338e-05,4.21677e-05
1279,1.20739e-05,-8.99533e-06,4.48135e-05,5.76616e-05,1.87703e-05,4.01114e-05
1280,1.04997e-05,-2.15128e-05,5.01269e-05,5.01199e-05,1.94802e-05,3.8215e-05
1281,1.20313e-05,-2.85525e-05,5.44391e-05,4.44844e-05,2.05534e-05,4.10131e-05
1282,1.52779e-05,-1.92483e-05,5.55379e-05,4.59316e-05,2.07702e-05,4.82703e-05
1283,1.70446e-05,-4.66574e-06,5.11781e-05,5.0008e-05,1.96913e-05,5.39094e-05
1284,1.81719e-05,3.45898e-06,4.32043e-05,5.15773e-05,1.7719e-05,5.40836e-05
1285,1.7406e-05,-6.81825e-07,4.10401e-05,4.7147e-05,1.55196e-05,4.92303e-05
1286,1.38907e-05,-1.36316e-05,4.92276e-05,3.95026e-05,1.57037e-05,4.29511e-05
1287,1.08235e-05,-2.12483e-05,5.87278e-05,3.75941e-05,2.09877e-05,4.01814e-05
1288,1.08636e-05,-1.47479e-05,6.02252e-05,4.37133e-05,2.75863e-05,4.10513e-05
1289,1.53123e-05,-2.33148e-06,5.58577e-05,5.16428e-05,2.92712e-05,4.20803e-05
1290,2.04088e-05,2.68687e-06,5.01158e-05,5.66952e-05,2.56592e-05,4.24423e-05
1291,2.15569e-05,-4.66777e-06,4.75517e-05,5.7237e-05,1.82077e-05,4.37079e-05
1292,2.10954e-05,-2.0214e-05,5.07047e-05,5.23506e-05,1.02196e-05,4.38614e-05
1293,2.27348e-05,-2.81778e-05,5.43257e-05,4.78843e-05,9.81562e-06,4.15887e-05
1294,2.33357e-05,-1.83169e-05,5.35593e-05,5.03456e-05,1.23341e-05,3.85466e-05
1295,1.90142e-05,-1.20463e-06,5.17782e-05,5.68423e-05,1.17225e-05,3.78336e-05
1296,1.08746e-05,5.90243e-06,5.3167e-05,6.12285e-05,1.29063e-05,3.8005e-05
1297,5.98862e-06,2.11281e-06,5.24639e-05,5.9687e-05,1.57887e-05,3.81549e-05
1298,9.43603e-06,-1.22558e-05,4.59417e-05,5.05288e-05,1.73484e-05,3.61878e-05
1299,1.44538e-05,-2.42859e-05,4.10428e-05,4.28422e-05,1.49972e-05,3.20556e-05
1300,1.47656e-05,-1.602e-05,4.44108e-05,4.83799e-05,1.06511e-05,3.23355e-05
1301,1.28573e-05,-2.69565e-06,5.12352e-05,5.93702e-05,9.60889e-06,3.65639e-05
1302,1.2679e-05,4.03647e-06,5.49466e-05,6.36014e-05,1.36415e-05,3.92014e-05
1303,1.41261e-05,8.90137e-06,5.22415e-05,6.11571e-05,1.77466e-05,3.82936e-05
1304,1.65715e-05,1.06828e-05,4.50297e-05,5.61093e-05,1.99776e-05,3.61921e-05
1305,1.74637e-05,9.63633e-06,4.08551e-05,5.31088e-05,1.99886e-05,3.58887e-05
1306,1.40391e-05,-6.11583e-07,4.54195e-05,5.16151e-05,1.6724e-05,3.34429e-05
1307,1.01142e-05,-1.65423e-05,5.34893e-05,4.94172e-05,1.36205e-05,2.77934e-05
1308,1.05758e-05,-1.98462e-05,5.60332e-05,4.84485e-05,1.52031e-05,2.50721e-05
1309,1.54851e-05,-6.05309e-06,5.22092e-05,5.03401e-05,1.92755e-05,2.95713e-05
1310,1.99045e-05,7.8416e-06,4.68097e-05,5.09303e-05,2.0907e-05,3.73935e-05
1311,2.01366e-05,1.40887e-05,4.36957e-05,4.95266e-05,2.04705e-05,4.19844e-05
1312,1.63188e-05,1.18167e-05,4.61974e-05,4.52892e-05,1.81646e-05,3.97743e-05
1313,1.17479e-05,2.10171e-06,5.35747e-05,3.90299e-05,1.47439e-05,3.62353e-05
1314,9.80798e-06,-3.96231e-06,5.91085e-05,3.76406e-05,1.45846e-05,3.90778e-05
1315,1.09765e-05,8.25547e-07,6.14979e-05,4.27366e-05,2.0322e-05,4.49084e-05
1316,1.65543e-05,7.78978e-06,6.04749e-05,4.83036e-05,2.59357e-05,4.59108e-05
1317,2.31141e-05,6.61388e-06,5.5453e-05,5.021e-05,2.63284e-05,4.26379e-05
1318,2.17511e-05,-3.04602e-06,5.31486e-05,4.76994e-05,2.50195e-05,3.90199e-05
1319,1.45087e-05,-1.72177e-05,5.59653e-05,4.02889e-05,2.78201e-05,3.5947e-05
1320,1.15214e-05,-2.36839e-05,5.9334e-05,3.46215e-05,3.19216e-05,3.52774e-05
1321,1.36846e-05,-1.37782e-05,5.9759e-05,3.76076e-05,3.17677e-05,3.76491e-05
1322,1.65258e-05,3.95095e-07,5.71981e-05,4.572e-05,2.71006e-05,4.19484e-05
1323,1.65588e-05,3.31402e-06,5.72079e-05,5.04408e-05,2.08263e-05,4.57852e-05
1324,1.47934e-05,-5.23871e-06,5.63732e-05,4.91386e-05,1.65073e-05,4.40216e-05
1325,1.46895e-05,-2.3444e-05,5.00999e-05,4.12754e-05,1.49437e-05,3.50297e-05
1326,1.35261e-05,-3.25292e-05,4.43549e-05,3.36993e-05,1.44576e-05,2.80624e-05
1327,1.08421e-05,-1.57925e-05,4.65647e-05,3.77135e-05,1.53087e-05,2.94105e-05
1328,9.88221e-06,3.69579e-06,5.41073e-05,4.7324e-05,1.81629e-05,3.1855e-05
1329,1.05161e-05,7.64685e-06,5.82143e-05,5.37011e-05,2.15486e-05,3.1911e-05
1330,1.07539e-05,7.6546e-06,5.48611e-05,5.86872e-05,2.28281e-05,3.54993e-05
1331,1.23165e-05,9.45194e-06,4.70243e-05,6.27429e-05,2.12604e-05,4.0649e-05
1332,1.47517e-05,1.10376e-05,4.15218e-05,6.5712e-05,1.68454e-05,4.3306e-05
1333,1.37968e-05,4.05054e-06,4.39068e-05,6.14986e-05,1.23154e-05,3.95297e-05
1334,1.14968e-05,-1.1059e-05,5.11834e-05,5.25889e-05,1.20873e-05,3.13839e-05
1335,1.17679e-05,-1.58736e-05,5.55388e-05,4.97052e-05,1.57776e-05,2.61529e-05
1336,1.4815e-05,-4.25941e-06,5.46952e-05,5.38844e-05,1.90541e-05,2.78583e-05
1337,1.84394e-05,7.12236e-06,5.0274e-05,5.90321e-05,1.92683e-05,3.4087e-05
1338,1.9905e-05,8.3793e-06,4.60217e-05,6.0578e-05,1.71975e-05,3.91155e-05
1339,1.80952e-05,-1.05431e-06,4.73512e-05,5.82219e-05,1.34078e-05,3.8055e-05
1340,1.66479e-05,-1.60843e-05,5.3947e-05,5.29521e-05,1.07636e-05,3.12034e-05
1341,1.67535e-05,-2.11143e-05,5.8267e-05,4.91916e-05,1.14268e-05,2.74201e-05
1342,1.69216e-05,-9.04574e-06,5.78904e-05,5.00898e-05,1.39135e-05,3.07282e-05
1343,1.66162e-05,4.61405e-06,5.3993e-05,5.42563e-05,1.75975e-05,3.51341e-05
1344,1.57467e-05,4.96125e-06,5.19753e-05,5.7873e-05,2.01494e-05,3.51689e-05
1345,1.51939e-05,-5.93906e-06,5.6093e-05,5.88893e-05,1.71366e-05,3.21812e-05
1346,1.44822e-05,-2.02576e-05,5.97146e-05,5.55047e-05,1.21204e-05,2.71424e-05
1347,1.46568e-05,-2.4948e-05,5.57729e-05,5.15829e-05,9.79906e-06,2.44389e-05
1348,1.47866e-05,-1.18898e-05,4.90068e-05,5.37633e-05,9.57687e-06,2.9746e-05
1349,1.34927e-05,5.12186e-06,4.90372e-05,5.90363e-05,1.11704e-05,3.76188e-05
1350,1.29775e-05,8.60671e-06,5.6529e-05,6.27261e-05,1.5142e-05,4.14088e-05
1351,1.35777e-05,1.48871e-06,6.24178e-05,6.35717e-05,1.8956e-05,4.05795e-05
1352,1.70314e-05,-1.31327e-05,5.93939e-05,5.87821e-05,2.01595e-05,3.47756e-05
1353,2.19338e-05,-2.18419e-05,5.19191e-05,5.41865e-05,1.76233e-05,3.22674e-05
1354,2.22805e-05,-9.75679e-06,5.15415e-05,5.84348e-05,1.09842e-05,3.62531e-05
1355,1.66172e-05,3.56651e-06,5.78265e-05,6.41454e-05,6.631e-06,3.86024e-05
1356,1.00298e-05,4.9e-06,6.1849e-05,6.37931e-05,9.5238e-06,3.8508e-05
1357,8.79662e-06,3.77542e-06,5.89559e-05,6.13241e-05,1.49273e-05,4.05211e-05
1358,1.36425e-05,3.47351e-06,5.06428e-05,5.92462e-05,1.66211e-05,3.99653e-05
1359,1.86012e-05,4.27838e-06,4.41038e-05,5.84816e-05,1.47179e-05,3.55653e-05
1360,1.68508e-05,-2.51453e-06,4.54564e-05,5.60074e-05,1.30882e-05,3.09653e-05
1361,1.20606e-05,-1.72912e-05,5.16578e-05,4.97623e-05,1.33303e-05,2.6117e-05
1362,1.16249e-05,-2.15056e-05,5.46364e-05,4.72408e-05,1.42507e-05,2.5042e-05
1363,1.60655e-05,-8.14238e-06,5.2444e-05,5.11875e-05,1.38356e-05,2.99852e-05
1364,2.06274e-05,5.19246e-06,4.75278e-05,5.49284e-05,1.11102e-05,3.62377e-05
1365,2.22567e-05,7.85365e-06,4.28918e-05,5.45045e-05,7.66619e-06,3.72618e-05
1366,1.87402e-05,-1.38557e-06,4.31437e-05,5.07114e-05,6.5945e-06,3.13249e-05
1367,1.14076e-05,-1.87197e-05,4.74871e-05,4.63645e-05,1.00054e-05,2.36213e-05
1368,7.08624e-06,-2.89598e-05,4.92042e-05,4.56397e-05,1.42207e-05,2.39574e-05
1369,8.33329e-06,-2.30845e-05,4.84899e-05,4.97462e-05,1.42527e-05,3.22788e-05
1370,1.13099e-05,-1.01434e-05,4.85519e-05,5.34054e-05,1.13795e-05,3.76086e-05
1371,1.20317e-05,-3.52564e-06,4.98576e-05,5.30406e-05,8.184e-06,3.5213e-05
1372,1.00095e-05,-7.4224e-06,5.31207e-05,5.03103e-05,5.07812e-06,2.92106e-05
1373,6.5546e-06,-2.06677e-05,5.70728e-05,4.69584e-05,4.02938e-06,2.45744e-05
1374,6.51048e-06,-2.87118e-05,5.8618e-05,4.67229e-05,9.24087e-06,2.74774e-05
1375,1.15595e-05,-1.76808e-05,5.72657e-05,5.25101e-05,1.5016e-05,3.71589e-05
1376,1.55019e-05,-2.03268e-07,5.53088e-05,6.03343e-05,1.52562e-05,4.33193e-05
1377,1.46591e-05,4.38287e-06,5.71727e-05,6.30815e-05,1.34723e-05,4.2138e-05
1378,1.23562e-05,-1.90178e-06,5.99728e-05,6.0995e-05,1.14719e-05,3.91822e-05
1379,1.40241e-05,-1.46319e-05,5.46833e-05,5.73303e-05,1.0833e-05,3.68376e-05
1380,1.62027e-05,-2.19983e-05,4.5725e-05,5.66771e-05,1.17929e-05,3.62629e-05
1381,1.3372e-05,-1.06333e-05,4.44809e-05,6.11068e-05,1.27688e-05,3.66961e-05
1382,9.01242e-06,5.83676e-07,4.94783e-05,6.12436e-05,1.41334e-05,3.49096e-05
1383,7.75811e-06,5.22732e-08,5.33107e-05,5.74289e-05,1.62726e-05,3.46563e-05
1384,1.10615e-05,-8.09753e-07,5.18487e-05,5.84268e-05,1.78857e-05,3.56805e-05
1385,1.70315e-05,-3.90569e-07,4.56626e-05,6.14452e-05,1.92348e-05,3.58381e-05
1386,2.14714e-05,-1.98295e-06,4.04006e-05,6.16453e-05,1.91451e-05,3.64739e-05
1387,1.9468e-05,-1.31489e-05,4.27252e-05,5.80788e-05,1.63016e-05,3.7016e-05
1388,1.2969e-05,-3.05207e-05,5.04543e-05,5.09356e-05,1.34044e-05,3.69483e-05
1389,8.20086e-06,-3.48051e-05,5.62043e-05,4.7761e-05,1.30146e-05,3.7932e-05
1390,8.52872e-06,-1.94606e-05,5.64636e-05,5.39617e-05,1.36591e-05,4.13243e-05
1391,1.33275e-05,-2.4472e-06,5.06496e-05,6.06138e-05,1.29431e-05,4.2892e-05
1392,1.82691e-05,3.58066e-06,4.31327e-05,6.05413e-05,1.02889e-05,4.14845e-05
1393,1.86536e-05,-3.0571e-06,4.3826e-05,5.50194e-05,6.96013e-06,3.90783e-05
1394,1.53577e-05,-1.56158e-05,5.42734e-05,4.93566e-05,6.62097e-06,3.38424e-05
1395,1.24629e-05,-1.9822e-05,6.28727e-05,4.76186e-05,1.06112e-05,2.88407e-05
1396,1.13422e-05,-1.00082e-05,6.25295e-05,4.9853e-05,1.44568e-05,3.19156e-05
1397,1.15579e-05,2.59497e-06,5.61524e-05,5.32559e-05,1.43918e-05,4.11666e-05
1398,1.18408e-05,5.06936e-06,4.83945e-05,5.65375e-05,1.34003e-05,4.75096e-05
1399,1.07092e-05,-4.12584e-06,4.44428e-05,5.71261e-05,1.42251e-05,4.61315e-05
1400,8.17877e-06,-1.95198e-05,4.84039e-05,5.35576e-05,1.58202e-05,3.81317e-05
1401,6.63031e-06,-2.69135e-05,5.65074e-05,5.28575e-05,1.62787e-05,3.13251e-05
1402,7.30767e-06,-1.73478e-05,5.8037e-05,6.01379e-05,1.4422e-05,3.38189e-05
1403,7.72636e-06,-1.46952e-07,5.24844e-05,6.77253e-05,1.37753e-05,4.13388e-05
1404,5.29731e-06,9.09005e-06,5.04073e-05,6.73362e-05,1.53464e-05,4.45932e-05
1405,3.64143e-06,5.50781e-06,5.19632e-05,6.25143e-05,1.61681e-05,4.2599e-05
1406,7.32007e-06,-1.25491e-05,4.98294e-05,5.60963e-05,1.81857e-05,3.80034e-05
1407,1.24648e-05,-2.59861e-05,4.42529e-05,5.19799e-05,1.99231e-05,3.79475e-05
1408,1.14614e-05,-1.43313e-05,4.40268e-05,5.49527e-05,1.93909e-05,4.49178e-05
1409,5.65588e-06,2.77848e-06,4.96743e-05,5.70842e-05,1.91828e-05,4.97986e-05
1410,2.27276e-06,7.50574e-06,5.50833e-05,5.6924e-05,1.9146e-05,5.21389e-05
1411,4.13491e-06,7.94143e-06,5.40538e-05,5.97846e-05,1.72932e-05,5.30941e-05
1412,1.00319e-05,7.3232e-06,4.67752e-05,6.11001e-05,1.58574e-05,5.13466e-05
1413,1.41999e-05,4.21921e-06,4.13792e-05,5.95906e-05,1.62013e-05,4.8492e-05
1414,1.05294e-05,-5.04696e-06,4.53436e-05,5.59302e-05,1.57378e-05,4.25612e-05
1415,2.91132e-06,-1.93238e-05,5.52835e-05,5.22827e-05,1.5295e-05,3.58655e-05
1416,-1.34288e-06,-2.28123e-05,6.2651e-05,5.22009e-05,1.77507e-05,3.46999e-05
1417,-6.52466e-07,-9.21699e-06,6.44341e-05,5.56856e-05,2.17381e-05,4.07368e-05
1418,1.98767e-06,7.43804e-06,6.00943e-05,5.87674e-05,2.30421e-05,4.66957e-05
1419,5.24458e-06,1.46478e-05,5.19525e-05,6.00465e-05,2.08751e-05,4.76776e-05
1420,7.20767e-06,7.89016e-06,4.79367e-05,5.88979e-05,1.68468e-05,4.22271e-05
1421,5.13719e-06,-6.83297e-06,5.0503e-05,5.38889e-05,1.34017e-05,3.3639e-05
1422,2.40697e-06,-1.57936e-05,5.36172e-05,4.77568e-05,1.24687e-05,2.97283e-05
1423,3.72153e-06,-1.24838e-05,5.60996e-05,4.61791e-05,1.40336e-05,3.31432e-05
1424,7.45127e-06,-4.41772e-06,5.5417e-05,5.09019e-05,1.69636e-05,3.92005e-05
1425,9.49095e-06,-1.42525e-07,5.31948e-05,5.70416e-05,1.98541e-05,4.28901e-05
1426,6.76865e-06,-3.82255e-06,5.46244e-05,5.83053e-05,1.9772e-05,4.25668e-05
1427,4.02544e-07,-1.69652e-05,5.76073e-05,5.18786e-05,1.66026e-05,3.79815e-05
1428,-3.19675e-06,-2.79911e-05,5.70369e-05,4.48637e-05,1.50656e-05,3.37834e-05
1429,-5.35487e-07,-2.3509e-05,5.54556e-05,4.59602e-05,1.51414e-05,3.34808e-05
1430,4.39646e-06,-1.11468e-05,5.70343e-05,5.20991e-05,1.54316e-05,3.59371e-05
1431,8.6279e-06,-5.15416e-06,5.99229e-05,5.35663e-05,1.61425e-05,3.83716e-05
1432,1.27939e-05,-7.32846e-06,6.08197e-05,4.85061e-05,1.73805e-05,3.94509e-05
1433,1.5946e-05,-1.9102e-05,5.71906e-05,4.23483e-05,1.88756e-05,3.80402e-05
1434,1.64523e-05,-2.76214e-05,5.21073e-05,4.17216e-05,1.86248e-05,3.81146e-05
1435,1.19768e-05,-1.52234e-05,5.21903e-05,4.94332e-05,1.60855e-05,4.40939e-05
1436,6.9162e-06,-1.57713e-06,5.46323e-05,5.63524e-05,1.39486e-05,4.54432e-05
1437,6.49997e-06,5.96785e-07,5.61227e-05,6.0254e-05,1.64522e-05,3.88715e-05
1438,1.04191e-05,1.81423e-06,5.54541e-05,6.42751e-05,2.13738e-05,3.57292e-05
1439,1.50329e-05,1.8106e-06,4.98486e-05,6.31079e-05,2.42595e-05,3.79301e-05
1440,1.67592e-05,-1.06788e-06,4.29573e-05,5.88861e-05,2.4314e-05,3.95e-05
1441,1.39058e-05,-1.15171e-05,4.42014e-05,5.49795e-05,2.24529e-05,3.53459e-05
1442,1.02887e-05,-2.46843e-05,5.35208e-05,5.26668e-05,2.04516e-05,3.19882e-05
1443,1.07835e-05,-2.62089e-05,6.16992e-05,5.25063e-05,1.99599e-05,3.73515e-05
1444,1.4911e-05,-1.24565e-05,6.4275e-05,5.61795e-05,2.01881e-05,4.51637e-05
1445,1.87951e-05,5.28332e-07,6.14399e-05,6.15285e-05,2.00975e-05,4.74313e-05
1446,1.96009e-05,4.92975e-06,5.61452e-05,6.53107e-05,1.95453e-05,4.43091e-05
1447,1.8227e-05,-4.40112e-07,5.39242e-05,6.39927e-05,1.75011e-05,3.67354e-05
1448,1.7489e-05,-1.30437e-05,5.66256e-05,5.75825e-05,1.69055e-05,2.88204e-05
1449,2.05253e-05,-1.9184e-05,5.90267e-05,5.37436e-05,2.01354e-05,2.94706e-05
1450,2.58218e-05,-1.00501e-05,5.83859e-05,5.6778e-05,2.3958e-05,3.94093e-05
1451,2.94761e-05,4.33023e-06,5.3454e-05,6.23613e-05,2.52541e-05,4.88792e-05
1452,2.93264e-05,1.04167e-05,4.54633e-05,6.49581e-05,2.39369e-05,5.12788e-05
1453,2.55022e-05,4.58658e-06,4.19699e-05,6.26967e-05,2.07031e-05,4.65336e-05
1454,2.15418e-05,-1.06483e-05,4.70218e-05,5.58895e-05,1.84448e-05,3.85741e-05
1455,2.01171e-05,-1.91487e-05,5.60598e-05,5.20197e-05,1.9504e-05,3.56298e-05
1456,1.79219e-05,-1.1387e-05,6.10249e-05,5.60365e-05,1.88694e-05,3.86242e-05
1457,1.48329e-05,1.1969e-08,6.09379e-05,5.96398e-05,1.62997e-05,4.22925e-05
1458,1.29784e-05,1.94509e-06,6.05184e-05,5.67786e-05,1.57279e-05,4.37072e-05
1459,1.31125e-05,-1.03139e-06,5.7597e-05,5.44935e-05,1.80076e-05,4.24858e-05
1460,1.52802e-05,-9.39629e-06,5.18579e-05,5.2888e-05,2.12779e-05,3.7104e-05
1461,1.63199e-05,-1.76453e-05,4.88536e-05,5.28083e-05,1.9002e-05,3.23353e-05
1462,1.38571e-05,-1.13172e-05,5.24192e-05,5.91086e-05,1.17038e-05,3.66321e-05
1463,1.09882e-05,-6.12908e-07,5.64244e-05,6.37588e-05,7.12503e-06,4.25143e-05
1464,1.0919e-05,3.67995e-06,5.68333e-05,6.39064e-05,9.13233e-06,4.44308e-05
1465,1.46175e-05,6.2661e-06,5.45531e-05,6.39047e-05,1.2015e-05,4.26654e-05
1466,2.08671e-05,8.13019e-06,5.04221e-05,6.36787e-05,1.21835e-05,3.87691e-05
1467,2.412e-05,7.56839e-06,4.72042e-05,6.52322e-05,1.02867e-05,3.83608e-05
1468,2.11096e-05,-2.98528e-06,4.86792e-05,6.37135e-05,7.29785e-06,3.86531e-05
1469,1.63131e-05,-1.93684e-05,5.40832e-05,5.73823e-05,6.30692e-06,3.75644e-05
1470,1.47867e-05,-2.38594e-05,5.68906e-05,5.21389e-05,9.51238e-06,3.65479e-05
1471,1.61542e-05,-1.05098e-05,5.39712e-05,5.26663e-05,1.43165e-05,3.60496e-05
1472,1.73498e-05,4.16939e-06,4.74931e-05,5.59136e-05,1.66729e-05,3.54774e-05
1473,1.6901e-05,7.71563e-06,4.44476e-05,5.81223e-05,1.45234e-05,3.65606e-05
1474,1.52117e-05,-1.31153e-06,5.00931e-05,5.73435e-05,9.34693e-06,3.62947e-05
1475,1.34736e-05,-1.60069e-05,5.99482e-05,5.36543e-05,6.95619e-06,3.32767e-05
1476,1.40523e-05,-2.08852e-05,6.49009e-05,5.10278e-05,9.20002e-06,3.24386e-05
1477,1.61895e-05,-1.0114e-05,6.32329e-05,5.15603e-05,1.18868e-05,3.45841e-05
1478,1.87678e-05,4.894e-06,5.71273e-05,5.28081e-05,1.25474e-05,3.51695e-05
1479,2.05195e-05,1.16426e-05,4.99925e-05,5.25261e-05,1.20059e-05,3.34388e-05
1480,1.88714e-05,5.77511e-06,4.76338e-05,5.17878e-05,8.39075e-06,3.22029e-05
1481,1.52848e-05,-1.1146e-05,5.28679e-05,4.94773e-05,4.8484e-06,3.21011e-05
1482,1.18032e-05,-2.22865e-05,5.98242e-05,4.71904e-05,5.57857e-06,3.38925e-05
1483,9.6031e-06,-1.4673e-05,6.05136e-05,4.70778e-05,7.88486e-06,3.84612e-05
1484,9.45521e-06,8.30753e-07,5.64983e-05,4.91667e-05,1.0467e-05,4.38961e-05
1485,1.05646e-05,8.05079e-06,5.35172e-05,5.22905e-05,1.46183e-05,4.58915e-05
1486,1.28431e-05,3.92858e-06,5.10866e-05,5.55098e-05,1.7927e-05,4.2809e-05
1487,1.58443e-05,-1.10771e-05,4.79832e-05,5.30084e-05,1.74645e-05,3.31836e-05
1488,1.5956e-05,-2.37517e-05,4.52653e-05,4.67566e-05,1.22519e-05,2.5361e-05
1489,1.19275e-05,-1.52889e-05,4.70262e-05,4.45757e-05,6.47575e-06,3.11564e-05
1490,9.50691e-06,1.07702e-08,5.13865e-05,4.4711e-05,6.1042e-06,4.08701e-05
1491,1.22668e-05,6.3805e-06,5.34208e-05,4.32521e-05,8.30572e-06,4.1754e-05
1492,1.67454e-05,9.66192e-06,5.0673e-05,4.06506e-05,7.67421e-06,4.13584e-05
1493,1.94506e-05,1.07257e-05,4.47324e-05,4.03749e-05,6.58295e-06,4.43153e-05
1494,2.08469e-05,1.06564e-05,4.08823e-05,4.43512e-05,7.81552e-06,4.59946e-05
1495,2.01473e-05,1.48175e-06,4.38204e-05,4.83281e-05,1.08964e-05,4.32271e-05
1496,1.84415e-05,-1.55027e-05,5.07526e-05,4.6762e-05,1.56486e-05,3.90616e-05
1497,1.65979e-05,-1.93866e-05,5.57399e-05,4.51906e-05,1.88615e-05,3.85401e-05
1498,1.33803e-05,-4.29654e-06,5.7253e-05,5.06433e-05,1.66341e-05,4.1207e-05
1499,1.15101e-05,8.96644e-06,5.31288e-05,5.7459e-05,1.03826e-05,4.287e-05
1500,1.39037e-05,9.79803e-06,4.61559e-05,5.943e-05,5.1679e-06,4.07643e-05
1501,1.72191e-05,3.5903e-07,4.56509e-05,5.46786e-05,4.71187e-06,3.48716e-05
1502,1.7865e-05,-1.37519e-05,5.21895e-05,4.63796e-05,1.00157e-05,2.85366e-05
1503,1.55731e-05,-1.92784e-05,5.53717e-05,4.15989e-05,1.71382e-05,2.60691e-05
1504,1.21651e-05,-9.20326e-06,5.23043e-05,4.53935e-05,2.159e-05,2.71878e-05
1505,1.26397e-05,5.84007e-06,4.79488e-05,5.24979e-05,2.34952e-05,2.92542e-05
1506,1.68921e-05,1.26336e-05,4.56167e-05,5.53285e-05,2.43904e-05,2.97358e-05
1507,1.7825e-05,7.76979e-06,4.55684e-05,5.12332e-05,2.19344e-05,2.87942e-05
1508,1.49806e-05,-6.01602e-06,4.85153e-05,4.25558e-05,1.79779e-05,2.70402e-05
1509,1.31977e-05,-1.44363e-05,5.11948e-05,3.90849e-05,1.60462e-05,2.75809e-05
1510,1.14369e-05,-6.86386e-06,5.17005e-05,4.66453e-05,1.55656e-05,3.46786e-05
1511,7.05318e-06,8.86027e-06,5.1328e-05,5.54513e-05,1.77677e-05,4.41075e-05
1512,1.53822e-06,1.70881e-05,5.30845e-05,5.66598e-05,1.92505e-05,4.84283e-05
1513,5.0071e-07,1.17554e-05,5.46339e-05,5.37002e-05,1.90908e-05,4.72804e-05
1514,4.69123e-06,-7.09825e-06,5.1871e-05,4.78212e-05,1.9186e-05,4.23278e-05
1515,7.67628e-06,-2.10618e-05,4.81661e-05,4.57951e-05,1.68708e-05,3.81306e-05
1516,6.44485e-06,-1.11341e-05,4.84023e-05,5.23023e-05,1.15353e-05,4.14357e-05
1517,3.94713e-06,4.48231e-06,5.04254e-05,5.70166e-05,7.97661e-06,4.74502e-05
1518,1.4059e-06,7.10582e-06,5.09576e-05,5.75921e-05,1.09994e-05,4.88948e-05
1519,6.95597e-07,6.0789e-06,4.92484e-05,5.93334e-05,1.86826e-05,4.64628e-05
1520,2.97607e-06,6.76076e-06,4.52195e-05,6.17107e-05,2.575e-05,4.3616e-05
1521,5.20055e-06,8.37689e-06,4.31883e-05,6.41161e-05,2.76649e-05,4.31021e-05
1522,3.40044e-06,1.24625e-06,4.60044e-05,6.14066e-05,2.43537e-05,4.14908e-05
1523,3.30914e-07,-1.65195e-05,5.06504e-05,5.37184e-05,2.03522e-05,3.76483e-05
1524,2.3522e-06,-2.52941e-05,5.31939e-05,5.01763e-05,1.96354e-05,3.71836e-05
1525,8.2297e-06,-1.68865e-05,5.37124e-05,5.53227e-05,2.02355e-05,4.03159e-05
1526,1.14028e-05,-3.48938e-06,5.02387e-05,6.05922e-05,1.95594e-05,4.13332e-05
1527,9.88685e-06,3.89665e-06,4.25521e-05,6.01941e-05,1.88681e-05,4.14197e-05
1528,5.69226e-06,-4.4856e-07,3.89737e-05,5.54128e-05,1.83023e-05,4.33746e-05
1529,1.11456e-06,-1.32467e-05,4.43645e-05,5.04911e-05,1.66637e-05,4.3376e-05
1530,-1.22333e-06,-1.92139e-05,5.14048e-05,4.9483e-05,1.60747e-05,4.02853e-05
1531,-3.3368e-07,-9.77258e-06,5.40759e-05,5.40164e-05,1.76133e-05,3.95419e-05
1532,5.26513e-06,5.01353e-06,5.02689e-05,6.01442e-05,1.82582e-05,4.30967e-05
1533,1.34865e-05,1.22659e-05,4.33286e-05,6.25754e-05,1.64456e-05,4.70589e-05
1534,1.60615e-05,6.98711e-06,4.37706e-05,6.10126e-05,1.29754e-05,4.66476e-05
1535,1.03838e-05,-9.00796e-06,5.40043e-05,5.61425e-05,1.32207e-05,4.0156e-05
1536,5.78725e-06,-1.95563e-05,6.30618e-05,5.19941e-05,2.00706e-05,3.45002e-05
1537,7.08703e-06,-1.10636e-05,6.16257e-05,5.49078e-05,2.4726e-05,3.71325e-05
1538,1.06894e-05,6.56422e-06,5.63612e-05,6.27195e-05,2.06611e-05,4.52889e-05
1539,1.35325e-05,1.46569e-05,5.60861e-05,6.69832e-05,1.46852e-05,5.14894e-05
1540,1.33975e-05,9.03357e-06,5.71272e-05,6.59336e-05,1.52181e-05,5.14868e-05
1541,1.20093e-05,-8.06365e-06,5.50626e-05,5.67397e-05,1.9445e-05,4.52541e-05
1542,1.25688e-05,-2.07234e-05,5.33846e-05,4.73115e-05,2.01812e-05,3.98079e-05
1543,1.42523e-05,-1.08524e-05,5.75183e-05,4.87137e-05,1.52235e-05,4.11015e-05
1544,1.74508e-05,3.03372e-06,6.16253e-05,5.27025e-05,1.04338e-05,4.36094e-05
1545,2.05857e-05,5.68079e-06,6.10009e-05,5.32127e-05,1.24292e-05,4.15727e-05
1546,2.08477e-05,7.69195e-06,5.85274e-05,5.34874e-05,1.71876e-05,3.92248e-05
1547,2.09235e-05,9.66131e-06,5.60968e-05,5.31103e-05,2.06135e-05,3.93833e-05
1548,2.32671e-05,9.35629e-06,5.4713e-05,5.46316e-05,2.29238e-05,3.83888e-05
1549,2.32246e-05,1.37009e-06,5.61537e-05,5.46341e-05,2.50984e-05,3.39542e-05
1550,1.78856e-05,-1.44878e-05,6.03663e-05,4.91795e-05,2.74062e-05,2.98684e-05
1551,1.23034e-05,-2.05544e-05,6.42944e-05,4.51116e-05,2.85189e-05,3.0594e-05
1552,1.28533e-05,-9.17066e-06,6.56886e-05,4.88362e-05,2.74759e-05,3.44684e-05
1553,1.71554e-05,2.26259e-06,6.25245e-05,5.45782e-05,2.43676e-05,3.68187e-05
1554,1.68866e-05,2.60425e-06,5.65197e-05,5.62808e-05,1.96631e-05,3.75078e-05
1555,1.03644e-05,-5.57188e-06,5.41986e-05,5.40675e-05,1.53943e-05,3.69318e-05
1556,3.66925e-06,-1.70485e-05,5.7547e-05,4.98496e-05,1.40401e-05,3.41291e-05
1557,2.51804e-06,-2.08346e-05,5.92288e-05,4.77672e-05,1.46125e-05,3.24078e-05
1558,5.71516e-06,-1.03768e-05,5.70398e-05,5.04597e-05,1.42492e-05,3.39345e-05
1559,1.05979e-05,3.95554e-06,5.44194e-05,5.50618e-05,1.13863e-05,3.5957e-05
1560,1.37872e-05,7.82276e-06,5.19539e-05,5.69388e-05,7.31596e-06,3.77234e-05
1561,1.06451e-05,-2.24245e-06,5.12265e-05,5.49516e-05,5.26143e-06,3.75133e-05
1562,3.78426e-06,-1.9507e-05,5.42642e-05,4.99097e-05,5.47113e-06,3.30913e-05
1563,-1.90422e-07,-2.70265e-05,5.78335e-05,4.77165e-05,7.4048e-06,3.0442e-05
1564,-1.10362e-07,-1.68524e-05,5.85752e-05,5.1635e-05,1.04712e-05,3.3692e-05
1565,2.98763e-06,-2.19625e-06,5.69793e-05,5.5761e-05,1.10075e-05,3.84237e-05
1566,6.65359e-06,3.03217e-06,5.79655e-05,5.60412e-05,9.05987e-06,4.14569e-05
1567,7.46474e-06,-5.32532e-06,6.14619e-05,5.42955e-05,8.45532e-06,4.07046e-05
1568,6.60068e-06,-2.88031e-05,5.99852e-05,5.0002e-05,1.15047e-05,3.42158e-05
1569,5.56025e-06,-4.50934e-05,5.42886e-05,4.84982e-05,1.46871e-05,3.05449e-05
1570,3.91717e-06,-3.16554e-05,5.21851e-05,5.62326e-05,1.45084e-05,3.56972e-05
1571,3.99131e-06,-1.21813e-05,5.46923e-05,6.28305e-05,1.48234e-05,3.84501e-05
