Time_Index,DELTOID_Affected,DELTOID_NonAffected,BICEPS_Affected,BICEPS_NonAffected,FOREARM_Affected,FOREARM_NonAffected
1,1.81294e-05,-1.14512e-05,4.05861e-05,5.23122e-05,1.3842e-05,4.09187e-05
2,1.68235e-05,-6.19538e-06,4.87732e-05,5.62344e-05,1.34097e-05,4.02045e-05
3,1.42263e-05,-4.5214e-06,5.62291e-05,5.83662e-05,1.31783e-05,4.27203e-05
4,1.44769e-05,-1.40932e-06,5.8899e-05,6.07274e-05,1.1676e-05,4.44056e-05
5,1.78192e-05,-1.13958e-06,5.54965e-05,5.9306e-05,9.07194e-06,4.36589e-05
6,2.155e-05,-6.77897e-06,5.00118e-05,5.35887e-05,5.63071e-06,3.9467e-05
7,2.2503e-05,-1.94271e-05,5.02926e-05,4.76735e-05,3.18e-06,3.30076e-05
8,2.07505e-05,-2.68196e-05,5.77331e-05,4.67718e-05,3.75375e-06,2.87238e-05
9,1.9426e-05,-1.84804e-05,6.43276e-05,5.20384e-05,5.5801e-06,3.05382e-05
10,1.95996e-05,-4.59237e-06,6.56125e-05,5.73986e-05,6.9371e-06,3.576e-05
11,2.08218e-05,7.9328e-07,6.0068e-05,5.87449e-05,6.82081e-06,3.90524e-05
12,2.1221e-05,-4.23151e-06,5.22994e-05,5.73219e-05,5.85506e-06,3.95645e-05
13,1.68433e-05,-1.39322e-05,5.04486e-05,5.36454e-05,5.22038e-06,3.90732e-05
14,1.03366e-05,-1.76019e-05,5.75479e-05,5.10292e-05,5.00232e-06,3.92532e-05
15,7.01068e-06,-9.51225e-06,6.77582e-05,5.39187e-05,5.97527e-06,4.06701e-05
16,6.31617e-06,1.60557e-06,7.03936e-05,6.1303e-05,-5.9945e-07,4.1981e-05
17,6.00491e-06,4.21755e-06,6.4812e-05,6.69026e-05,-1.4121e-05,4.24112e-05
18,8.08148e-06,-1.61259e-06,6.36919e-05,6.60942e-05,-1.75336e-05,4.11839e-05
19,1.1459e-05,-1.10524e-05,6.37871e-05,5.99235e-05,-7.78247e-06,3.65094e-05
20,1.24161e-05,-1.80558e-05,5.70098e-05,5.44087e-05,8.31776e-06,3.10923e-05
21,1.0871e-05,-1.41806e-05,4.8624e-05,5.53824e-05,2.08146e-05,3.16756e-05
22,7.70902e-06,-2.62853e-06,4.94471e-05,6.1417e-05,2.60691e-05,3.77659e-05
23,6.45421e-06,4.40998e-06,5.53445e-05,6.60196e-05,3.0027e-05,4.21712e-05
24,6.01011e-06,4.35274e-06,5.75277e-05,6.41343e-05,3.52016e-05,4.03844e-05
25,4.20391e-06,-3.23589e-06,5.33204e-05,5.54091e-05,3.41549e-05,3.2226e-05
26,6.34491e-07,-1.57657e-05,4.51389e-05,4.73137e-05,2.18799e-05,2.40095e-05
27,-2.09609e-06,-1.56751e-05,4.14524e-05,5.04389e-05,9.51516e-06,2.46706e-05
28,-2.89342e-06,-3.57663e-06,4.73254e-05,5.99987e-05,8.5225e-06,3.32039e-05
29,-5.6932e-07,2.10634e-06,5.70756e-05,6.40446e-05,1.66238e-05,3.8542e-05
30,3.19658e-06,2.07618e-06,5.9598e-05,6.46151e-05,2.40475e-05,3.78977e-05
31,5.3153e-06,2.80412e-06,5.55097e-05,6.64431e-05,2.35825e-05,3.62191e-05
32,6.59856e-06,4.11025e-06,5.00729e-05,6.73472e-05,1.76905e-05,3.64685e-05
33,8.73061e-06,1.96059e-06,4.65091e-05,6.44971e-05,1.51475e-05,3.71236e-05
34,1.02786e-05,-9.49282e-06,4.70148e-05,5.81502e-05,1.7394e-05,3.58532e-05
35,1.00882e-05,-1.80583e-05,5.06576e-05,5.4286e-05,2.0103e-05,3.73773e-05
36,9.4338e-06,-9.24469e-06,5.19285e-05,5.63393e-05,2.44022e-05,4.49205e-05
37,9.45261e-06,6.14266e-06,5.01991e-05,6.11609e-05,2.96019e-05,5.29962e-05
38,1.2813e-05,1.25548e-05,4.43259e-05,6.39233e-05,2.89609e-05,5.50688e-05
39,1.77712e-05,8.10958e-06,3.64477e-05,6.23718e-05,2.22428e-05,4.98401e-05
40,2.0528e-05,-4.08949e-06,3.65442e-05,5.76966e-05,1.50565e-05,3.98009e-05
41,1.99963e-05,-1.38164e-05,4.43406e-05,5.50674e-05,1.43267e-05,3.14638e-05
42,1.89171e-05,-1.08248e-05,4.96247e-05,5.7113e-05,2.11054e-05,3.06553e-05
43,1.61509e-05,4.81293e-07,4.96742e-05,6.03663e-05,2.58167e-05,3.46761e-05
44,1.33222e-05,8.46274e-06,4.94922e-05,6.11938e-05,2.7458e-05,3.63938e-05
45,1.09967e-05,7.97301e-06,5.20218e-05,5.89464e-05,2.85455e-05,3.51873e-05
46,1.10233e-05,-5.39828e-07,5.2771e-05,5.42089e-05,2.21685e-05,3.44173e-05
47,1.63115e-05,-9.1362e-06,4.91462e-05,4.97046e-05,8.27762e-06,3.52813e-05
48,2.39155e-05,-4.71564e-06,4.49644e-05,5.08506e-05,-5.86923e-06,3.74276e-05
49,2.75566e-05,9.75647e-06,4.57236e-05,5.77542e-05,-7.31423e-06,3.92233e-05
50,2.48635e-05,1.82346e-05,4.8611e-05,6.3558e-05,5.65418e-06,3.93931e-05
51,1.97535e-05,1.48338e-05,5.19803e-05,6.27699e-05,1.97316e-05,3.7273e-05
52,1.59563e-05,1.0591e-06,5.39986e-05,5.65443e-05,2.5672e-05,3.366e-05
53,1.65325e-05,-1.51466e-05,5.02014e-05,4.98344e-05,2.16247e-05,3.11547e-05
54,1.8945e-05,-1.45443e-05,4.41751e-05,4.73962e-05,1.36902e-05,3.19396e-05
55,1.83078e-05,-2.61862e-08,4.38058e-05,4.86869e-05,7.8385e-06,3.42553e-05
56,1.72454e-05,5.62718e-06,5.00673e-05,5.06601e-05,5.52138e-06,3.38369e-05
57,1.90993e-05,2.4032e-06,5.69792e-05,5.2794e-05,4.3243e-06,3.13138e-05
58,2.05535e-05,-3.19828e-07,6.04603e-05,5.56806e-05,3.1366e-06,3.00415e-05
59,2.00574e-05,-2.66938e-06,5.80797e-05,5.81068e-05,6.21397e-07,3.22657e-05
60,1.82197e-05,-8.42261e-06,5.275e-05,5.70764e-05,-2.2228e-06,3.51074e-05
61,1.38416e-05,-2.0797e-05,5.19715e-05,5.15901e-05,-2.12449e-06,3.41062e-05
62,7.95798e-06,-2.82671e-05,5.67801e-05,4.68418e-05,1.63268e-06,3.38589e-05
63,5.34055e-06,-1.94935e-05,6.00496e-05,4.87519e-05,9.13969e-06,3.7355e-05
64,7.36434e-06,-4.15352e-06,6.01399e-05,5.44223e-05,1.69845e-05,3.99467e-05
65,1.08551e-05,1.9795e-06,5.73958e-05,5.77638e-05,2.02673e-05,3.89892e-05
66,1.47862e-05,-5.48522e-06,5.39037e-05,5.6872e-05,1.9648e-05,3.70852e-05
67,1.77204e-05,-2.10472e-05,5.42986e-05,5.19446e-05,1.56847e-05,3.64406e-05
68,1.55822e-05,-3.09774e-05,5.87492e-05,4.7081e-05,1.13091e-05,3.79173e-05
69,1.37607e-05,-2.43776e-05,5.97665e-05,4.78882e-05,1.26823e-05,4.14431e-05
70,1.41209e-05,-8.41431e-06,5.70591e-05,5.40583e-05,1.57546e-05,4.53848e-05
71,1.29463e-05,8.0344e-07,5.64428e-05,5.9705e-05,1.64012e-05,4.75316e-05
72,1.04016e-05,-3.07108e-06,5.84397e-05,6.10699e-05,1.72771e-05,4.59707e-05
73,8.80572e-06,-1.52093e-05,5.74644e-05,5.77414e-05,1.5871e-05,4.06409e-05
74,1.25695e-05,-2.37702e-05,5.09489e-05,5.19988e-05,1.26733e-05,3.62833e-05
75,1.55056e-05,-1.71154e-05,4.77453e-05,5.03368e-05,1.24882e-05,3.86811e-05
76,1.15564e-05,1.34138e-07,5.33811e-05,5.43617e-05,1.40317e-05,4.3787e-05
77,5.85964e-06,1.18291e-05,6.06497e-05,5.75143e-05,1.48676e-05,4.29283e-05
78,4.0959e-06,9.63607e-06,6.37159e-05,5.71142e-05,1.52048e-05,3.70347e-05
79,5.62118e-06,-5.07784e-06,6.18215e-05,5.36032e-05,1.76211e-05,3.19538e-05
80,8.99305e-06,-1.95051e-05,5.52255e-05,4.85237e-05,2.01727e-05,3.03919e-05
81,1.15666e-05,-1.5654e-05,4.98309e-05,4.93081e-05,1.95241e-05,3.58074e-05
82,9.70282e-06,-1.78659e-06,5.14319e-05,5.32721e-05,1.64835e-05,4.36531e-05
83,6.35209e-06,3.47145e-06,5.7024e-05,5.24173e-05,1.54453e-05,4.4477e-05
84,5.6049e-06,3.75054e-06,6.01802e-05,5.07144e-05,1.8235e-05,4.04081e-05
85,7.42846e-06,4.63454e-06,5.90581e-05,5.30141e-05,2.20872e-05,3.89366e-05
86,7.72218e-06,3.74849e-06,5.4196e-05,5.76959e-05,2.41697e-05,4.16912e-05
87,5.0705e-06,-1.02106e-06,4.70561e-05,5.81438e-05,2.42009e-05,4.16559e-05
88,7.83007e-07,-1.15125e-05,4.22852e-05,5.12497e-05,2.38963e-05,3.4784e-05
89,-6.99501e-07,-1.96306e-05,4.41741e-05,4.44582e-05,2.61138e-05,2.95682e-05
90,2.04508e-06,-1.43174e-05,4.94528e-05,4.44702e-05,3.15631e-05,3.18198e-05
91,4.06947e-06,-1.12559e-06,5.22615e-05,4.86499e-05,3.67399e-05,3.54782e-05
92,4.65512e-06,5.72685e-06,4.91498e-05,5.20759e-05,3.65615e-05,3.49128e-05
93,6.6503e-06,1.24734e-06,4.2092e-05,5.31483e-05,2.98462e-05,3.18607e-05
94,7.93058e-06,-1.16439e-05,4.16068e-05,5.11529e-05,2.12116e-05,2.85759e-05
95,6.78083e-06,-2.2431e-05,4.769e-05,4.84669e-05,1.50409e-05,2.69307e-05
96,7.03788e-06,-2.04858e-05,5.21652e-05,4.93362e-05,1.59726e-05,2.97413e-05
97,9.01027e-06,-9.2711e-06,5.18182e-05,5.35691e-05,2.00424e-05,3.66064e-05
98,1.02092e-05,-1.4071e-06,5.08104e-05,5.64068e-05,1.98564e-05,4.14089e-05
99,1.01684e-05,-3.80519e-06,5.44882e-05,5.52635e-05,1.66149e-05,3.95031e-05
100,9.30593e-06,-1.47183e-05,5.86556e-05,5.12904e-05,1.29776e-05,3.26545e-05
101,1.26134e-05,-2.29322e-05,5.55912e-05,4.77173e-05,1.35034e-05,2.77666e-05
102,1.81029e-05,-1.52277e-05,4.77092e-05,4.73573e-05,1.55164e-05,2.82453e-05
103,1.75886e-05,1.00832e-06,4.75565e-05,4.98032e-05,1.35565e-05,3.02692e-05
104,1.40962e-05,7.26374e-06,5.19488e-05,5.21796e-05,1.20129e-05,3.0459e-05
105,1.16682e-05,1.65983e-06,5.62864e-05,5.18094e-05,1.40231e-05,2.88779e-05
106,1.30326e-05,-1.01751e-05,5.62637e-05,4.76468e-05,1.80514e-05,2.71303e-05
107,1.87335e-05,-2.31958e-05,5.0872e-05,4.35846e-05,2.03943e-05,2.7839e-05
108,2.47869e-05,-2.20126e-05,4.5279e-05,4.7019e-05,1.9076e-05,3.15561e-05
109,2.51831e-05,-7.16651e-06,4.55773e-05,5.41257e-05,1.44431e-05,3.29879e-05
110,2.03099e-05,1.27176e-06,5.02156e-05,5.5188e-05,1.1935e-05,3.28887e-05
111,1.5387e-05,2.06359e-06,5.27596e-05,5.41327e-05,1.42356e-05,3.61537e-05
112,1.44559e-05,2.45996e-06,5.03898e-05,5.57762e-05,1.74079e-05,4.03777e-05
113,1.76704e-05,2.92402e-06,4.36955e-05,5.65711e-05,1.85955e-05,4.26614e-05
114,2.02692e-05,-6.21615e-07,3.90845e-05,5.54383e-05,1.95389e-05,4.1462e-05
115,1.80991e-05,-1.33037e-05,4.2292e-05,5.32155e-05,1.92811e-05,3.60395e-05
116,1.38079e-05,-2.26015e-05,5.0501e-05,5.18977e-05,1.70844e-05,3.29832e-05
117,1.21675e-05,-1.5805e-05,5.42289e-05,5.24721e-05,1.89615e-05,3.65095e-05
118,1.28738e-05,-3.07892e-06,5.25816e-05,5.44193e-05,2.42707e-05,4.21035e-05
119,1.54275e-05,1.79657e-06,4.69684e-05,5.60056e-05,2.40131e-05,4.5521e-05
120,1.80985e-05,-2.33871e-06,4.24779e-05,5.48481e-05,1.73368e-05,4.43649e-05
121,1.70732e-05,-1.27757e-05,4.42888e-05,5.02675e-05,1.16669e-05,3.89593e-05
122,1.61014e-05,-2.10138e-05,5.01829e-05,4.71783e-05,9.80968e-06,3.55485e-05
123,1.57662e-05,-1.77018e-05,5.47364e-05,5.10611e-05,1.09391e-05,3.88591e-05
124,1.26354e-05,-6.76111e-06,5.7602e-05,5.8652e-05,1.01555e-05,4.47189e-05
125,1.09549e-05,-7.02322e-07,5.9476e-05,6.31269e-05,6.08234e-06,4.6656e-05
126,1.03476e-05,-5.11006e-06,6.17712e-05,6.18297e-05,1.0743e-06,4.42434e-05
127,1.2989e-05,-1.68504e-05,5.78916e-05,5.51171e-05,5.35376e-07,3.97526e-05
128,1.88542e-05,-2.57861e-05,4.72384e-05,4.78296e-05,5.91334e-06,3.61937e-05
129,2.18021e-05,-1.96284e-05,4.076e-05,4.79265e-05,8.11552e-06,3.85857e-05
130,1.74916e-05,-3.42736e-06,4.45627e-05,5.46333e-05,3.78766e-06,4.6251e-05
131,1.07625e-05,5.3734e-06,5.17994e-05,5.94734e-05,5.27569e-07,5.2333e-05
132,7.64152e-06,1.82013e-06,5.7069e-05,5.85608e-05,3.29816e-06,5.23496e-05
133,8.94486e-06,-1.05658e-05,5.87959e-05,5.34081e-05,8.52827e-06,4.68787e-05
134,1.2956e-05,-2.3762e-05,5.40764e-05,4.89607e-05,1.24493e-05,4.21074e-05
135,1.48953e-05,-1.8728e-05,4.58572e-05,5.177e-05,1.32573e-05,4.19447e-05
136,1.32424e-05,2.50767e-06,4.29488e-05,5.80097e-05,1.16592e-05,3.97161e-05
137,1.19997e-05,1.73506e-05,5.00273e-05,5.99678e-05,1.09362e-05,3.47095e-05
138,1.21072e-05,2.04334e-05,5.93993e-05,6.00586e-05,1.34628e-05,3.5611e-05
139,1.08074e-05,1.6325e-05,6.27306e-05,6.11456e-05,1.7384e-05,4.05268e-05
140,8.17276e-06,8.57475e-06,5.69097e-05,6.21395e-05,1.97848e-05,4.4453e-05
141,6.54222e-06,-6.00897e-07,4.8655e-05,6.15313e-05,1.9206e-05,4.44472e-05
142,7.56703e-06,-1.31654e-05,4.83981e-05,5.71032e-05,1.69093e-05,3.83315e-05
143,9.93854e-06,-2.06917e-05,5.7135e-05,5.23795e-05,1.68178e-05,3.21081e-05
144,1.13672e-05,-1.27954e-05,6.31619e-05,5.32248e-05,2.03295e-05,3.20946e-05
145,1.12577e-05,2.33709e-06,6.11145e-05,5.76951e-05,2.24925e-05,3.67023e-05
146,1.4737e-05,1.00813e-05,5.23384e-05,6.00439e-05,1.91917e-05,3.87581e-05
147,2.11669e-05,5.70353e-06,4.35883e-05,5.88254e-05,1.50589e-05,3.54514e-05
148,2.23035e-05,-7.26943e-06,4.54278e-05,5.42519e-05,1.6433e-05,2.96474e-05
149,1.69325e-05,-1.62242e-05,5.44629e-05,4.91488e-05,2.5083e-05,2.55498e-05
150,1.308e-05,-1.12724e-05,6.00294e-05,4.83066e-05,3.70832e-05,2.47328e-05
151,1.43864e-05,8.72094e-07,6.02939e-05,5.27751e-05,4.23715e-05,2.52712e-05
152,1.66573e-05,8.13535e-06,5.98365e-05,5.97721e-05,3.98471e-05,2.56051e-05
153,1.66237e-05,6.13355e-06,6.1833e-05,6.40339e-05,3.03618e-05,2.54942e-05
154,1.45446e-05,-5.02416e-06,6.07977e-05,6.08021e-05,1.83484e-05,2.42761e-05
155,1.41658e-05,-1.90761e-05,5.3055e-05,5.34343e-05,1.4362e-05,2.39452e-05
156,1.45151e-05,-2.22377e-05,4.68104e-05,5.03873e-05,1.62047e-05,2.86903e-05
157,1.29526e-05,-1.21794e-05,5.09998e-05,5.24918e-05,1.94082e-05,3.65746e-05
158,1.24703e-05,-1.64617e-06,5.97431e-05,5.50489e-05,2.12287e-05,4.05846e-05
159,1.15562e-05,-1.79817e-06,6.47983e-05,5.58742e-05,2.38083e-05,3.88962e-05
160,1.20674e-05,-1.56354e-05,6.4885e-05,5.29557e-05,2.46883e-05,3.23195e-05
161,1.58754e-05,-3.15288e-05,6.05424e-05,4.6449e-05,2.26443e-05,2.43372e-05
162,1.8646e-05,-2.91749e-05,5.59776e-05,4.38064e-05,1.91666e-05,2.59405e-05
163,1.38745e-05,-1.37609e-05,5.58204e-05,4.66514e-05,1.58675e-05,3.4996e-05
164,6.61768e-06,-5.14101e-06,5.78617e-05,4.87394e-05,1.43559e-05,3.96378e-05
165,4.4711e-06,-2.98627e-06,5.88514e-05,4.95376e-05,1.52885e-05,4.09386e-05
166,6.77258e-06,-1.11524e-06,5.93363e-05,5.22869e-05,1.84774e-05,4.31956e-05
167,9.85568e-06,-5.45332e-07,5.87314e-05,5.62876e-05,2.08698e-05,4.61242e-05
168,1.12593e-05,-5.7965e-06,5.74575e-05,5.70685e-05,1.94376e-05,4.67268e-05
169,1.00094e-05,-1.90728e-05,5.79391e-05,5.28866e-05,1.37163e-05,4.31605e-05
170,6.84883e-06,-2.89517e-05,5.93461e-05,4.9583e-05,9.83261e-06,4.05152e-05
171,5.63332e-06,-2.47771e-05,5.80037e-05,5.22041e-05,1.11927e-05,4.37303e-05
172,7.02493e-06,-1.25175e-05,5.54985e-05,5.65487e-05,1.55735e-05,4.83173e-05
173,1.07735e-05,-3.89258e-06,5.4444e-05,5.74385e-05,1.77604e-05,4.76773e-05
174,1.54563e-05,-4.31255e-06,5.16365e-05,5.5599e-05,1.78825e-05,4.42443e-05
175,1.82446e-05,-1.3481e-05,4.76672e-05,5.21053e-05,1.53704e-05,4.10073e-05
176,1.85895e-05,-2.0972e-05,4.90592e-05,4.95545e-05,1.33182e-05,3.82332e-05
177,2.00473e-05,-1.51375e-05,5.33699e-05,5.13682e-05,1.54239e-05,3.7052e-05
178,2.04946e-05,-1.38141e-06,5.55386e-05,5.5673e-05,1.61859e-05,3.86996e-05
179,1.64704e-05,5.92689e-06,5.66945e-05,5.78573e-05,1.39158e-05,4.17142e-05
180,7.62361e-06,1.60097e-06,5.91366e-05,5.59476e-05,9.51694e-06,4.22889e-05
181,1.02738e-06,-1.0375e-05,5.9067e-05,5.01432e-05,2.85021e-06,3.89272e-05
182,1.37945e-06,-1.90252e-05,5.2276e-05,4.49457e-05,-2.02846e-06,3.53744e-05
183,4.93587e-06,-1.33811e-05,4.39577e-05,4.69663e-05,-4.29486e-06,3.71522e-05
184,5.67364e-06,-1.72801e-07,4.44006e-05,5.33316e-05,-2.26064e-06,4.37644e-05
185,4.60715e-06,7.0491e-06,5.21731e-05,5.54559e-05,4.43264e-06,4.94262e-05
186,4.88785e-06,4.5524e-06,5.96721e-05,5.30714e-05,1.30928e-05,5.00879e-05
187,6.99619e-06,-8.02738e-06,5.99961e-05,4.92667e-05,1.83764e-05,4.5426e-05
188,1.02878e-05,-2.16341e-05,5.12992e-05,4.4689e-05,1.69568e-05,3.99199e-05
189,1.13575e-05,-1.62284e-05,4.11561e-05,4.51489e-05,1.06066e-05,4.07618e-05
190,8.85509e-06,2.71657e-06,3.78627e-05,4.9188e-05,4.30121e-06,4.65587e-05
191,4.90349e-06,1.0468e-05,4.10376e-05,4.99574e-05,2.79265e-06,4.89951e-05
192,3.04714e-06,8.51755e-06,4.61421e-05,5.34064e-05,4.94939e-06,4.92322e-05
193,6.49809e-06,7.82852e-06,4.95737e-05,6.01441e-05,6.72025e-06,5.12575e-05
194,1.41386e-05,7.38315e-06,4.78948e-05,6.24969e-05,7.55973e-06,5.25338e-05
195,1.96795e-05,3.22285e-06,4.43489e-05,6.00152e-05,8.62371e-06,5.18666e-05
196,1.88825e-05,-8.46063e-06,4.64113e-05,5.60488e-05,8.4316e-06,4.73654e-05
197,1.32783e-05,-1.81512e-05,5.40121e-05,5.51022e-05,6.86024e-06,4.37204e-05
198,9.86585e-06,-1.45515e-05,5.90174e-05,5.82038e-05,6.09027e-06,4.59386e-05
199,1.12691e-05,-3.82417e-06,5.90407e-05,6.06302e-05,7.87298e-06,4.91023e-05
200,1.37262e-05,3.52808e-06,5.49586e-05,5.89709e-05,1.034e-05,4.83891e-05
201,1.6349e-05,3.98992e-06,4.82253e-05,5.58964e-05,1.43872e-05,4.33057e-05
202,1.86548e-05,-1.77699e-06,4.65731e-05,5.32581e-05,1.74247e-05,3.57789e-05
203,1.76652e-05,-5.54441e-06,5.26274e-05,5.2644e-05,1.64734e-05,3.09449e-05
204,1.40996e-05,3.36917e-07,5.85667e-05,5.57841e-05,1.4734e-05,3.25756e-05
205,1.18759e-05,1.01705e-05,5.76379e-05,5.92767e-05,1.42432e-05,3.85929e-05
206,1.08342e-05,1.36192e-05,5.29885e-05,5.88669e-05,1.2591e-05,4.42874e-05
207,6.08039e-06,7.60626e-06,5.20481e-05,5.62129e-05,1.16961e-05,4.63949e-05
208,3.3159e-06,-4.8225e-06,5.43099e-05,5.41453e-05,1.29894e-05,4.50296e-05
209,7.22357e-06,-1.42106e-05,5.57408e-05,5.34347e-05,1.55589e-05,4.41179e-05
210,1.09646e-05,-9.63786e-06,5.55965e-05,5.60655e-05,1.81394e-05,4.791e-05
211,1.00592e-05,4.26183e-06,5.8195e-05,6.04913e-05,1.73193e-05,5.26871e-05
212,8.91445e-06,1.33317e-05,6.07926e-05,6.28114e-05,1.33655e-05,5.04823e-05
213,8.59113e-06,1.21888e-05,6.22864e-05,6.08512e-05,1.13402e-05,4.20469e-05
214,8.10847e-06,2.12724e-07,6.21572e-05,5.27848e-05,1.29993e-05,3.51938e-05
215,9.14681e-06,-1.59245e-05,6.03057e-05,4.36611e-05,1.52771e-05,3.20482e-05
216,1.14947e-05,-1.62168e-05,5.83665e-05,4.39385e-05,1.52309e-05,3.146e-05
217,1.26508e-05,-2.20271e-06,5.91161e-05,4.99432e-05,1.2407e-05,3.18843e-05
218,1.2265e-05,4.85889e-06,6.22372e-05,5.19139e-05,1.01358e-05,3.24846e-05
219,1.16616e-05,5.30165e-06,6.20877e-05,5.26733e-05,9.27703e-06,3.45703e-05
220,1.18878e-05,6.33333e-06,5.73999e-05,5.54548e-05,9.82043e-06,3.76243e-05
221,1.48529e-05,5.76551e-06,5.10513e-05,5.73039e-05,1.13028e-05,3.93167e-05
222,1.88126e-05,4.5833e-07,4.77964e-05,5.59084e-05,1.31321e-05,3.83167e-05
223,1.91864e-05,-1.04532e-05,5.038e-05,5.11674e-05,1.46703e-05,3.60843e-05
224,1.59478e-05,-1.73255e-05,5.68815e-05,4.87412e-05,1.62908e-05,3.48718e-05
225,1.46669e-05,-1.09613e-05,6.15148e-05,5.28167e-05,1.97284e-05,3.53627e-05
226,1.54024e-05,8.03032e-07,6.25882e-05,5.77453e-05,2.42297e-05,3.67903e-05
227,1.67628e-05,5.40167e-06,5.81152e-05,5.78462e-05,2.67108e-05,3.80211e-05
228,1.88912e-05,-1.33222e-06,5.17949e-05,5.39874e-05,2.79116e-05,3.73225e-05
229,1.84207e-05,-1.65333e-05,5.00633e-05,4.9183e-05,2.70392e-05,3.33757e-05
230,1.6882e-05,-2.76413e-05,5.34869e-05,4.78656e-05,2.42004e-05,2.99135e-05
231,1.66691e-05,-2.49045e-05,5.73451e-05,5.22429e-05,2.19034e-05,3.23848e-05
232,1.37213e-05,-1.40566e-05,5.83204e-05,5.87859e-05,1.83891e-05,3.75574e-05
233,1.08371e-05,-6.00129e-06,5.8375e-05,6.18006e-05,1.66129e-05,3.7778e-05
234,1.11223e-05,-4.84391e-06,6.10828e-05,5.90795e-05,1.81415e-05,3.35744e-05
235,1.33243e-05,-1.20933e-05,6.33809e-05,5.23219e-05,2.10624e-05,2.9443e-05
236,1.42097e-05,-2.28751e-05,5.9448e-05,4.68253e-05,2.33806e-05,2.78297e-05
237,1.14092e-05,-2.3342e-05,5.42043e-05,4.82622e-05,2.30264e-05,3.05478e-05
238,8.22249e-06,-1.0107e-05,5.50386e-05,5.41249e-05,1.78504e-05,3.52513e-05
239,9.28152e-06,4.15953e-06,5.74278e-05,5.70125e-05,1.13976e-05,3.74524e-05
240,1.47934e-05,7.23691e-06,5.78796e-05,5.61281e-05,1.00203e-05,3.77163e-05
241,2.05887e-05,-5.36749e-06,5.55959e-05,5.41224e-05,1.02924e-05,3.60794e-05
242,2.20512e-05,-2.28729e-05,5.10082e-05,5.25312e-05,9.70208e-06,3.22578e-05
243,1.8173e-05,-2.23573e-05,4.53156e-05,5.54837e-05,8.94671e-06,3.20792e-05
244,1.1603e-05,-7.20472e-06,4.3744e-05,5.95255e-05,8.30633e-06,3.67249e-05
245,6.97235e-06,2.8296e-06,4.86444e-05,5.85926e-05,1.30479e-05,3.97363e-05
246,5.59303e-06,5.43324e-06,5.56046e-05,5.68343e-05,2.56637e-05,4.01184e-05
247,5.68536e-06,4.96794e-06,5.96731e-05,5.74045e-05,3.6888e-05,3.90358e-05
248,7.88788e-06,3.96372e-06,5.51379e-05,5.90087e-05,3.74464e-05,3.60034e-05
249,1.01746e-05,-1.07554e-06,4.43432e-05,5.89665e-05,2.98723e-05,3.08831e-05
250,7.45074e-06,-1.42285e-05,3.80035e-05,5.44912e-05,2.18992e-05,2.55113e-05
251,1.60709e-06,-2.34887e-05,4.09351e-05,4.96079e-05,1.74195e-05,2.74931e-05
252,5.84472e-07,-1.77555e-05,4.66149e-05,5.06817e-05,1.58621e-05,3.63979e-05
253,4.30335e-06,-5.38981e-06,4.97339e-05,5.6356e-05,1.51409e-05,4.23594e-05
254,9.23158e-06,2.30393e-06,4.75402e-05,5.89272e-05,1.44299e-05,4.18973e-05
255,1.47288e-05,5.69136e-07,4.2978e-05,5.47535e-05,1.49642e-05,3.96704e-05
256,1.59145e-05,-1.04165e-05,4.29775e-05,4.7026e-05,1.6586e-05,3.71562e-05
257,1.17859e-05,-1.88253e-05,4.67638e-05,4.2017e-05,1.6697e-05,3.42549e-05
258,8.92542e-06,-1.36254e-05,4.99175e-05,4.25228e-05,1.75015e-05,3.19027e-05
259,8.14798e-06,-1.04854e-06,5.06e-05,4.63558e-05,2.24405e-05,2.98507e-05
260,8.06066e-06,6.44308e-06,4.85277e-05,5.07053e-05,3.05506e-05,2.80287e-05
261,8.4597e-06,5.91904e-06,4.89299e-05,5.30867e-05,3.70622e-05,2.67064e-05
262,8.74046e-06,-2.50498e-06,4.93189e-05,5.04631e-05,3.70582e-05,2.44855e-05
263,1.14682e-05,-1.30434e-05,4.39853e-05,4.5134e-05,3.12955e-05,2.31381e-05
264,1.42732e-05,-1.1732e-05,3.77745e-05,4.45006e-05,2.62898e-05,2.69465e-05
265,1.20632e-05,1.5168e-06,3.79514e-05,4.86707e-05,2.59133e-05,3.25514e-05
266,8.91276e-06,1.07245e-05,4.12742e-05,5.31983e-05,2.73484e-05,3.48089e-05
267,8.59356e-06,6.21784e-06,4.58415e-05,5.59248e-05,2.69345e-05,3.28502e-05
268,1.13001e-05,-9.99416e-06,4.77374e-05,5.32808e-05,2.30787e-05,2.84822e-05
269,1.56857e-05,-2.51106e-05,4.55282e-05,4.71286e-05,1.81646e-05,2.6524e-05
270,1.86618e-05,-2.10814e-05,4.35164e-05,4.5375e-05,1.36862e-05,3.03213e-05
271,1.7223e-05,-4.65328e-06,4.61827e-05,4.71244e-05,1.09954e-05,3.42163e-05
272,1.26087e-05,3.06567e-06,5.27512e-05,4.96088e-05,1.0876e-05,3.35699e-05
273,8.59522e-06,3.11953e-06,5.79039e-05,5.39585e-05,1.31348e-05,3.30064e-05
274,9.23334e-06,2.11958e-06,5.97517e-05,5.72707e-05,1.46124e-05,3.49239e-05
275,1.39529e-05,3.73243e-08,5.74416e-05,5.77999e-05,1.20248e-05,3.68485e-05
276,1.75383e-05,-6.27618e-06,5.2214e-05,5.61184e-05,5.19719e-06,3.57592e-05
277,1.6398e-05,-2.05047e-05,5.02338e-05,5.21234e-05,-1.94668e-06,3.13663e-05
278,1.32939e-05,-3.01077e-05,5.57424e-05,4.9613e-05,-4.19046e-06,2.83861e-05
279,1.13643e-05,-2.21711e-05,6.15275e-05,5.17576e-05,-1.54922e-06,2.89047e-05
280,9.99683e-06,-6.95305e-06,6.30562e-05,5.51407e-05,1.70733e-06,3.12914e-05
281,1.04575e-05,3.00412e-07,5.90039e-05,5.55507e-05,3.45701e-06,3.38323e-05
282,1.34955e-05,-3.6558e-06,5.16291e-05,5.31043e-05,4.29654e-06,3.53225e-05
283,1.70328e-05,-1.57804e-05,4.85229e-05,4.92558e-05,7.66549e-06,3.42233e-05
284,1.73075e-05,-2.47292e-05,5.48135e-05,4.65164e-05,1.27381e-05,3.29612e-05
285,1.70917e-05,-2.02077e-05,5.84426e-05,4.74498e-05,1.05575e-05,3.42427e-05
286,1.97567e-05,-7.95696e-06,5.0344e-05,5.04559e-05,6.17795e-06,3.5781e-05
287,2.27935e-05,-1.98237e-06,4.29835e-05,5.27983e-05,1.11302e-05,3.53564e-05
288,2.36064e-05,-5.62807e-06,4.67118e-05,5.34065e-05,2.09478e-05,3.45315e-05
289,2.29164e-05,-1.45993e-05,5.49086e-05,5.05603e-05,2.23536e-05,3.44265e-05
290,2.1554e-05,-2.07729e-05,5.63853e-05,4.58817e-05,1.92407e-05,3.43905e-05
291,2.15939e-05,-1.49756e-05,5.14429e-05,4.61493e-05,2.07956e-05,3.43154e-05
292,2.11058e-05,-1.84239e-06,5.13906e-05,5.28298e-05,2.36753e-05,3.38226e-05
293,1.98891e-05,5.10006e-06,5.57281e-05,5.89743e-05,1.75155e-05,3.3906e-05
294,1.83418e-05,1.93463e-06,5.82163e-05,5.8221e-05,4.08306e-06,3.45373e-05
295,1.69509e-05,-9.88024e-06,5.7294e-05,4.99356e-05,-2.24015e-06,3.45941e-05
296,1.76253e-05,-2.37678e-05,5.31259e-05,4.13963e-05,4.66388e-06,3.42615e-05
297,1.74573e-05,-2.20297e-05,4.90114e-05,4.27455e-05,1.65378e-05,3.42032e-05
298,1.27127e-05,-7.09172e-06,4.97608e-05,4.95875e-05,2.199e-05,3.50076e-05
299,6.93059e-06,1.11842e-06,5.35609e-05,5.17119e-05,1.91763e-05,3.64891e-05
300,5.73476e-06,2.68394e-06,5.59789e-05,5.30842e-05,1.29263e-05,3.89282e-05
301,7.96905e-06,5.71434e-06,5.61281e-05,5.7445e-05,6.9831e-06,4.20305e-05
302,1.15982e-05,8.82188e-06,5.16781e-05,6.1661e-05,1.11452e-06,4.29853e-05
303,1.42847e-05,4.9955e-06,4.34945e-05,6.22401e-05,-4.50434e-06,4.03484e-05
304,1.36425e-05,-9.7182e-06,3.88842e-05,5.87427e-05,-8.84475e-06,3.36169e-05
305,1.11775e-05,-2.0025e-05,4.19157e-05,5.8092e-05,-8.64655e-06,2.90364e-05
306,9.63881e-06,-1.23714e-05,4.83863e-05,6.30421e-05,-2.34713e-06,3.29545e-05
307,9.65434e-06,1.86783e-06,5.31614e-05,6.77811e-05,5.71674e-06,4.16059e-05
308,1.1002e-05,6.3071e-06,5.06542e-05,6.73139e-05,7.98498e-06,4.80358e-05
309,1.21548e-05,-2.67878e-07,4.25649e-05,6.14246e-05,4.96374e-06,4.79959e-05
310,1.15525e-05,-1.16967e-05,3.90905e-05,5.25724e-05,7.75324e-07,4.11568e-05
311,9.49885e-06,-1.88347e-05,4.54345e-05,4.69578e-05,8.00108e-07,3.45754e-05
312,6.60268e-06,-1.37686e-05,5.28531e-05,5.00191e-05,4.89155e-06,3.59391e-05
313,3.16281e-06,-1.05199e-06,5.46567e-05,5.83254e-05,4.35836e-06,4.2437e-05
314,2.4004e-06,7.33855e-06,5.71638e-05,6.40176e-05,3.73684e-08,4.74257e-05
315,5.14847e-06,5.97169e-06,6.19789e-05,6.23915e-05,1.23301e-07,4.84555e-05
316,1.13777e-05,-3.26172e-06,6.20819e-05,5.3721e-05,5.1388e-06,4.7224e-05
317,1.77988e-05,-1.27728e-05,5.67035e-05,4.64223e-05,1.12557e-05,4.67352e-05
318,1.83513e-05,-1.27161e-05,4.99945e-05,5.06532e-05,1.62318e-05,4.84634e-05
319,1.32865e-05,-2.99746e-06,4.95331e-05,6.25172e-05,1.97408e-05,4.93733e-05
320,1.03241e-05,7.67956e-06,5.38708e-05,7.06159e-05,2.61413e-05,4.81894e-05
321,1.06716e-05,1.07089e-05,5.76069e-05,7.18036e-05,3.21522e-05,4.81065e-05
322,1.30151e-05,-8.13464e-07,5.63408e-05,6.85056e-05,3.31101e-05,4.78123e-05
323,1.67117e-05,-1.93892e-05,5.06008e-05,6.47951e-05,3.16184e-05,4.56582e-05
324,1.68018e-05,-2.16912e-05,4.56529e-05,6.53247e-05,2.99095e-05,4.60643e-05
325,1.01146e-05,-8.14595e-06,4.69035e-05,6.63388e-05,2.7141e-05,4.85814e-05
326,3.54401e-06,1.06732e-06,5.34632e-05,6.45224e-05,2.40722e-05,4.71711e-05
327,3.27001e-06,2.8149e-06,5.91733e-05,6.49433e-05,2.32723e-05,4.12395e-05
328,5.1305e-06,2.92561e-06,6.00339e-05,6.66309e-05,2.23814e-05,3.78475e-05
329,5.44669e-06,5.12282e-06,5.40702e-05,6.49324e-05,1.54362e-05,4.01891e-05
330,5.41905e-06,4.46836e-06,4.71191e-05,5.88561e-05,5.32738e-07,4.37279e-05
331,5.46941e-06,-7.44752e-06,4.7806e-05,5.12683e-05,-1.10272e-05,4.37356e-05
332,4.89039e-06,-1.79673e-05,5.59723e-05,4.90676e-05,-6.16129e-06,4.11795e-05
333,4.69541e-06,-1.31148e-05,6.12522e-05,5.4232e-05,1.10159e-05,4.09277e-05
334,5.19769e-06,-1.57419e-06,5.91239e-05,5.98526e-05,2.70453e-05,4.29401e-05
335,7.843e-06,3.74561e-06,5.3408e-05,6.08091e-05,3.44243e-05,4.45908e-05
336,9.51522e-06,-1.48614e-07,4.84365e-05,5.85795e-05,3.6096e-05,4.44122e-05
337,6.28084e-06,-1.09756e-05,4.86112e-05,5.45242e-05,3.56949e-05,4.28929e-05
338,9.05084e-09,-1.87864e-05,5.34515e-05,5.08464e-05,3.1446e-05,4.2514e-05
339,-4.37585e-07,-1.36101e-05,5.83487e-05,5.07967e-05,2.44802e-05,4.53086e-05
340,5.55822e-06,-1.6518e-06,5.93285e-05,5.38003e-05,1.94482e-05,4.85357e-05
341,1.26354e-05,5.01985e-06,5.8065e-05,5.54197e-05,2.10428e-05,4.79092e-05
342,1.47395e-05,3.84871e-06,6.07047e-05,5.38721e-05,2.78216e-05,4.26415e-05
343,1.42784e-05,-4.09968e-06,6.06557e-05,5.06211e-05,3.50765e-05,3.55484e-05
344,2.00948e-05,-1.34153e-05,5.68019e-05,4.89859e-05,3.4097e-05,3.22557e-05
345,2.51775e-05,-1.10845e-05,5.30999e-05,5.19771e-05,2.488e-05,3.58706e-05
346,2.04199e-05,3.20816e-06,5.18704e-05,5.71243e-05,1.70241e-05,4.06845e-05
347,1.32657e-05,1.31905e-05,5.07261e-05,5.87747e-05,1.37348e-05,3.95112e-05
348,1.34929e-05,8.40397e-06,4.95014e-05,5.41798e-05,1.22814e-05,3.39328e-05
349,1.68697e-05,-1.01366e-05,4.96539e-05,4.46454e-05,1.08895e-05,2.93762e-05
350,1.75578e-05,-2.91074e-05,4.94246e-05,3.90934e-05,1.26619e-05,2.93899e-05
351,1.66212e-05,-2.86754e-05,4.85431e-05,4.64983e-05,1.65945e-05,3.57982e-05
352,1.53798e-05,-1.65931e-05,5.06715e-05,5.53943e-05,1.76739e-05,4.29357e-05
353,1.42095e-05,-1.29132e-05,5.60791e-05,5.32592e-05,1.51677e-05,4.22034e-05
354,1.29366e-05,-1.28772e-05,6.20677e-05,4.85421e-05,1.56241e-05,3.93302e-05
355,1.33679e-05,-1.04077e-05,6.58657e-05,4.92937e-05,2.11603e-05,4.06652e-05
356,1.65707e-05,-9.01797e-06,6.17062e-05,5.47058e-05,2.59985e-05,4.31814e-05
357,1.95199e-05,-1.31301e-05,5.26651e-05,5.84432e-05,2.57646e-05,4.44683e-05
358,1.78166e-05,-2.54868e-05,4.9298e-05,5.40263e-05,2.31856e-05,4.30078e-05
359,1.38819e-05,-3.4377e-05,5.26729e-05,4.84677e-05,2.24486e-05,4.11142e-05
360,1.2915e-05,-2.7159e-05,5.45946e-05,5.04321e-05,2.31015e-05,4.16782e-05
361,1.43094e-05,-1.2486e-05,5.51396e-05,5.75111e-05,2.10653e-05,4.3667e-05
362,1.55635e-05,-5.21816e-06,5.1719e-05,6.35529e-05,1.57294e-05,4.60151e-05
363,1.4986e-05,-8.8317e-06,4.86013e-05,6.59035e-05,8.72416e-06,4.69707e-05
364,1.26026e-05,-2.00013e-05,5.3105e-05,6.33615e-05,3.56947e-06,4.40551e-05
365,9.91891e-06,-2.8245e-05,5.87342e-05,5.86125e-05,4.20225e-06,3.94905e-05
366,1.09988e-05,-2.27052e-05,5.85646e-05,5.74143e-05,1.01652e-05,3.80563e-05
367,1.53562e-05,-7.929e-06,5.62829e-05,6.03113e-05,1.57935e-05,3.92625e-05
368,1.95697e-05,1.03909e-06,5.50971e-05,6.2112e-05,1.70754e-05,3.96439e-05
369,2.13771e-05,-2.2822e-06,5.57314e-05,5.9418e-05,1.61196e-05,3.71573e-05
370,2.14275e-05,-1.53173e-05,5.67971e-05,5.36277e-05,1.46401e-05,3.20857e-05
371,2.29679e-05,-2.84762e-05,5.55748e-05,5.00499e-05,1.50748e-05,2.81646e-05
372,2.4509e-05,-2.8409e-05,5.33345e-05,5.30069e-05,1.73365e-05,2.8699e-05
373,2.1042e-05,-1.64264e-05,5.52025e-05,5.86133e-05,1.91793e-05,3.08423e-05
374,1.57632e-05,-6.42734e-06,5.78018e-05,6.05805e-05,1.97297e-05,3.14172e-05
375,1.20492e-05,-5.61568e-06,5.80074e-05,5.82905e-05,2.11645e-05,3.26928e-05
376,1.00148e-05,-1.5869e-05,5.64025e-05,5.37713e-05,2.41827e-05,3.52567e-05
377,9.46553e-06,-3.0209e-05,5.21068e-05,4.95699e-05,2.69793e-05,3.68567e-05
378,9.1551e-06,-2.7824e-05,4.81536e-05,5.03705e-05,2.6464e-05,3.72594e-05
379,7.2728e-06,-1.04861e-05,4.9737e-05,5.25753e-05,2.18236e-05,3.67823e-05
380,6.11692e-06,-1.46443e-07,5.55188e-05,5.03662e-05,1.8259e-05,3.55177e-05
381,8.11234e-06,3.18831e-06,5.97308e-05,4.94831e-05,1.88547e-05,3.46481e-05
382,1.03669e-05,5.27541e-06,6.05494e-05,5.32802e-05,2.13618e-05,3.51061e-05
383,1.18875e-05,4.88588e-06,5.78252e-05,5.62304e-05,2.3525e-05,3.47354e-05
384,1.19365e-05,1.33923e-06,5.47336e-05,5.41855e-05,2.40024e-05,2.93926e-05
385,8.96699e-06,-8.94509e-06,5.56733e-05,4.86118e-05,2.08195e-05,2.16782e-05
386,4.64021e-06,-1.69105e-05,5.95475e-05,4.57218e-05,1.6138e-05,2.00888e-05
387,1.35022e-06,-1.06022e-05,6.04754e-05,4.80169e-05,1.36488e-05,2.65849e-05
388,-1.00413e-06,2.22583e-06,5.77597e-05,5.01966e-05,1.33361e-05,3.40103e-05
389,-5.13792e-07,8.12373e-06,5.23312e-05,4.82227e-05,1.24382e-05,3.60505e-05
390,2.46738e-06,3.81407e-06,4.76868e-05,4.39952e-05,1.26594e-05,3.32743e-05
391,2.82518e-06,-7.93246e-06,5.00566e-05,4.04229e-05,1.37677e-05,3.00636e-05
392,1.20833e-06,-1.69285e-05,5.66754e-05,3.94863e-05,1.41341e-05,3.10855e-05
393,3.34843e-06,-1.32403e-05,5.80387e-05,4.17686e-05,1.65768e-05,3.6159e-05
394,6.6746e-06,-1.75655e-06,5.37298e-05,4.49854e-05,1.88581e-05,3.93686e-05
395,7.34753e-06,4.11875e-06,5.06584e-05,4.6134e-05,2.05224e-05,3.73195e-05
396,5.16806e-06,-5.35078e-07,5.19224e-05,4.50709e-05,1.87888e-05,3.29537e-05
397,3.65673e-06,-1.08293e-05,5.30239e-05,4.23554e-05,1.58247e-05,3.09291e-05
398,7.26802e-06,-1.79072e-05,5.00719e-05,3.9251e-05,1.82451e-05,3.38649e-05
399,1.20601e-05,-1.30639e-05,4.58021e-05,3.99124e-05,2.06729e-05,4.10699e-05
400,1.38298e-05,-3.22877e-07,4.77378e-05,4.47148e-05,1.88863e-05,4.68658e-05
401,1.54162e-05,7.90107e-06,5.35518e-05,4.81314e-05,1.4308e-05,4.69311e-05
402,1.55402e-05,6.3579e-06,5.69457e-05,4.75561e-05,8.13934e-06,4.5244e-05
403,1.26152e-05,-6.20054e-06,5.45467e-05,4.40656e-05,2.54502e-06,4.43316e-05
404,1.02731e-05,-2.26e-05,4.79161e-05,4.18638e-05,5.85507e-07,4.19543e-05
405,1.11993e-05,-2.34845e-05,4.41766e-05,4.42213e-05,1.49469e-06,3.99828e-05
406,1.23717e-05,-1.00489e-05,4.7578e-05,4.75175e-05,2.49791e-06,3.94354e-05
407,1.21311e-05,-2.65259e-08,5.42995e-05,4.98258e-05,3.65969e-06,3.8001e-05
408,1.12696e-05,6.2449e-06,5.80634e-05,5.28808e-05,5.98226e-06,3.66859e-05
409,1.12663e-05,9.33533e-06,5.59554e-05,5.49477e-05,7.35135e-06,3.74475e-05
410,1.35746e-05,5.61692e-06,4.94124e-05,5.34563e-05,7.36343e-06,3.91673e-05
411,1.54489e-05,-3.45016e-06,4.49945e-05,4.87155e-05,8.50766e-06,3.87282e-05
412,1.37663e-05,-1.56933e-05,4.79449e-05,4.27026e-05,1.03282e-05,3.57062e-05
413,1.05742e-05,-2.00482e-05,5.42206e-05,4.07065e-05,1.19347e-05,3.47455e-05
414,7.9679e-06,-7.66854e-06,5.58367e-05,4.55485e-05,1.42059e-05,3.80646e-05
415,4.64655e-06,9.14961e-06,5.46001e-05,5.41345e-05,1.64045e-05,4.17695e-05
416,3.95022e-06,1.49298e-05,5.15613e-05,6.0475e-05,1.72004e-05,4.2982e-05
417,6.27267e-06,9.71033e-06,4.67789e-05,6.08066e-05,1.47196e-05,4.15702e-05
418,7.96115e-06,-2.35059e-06,4.67859e-05,5.65826e-05,1.01286e-05,3.73866e-05
419,9.18731e-06,-1.18546e-05,5.2322e-05,5.39565e-05,9.31462e-06,3.41719e-05
420,1.03148e-05,-8.49418e-06,5.68711e-05,5.7707e-05,1.23617e-05,3.59514e-05
421,1.09906e-05,4.38746e-06,5.51971e-05,6.41934e-05,1.37545e-05,3.9446e-05
422,1.21409e-05,1.3244e-05,5.09384e-05,6.61209e-05,1.24381e-05,4.0339e-05
423,1.19659e-05,1.04803e-05,5.18276e-05,6.17369e-05,1.13415e-05,3.98237e-05
424,1.1762e-05,-1.8054e-06,5.30295e-05,5.47293e-05,1.07198e-05,3.93716e-05
425,1.50552e-05,-1.39668e-05,4.71288e-05,5.02235e-05,1.1131e-05,3.8788e-05
426,2.13957e-05,-1.31922e-05,3.87509e-05,5.28416e-05,1.03663e-05,3.79354e-05
427,2.36692e-05,-6.04364e-07,3.95707e-05,5.94339e-05,6.06725e-06,3.6891e-05
428,2.00094e-05,9.50182e-06,4.70172e-05,6.11188e-05,3.71022e-07,3.78852e-05
429,1.38986e-05,9.69812e-06,5.3717e-05,5.62805e-05,-3.72965e-06,3.96828e-05
430,9.66505e-06,6.58375e-07,5.5499e-05,4.84946e-05,-3.70834e-06,3.65393e-05
431,1.21642e-05,-1.23289e-05,5.23658e-05,4.19506e-05,-7.45424e-07,3.03472e-05
432,1.69074e-05,-1.29431e-05,4.79721e-05,4.39107e-05,3.89347e-06,2.95936e-05
433,1.59e-05,-1.4893e-07,4.97008e-05,5.13102e-05,8.03353e-06,3.48571e-05
434,1.1323e-05,7.54841e-06,5.61213e-05,5.50846e-05,1.13721e-05,4.01957e-05
435,1.0803e-05,8.02344e-06,5.8614e-05,5.68315e-05,1.36776e-05,4.27882e-05
436,1.60588e-05,7.76055e-06,5.58534e-05,5.85385e-05,1.35201e-05,4.3878e-05
437,2.22545e-05,7.24187e-06,5.05125e-05,5.83508e-05,1.29622e-05,4.43334e-05
438,2.4408e-05,3.26675e-06,4.73732e-05,5.60248e-05,1.35815e-05,4.28164e-05
439,2.07451e-05,-9.63515e-06,4.83702e-05,5.10383e-05,1.38723e-05,3.96497e-05
440,1.4232e-05,-2.13467e-05,5.12203e-05,4.76354e-05,1.38615e-05,3.94145e-05
441,9.457e-06,-1.89106e-05,5.30149e-05,5.01821e-05,1.6578e-05,4.3436e-05
442,7.9198e-06,-8.21318e-06,5.35489e-05,5.5167e-05,2.12604e-05,4.53608e-05
443,8.63758e-06,-2.07061e-06,4.91831e-05,5.96183e-05,2.28452e-05,4.20999e-05
444,7.72697e-06,-5.56354e-06,4.19735e-05,6.17749e-05,1.9041e-05,3.69349e-05
445,6.47898e-06,-1.7535e-05,4.03555e-05,5.83353e-05,1.33276e-05,3.24056e-05
446,7.6699e-06,-2.69886e-05,4.51225e-05,5.28219e-05,1.06401e-05,3.05673e-05
447,8.30903e-06,-2.20051e-05,5.0125e-05,5.24642e-05,1.40656e-05,3.28137e-05
448,7.70315e-06,-7.07291e-06,5.30131e-05,5.6014e-05,1.7789e-05,3.69167e-05
449,8.02407e-06,3.61812e-06,5.40961e-05,5.75618e-05,1.79442e-05,3.86234e-05
450,7.19889e-06,2.78988e-06,5.42393e-05,5.63907e-05,1.76322e-05,3.63017e-05
451,6.15417e-06,-8.52643e-06,5.22439e-05,5.35546e-05,1.83857e-05,3.17737e-05
452,7.55524e-06,-2.05436e-05,4.76362e-05,5.10207e-05,1.89863e-05,2.88813e-05
453,1.07829e-05,-1.85528e-05,4.45489e-05,5.36842e-05,1.75047e-05,3.09072e-05
454,1.09062e-05,-5.04739e-06,4.85045e-05,6.03618e-05,1.49152e-05,3.54729e-05
455,8.408e-06,3.43613e-06,5.41027e-05,6.38093e-05,1.4181e-05,3.72985e-05
456,8.29949e-06,5.03996e-08,5.82627e-05,6.15741e-05,1.77493e-05,3.57122e-05
457,1.12063e-05,-1.26702e-05,5.70453e-05,5.65407e-05,2.24905e-05,3.28647e-05
458,1.60639e-05,-2.55007e-05,4.88596e-05,5.3525e-05,2.68516e-05,3.11825e-05
459,1.85481e-05,-2.10577e-05,4.09752e-05,5.65876e-05,2.89387e-05,3.37911e-05
460,1.43543e-05,-3.6017e-06,4.20344e-05,6.10853e-05,2.68066e-05,3.81533e-05
461,7.15676e-06,4.72193e-06,4.99243e-05,5.99145e-05,2.34367e-05,3.89497e-05
462,2.76254e-06,2.02852e-06,5.50367e-05,5.62086e-05,2.25669e-05,3.65789e-05
463,3.39243e-06,-4.3353e-07,5.43239e-05,5.58628e-05,2.30935e-05,3.64715e-05
464,7.42799e-06,1.52348e-06,4.85821e-05,5.88249e-05,2.2022e-05,4.09428e-05
465,1.19799e-05,-2.08157e-07,4.39088e-05,5.95499e-05,2.04721e-05,4.29146e-05
466,1.42755e-05,-1.39104e-05,4.56935e-05,5.5053e-05,1.9382e-05,3.8594e-05
467,1.31484e-05,-2.48997e-05,5.30889e-05,5.19445e-05,1.94714e-05,3.65502e-05
468,1.17105e-05,-1.69692e-05,6.02613e-05,5.54037e-05,2.06937e-05,4.23209e-05
469,1.22527e-05,3.61219e-07,6.3894e-05,6.04913e-05,2.06315e-05,4.82244e-05
470,1.38254e-05,9.04856e-06,5.94164e-05,6.07634e-05,1.72804e-05,4.75933e-05
471,1.44006e-05,4.34956e-06,4.93811e-05,5.65425e-05,1.39105e-05,4.25587e-05
472,1.31424e-05,-7.85031e-06,4.6594e-05,5.14366e-05,1.37385e-05,3.65189e-05
473,1.22636e-05,-1.46169e-05,5.45215e-05,4.98035e-05,1.66315e-05,3.28842e-05
474,1.47914e-05,-7.27668e-06,6.0372e-05,5.40332e-05,1.79615e-05,3.53095e-05
475,1.65297e-05,5.92937e-06,5.84315e-05,5.99955e-05,1.63582e-05,4.17669e-05
476,1.69513e-05,1.27607e-05,5.35915e-05,6.17543e-05,1.64159e-05,4.4902e-05
477,1.6364e-05,1.05022e-05,5.21043e-05,5.99037e-05,1.94119e-05,4.1978e-05
478,1.57121e-05,-3.15676e-07,5.28197e-05,5.63444e-05,2.34697e-05,3.76373e-05
479,1.78718e-05,-1.21817e-05,5.0801e-05,5.32169e-05,2.37918e-05,3.7535e-05
480,1.8142e-05,-9.62211e-06,4.69662e-05,5.52469e-05,2.05467e-05,4.17994e-05
481,1.19838e-05,5.55478e-06,4.82054e-05,6.20994e-05,1.8184e-05,4.58135e-05
482,5.18388e-06,1.52928e-05,5.3922e-05,6.87189e-05,1.89382e-05,4.60111e-05
483,5.42021e-06,1.06072e-05,6.02468e-05,7.16567e-05,2.01693e-05,4.21189e-05
484,8.77993e-06,-7.33817e-06,6.18418e-05,6.8075e-05,1.98229e-05,3.58826e-05
485,1.17804e-05,-2.6771e-05,5.59347e-05,5.93241e-05,1.81222e-05,3.27523e-05
486,1.60483e-05,-2.54363e-05,4.94871e-05,5.61281e-05,1.31191e-05,3.75929e-05
487,1.86998e-05,-8.33291e-06,4.91258e-05,6.02643e-05,6.35896e-06,4.38483e-05
488,1.75774e-05,-5.94769e-07,5.41076e-05,6.17871e-05,2.05111e-06,4.35762e-05
489,1.43719e-05,-1.26297e-06,6.02935e-05,5.93772e-05,3.6718e-06,4.17761e-05
490,1.26105e-05,3.06436e-07,6.4881e-05,5.80505e-05,8.63313e-06,4.27423e-05
491,1.53986e-05,2.09689e-06,6.16259e-05,5.89731e-05,1.10291e-05,4.37901e-05
492,1.87352e-05,-1.33272e-06,5.30278e-05,5.80072e-05,8.57384e-06,4.22507e-05
493,1.58008e-05,-1.2037e-05,4.82774e-05,5.13093e-05,4.96614e-06,3.67757e-05
494,9.618e-06,-1.83557e-05,5.06358e-05,4.43458e-05,5.24758e-06,3.26225e-05
495,7.49653e-06,-8.95414e-06,5.52304e-05,4.53713e-05,1.06001e-05,3.54571e-05
496,1.10571e-05,5.65865e-06,5.67562e-05,5.15863e-05,1.58509e-05,4.17143e-05
497,1.69471e-05,1.01108e-05,5.36e-05,5.4723e-05,1.66893e-05,4.47731e-05
498,1.92787e-05,2.6689e-06,4.9444e-05,5.30089e-05,1.66646e-05,4.14639e-05
499,1.67074e-05,-1.05718e-05,4.96084e-05,4.88047e-05,1.71138e-05,3.40329e-05
500,1.30487e-05,-1.84715e-05,5.15173e-05,4.59807e-05,1.756e-05,3.07323e-05
501,1.47018e-05,-1.30832e-05,5.09128e-05,4.77425e-05,2.00853e-05,3.62763e-05
502,1.85786e-05,-6.85508e-07,4.89929e-05,5.31356e-05,2.34722e-05,4.46097e-05
503,1.68913e-05,5.12771e-06,4.72384e-05,5.86262e-05,2.36964e-05,4.77908e-05
504,1.23705e-05,-1.82632e-06,4.90862e-05,6.1365e-05,1.94989e-05,4.6049e-05
505,1.10244e-05,-1.83585e-05,4.97898e-05,5.93127e-05,1.40462e-05,4.2165e-05
506,1.38659e-05,-3.22109e-05,4.52385e-05,5.58853e-05,1.00718e-05,3.66579e-05
507,1.4245e-05,-2.92659e-05,4.14659e-05,5.71588e-05,6.73672e-06,3.23675e-05
508,1.09448e-05,-1.43389e-05,4.60735e-05,6.03342e-05,3.52788e-06,3.29205e-05
509,7.92604e-06,-3.49656e-06,5.46597e-05,5.96507e-05,1.21771e-06,3.67751e-05
510,6.19972e-06,-2.07362e-06,5.95175e-05,5.51266e-05,2.39401e-06,3.78365e-05
511,6.64979e-06,-1.2404e-05,5.90417e-05,4.78779e-05,6.77731e-06,3.29181e-05
512,1.01681e-05,-2.93e-05,5.23619e-05,4.05271e-05,1.08068e-05,2.67703e-05
513,1.3907e-05,-2.80528e-05,4.60118e-05,3.72892e-05,1.03975e-05,2.70025e-05
514,1.21379e-05,-7.99563e-06,4.63068e-05,3.79619e-05,5.60897e-06,3.27167e-05
515,6.53419e-06,1.87045e-06,5.07505e-05,4.12832e-05,3.07836e-06,3.70079e-05
516,3.43781e-06,-1.4955e-06,5.37118e-05,4.71317e-05,8.01553e-06,4.01084e-05
517,6.14321e-06,-4.03519e-06,5.40115e-05,5.27792e-05,1.66333e-05,4.24158e-05
518,1.13258e-05,-2.41261e-06,5.15067e-05,5.56264e-05,2.10588e-05,4.08775e-05
519,1.48543e-05,-2.80964e-06,4.84084e-05,5.36644e-05,2.08351e-05,3.54023e-05
520,1.45684e-05,-1.33615e-05,4.88386e-05,4.70453e-05,1.92582e-05,2.8868e-05
521,1.35189e-05,-2.30982e-05,5.32353e-05,4.30659e-05,1.73121e-05,2.72224e-05
522,1.45669e-05,-1.59338e-05,5.78808e-05,4.70148e-05,1.81664e-05,3.26822e-05
523,1.68377e-05,8.65027e-07,6.02554e-05,5.42912e-05,1.99436e-05,3.97058e-05
524,1.97848e-05,1.14182e-05,5.9369e-05,5.72191e-05,1.85652e-05,4.16105e-05
525,2.24426e-05,1.19128e-05,5.49046e-05,5.44104e-05,2.17653e-05,3.71133e-05
526,2.17859e-05,3.25522e-06,5.14664e-05,4.79073e-05,3.10657e-05,2.84751e-05
527,1.85947e-05,-7.27073e-06,5.45102e-05,4.11388e-05,3.29083e-05,2.22692e-05
528,1.62275e-05,-8.07153e-06,6.00883e-05,4.05553e-05,2.79352e-05,2.45225e-05
529,1.31445e-05,1.58971e-06,5.95666e-05,4.65829e-05,3.07997e-05,3.26551e-05
530,1.10064e-05,1.1233e-05,5.54882e-05,5.24149e-05,3.93776e-05,3.89076e-05
531,1.0815e-05,1.06331e-05,5.55336e-05,5.33846e-05,4.10131e-05,3.9832e-05
532,1.24372e-05,-2.59878e-06,5.73643e-05,4.94722e-05,3.57767e-05,3.69659e-05
533,1.39496e-05,-1.65452e-05,5.34794e-05,4.55887e-05,3.47139e-05,3.45711e-05
534,1.29755e-05,-1.56761e-05,4.66125e-05,4.75831e-05,3.87504e-05,3.59043e-05
535,9.52106e-06,-3.40629e-06,4.90561e-05,5.28743e-05,3.48676e-05,3.88982e-05
536,7.76036e-06,5.03905e-06,5.63634e-05,5.46209e-05,1.74109e-05,4.10699e-05
537,9.70738e-06,1.92386e-06,5.99098e-05,5.28275e-05,-4.74913e-07,4.06334e-05
538,1.29637e-05,-1.26981e-05,5.78906e-05,5.01098e-05,-4.30847e-06,3.65762e-05
539,1.73952e-05,-2.89939e-05,5.22481e-05,4.80589e-05,5.26285e-06,3.13384e-05
540,2.00396e-05,-2.73478e-05,4.85125e-05,5.18297e-05,1.58564e-05,2.922e-05
541,1.76521e-05,-1.19299e-05,5.13166e-05,5.97165e-05,1.90963e-05,3.21528e-05
542,1.37306e-05,-3.14706e-06,5.8006e-05,6.1275e-05,1.87757e-05,3.74513e-05
543,1.30009e-05,5.01642e-07,6.31762e-05,5.73078e-05,2.02543e-05,4.11951e-05
544,1.28392e-05,3.8014e-06,6.49624e-05,5.486e-05,2.29311e-05,4.16824e-05
545,1.0976e-05,6.18747e-06,5.94208e-05,5.44134e-05,2.32238e-05,3.94322e-05
546,1.08811e-05,6.50058e-06,5.02984e-05,5.26468e-05,2.08647e-05,3.73165e-05
547,1.30711e-05,-1.85261e-06,4.82048e-05,4.8011e-05,1.73724e-05,3.48349e-05
548,1.31149e-05,-1.0532e-05,5.35885e-05,4.56752e-05,1.6191e-05,3.2387e-05
549,1.04796e-05,-4.71992e-06,5.72444e-05,4.98594e-05,1.96395e-05,3.50483e-05
550,9.29036e-06,1.03512e-05,5.61072e-05,5.70236e-05,2.47397e-05,4.07718e-05
551,1.19484e-05,1.82244e-05,5.03477e-05,6.08318e-05,2.73875e-05,4.28138e-05
552,1.71451e-05,1.21907e-05,4.43688e-05,5.90846e-05,2.69152e-05,4.07139e-05
553,1.75113e-05,-3.08691e-06,4.55223e-05,5.33616e-05,2.249e-05,3.71834e-05
554,1.07616e-05,-1.39523e-05,5.43729e-05,4.89701e-05,1.52637e-05,3.50761e-05
555,5.92487e-06,-1.01601e-05,6.15176e-05,4.9771e-05,9.76553e-06,3.54531e-05
556,6.74563e-06,2.20462e-06,6.10512e-05,5.35797e-05,6.11162e-06,3.61519e-05
557,9.5114e-06,9.24545e-06,5.78646e-05,5.55879e-05,4.56558e-06,3.63969e-05
558,1.09641e-05,4.76911e-06,5.56049e-05,5.36035e-05,5.01253e-06,3.74805e-05
559,1.08447e-05,-1.01815e-05,5.21866e-05,4.83258e-05,7.06947e-06,3.71979e-05
560,1.27496e-05,-2.47578e-05,4.64445e-05,4.36586e-05,9.48631e-06,3.58748e-05
561,1.63342e-05,-2.27968e-05,4.17033e-05,4.54529e-05,3.33658e-06,3.85084e-05
562,1.65574e-05,-8.62749e-06,4.45255e-05,5.28642e-05,-1.39187e-05,4.34249e-05
563,1.44896e-05,5.99395e-07,5.13761e-05,5.88372e-05,-2.7736e-05,4.36989e-05
564,1.23433e-05,-3.37104e-07,5.61214e-05,5.92919e-05,-2.40695e-05,3.85523e-05
565,1.21004e-05,-1.13214e-05,5.58531e-05,5.43672e-05,-7.6353e-06,3.2884e-05
566,1.45009e-05,-2.48653e-05,5.06288e-05,4.74064e-05,7.19165e-06,3.08809e-05
567,1.7089e-05,-2.08242e-05,4.58718e-05,4.66757e-05,1.37994e-05,3.61585e-05
568,1.61387e-05,-4.85828e-06,5.0103e-05,5.21961e-05,1.69556e-05,4.31918e-05
569,1.23884e-05,3.05985e-07,6.02127e-05,5.60007e-05,2.35666e-05,4.48055e-05
570,9.94718e-06,-6.98485e-07,6.64283e-05,5.61204e-05,2.93971e-05,4.52117e-05
571,1.08673e-05,9.66098e-07,6.61884e-05,5.27301e-05,2.73248e-05,4.55467e-05
572,1.40948e-05,3.41151e-06,6.0344e-05,4.92902e-05,2.02962e-05,4.38421e-05
573,1.61712e-05,1.26397e-06,5.33848e-05,4.90718e-05,1.73931e-05,4.11927e-05
574,1.46648e-05,-1.17117e-05,5.19591e-05,4.85525e-05,2.07485e-05,3.8202e-05
575,1.17403e-05,-2.2383e-05,5.76688e-05,4.73349e-05,2.63396e-05,3.68542e-05
576,1.13901e-05,-1.68012e-05,6.12907e-05,4.84969e-05,3.15648e-05,3.80072e-05
577,1.26638e-05,-3.41581e-06,5.83861e-05,5.26852e-05,3.35291e-05,3.95993e-05
578,1.36124e-05,3.31861e-06,5.23682e-05,5.69373e-05,2.9866e-05,4.01811e-05
579,1.31043e-05,1.85398e-07,4.93142e-05,5.78965e-05,2.32951e-05,3.88491e-05
580,1.19286e-05,-9.44614e-06,5.40082e-05,5.36417e-05,1.82633e-05,3.45818e-05
581,1.15544e-05,-1.53037e-05,6.11701e-05,4.87179e-05,1.60816e-05,3.13266e-05
582,1.36297e-05,-7.65358e-06,6.41081e-05,5.07123e-05,1.64652e-05,3.28587e-05
583,1.32384e-05,7.16395e-06,6.36302e-05,5.77333e-05,1.48979e-05,3.74873e-05
584,9.34881e-06,1.34693e-05,6.00931e-05,6.09982e-05,1.23388e-05,4.04058e-05
585,7.33361e-06,5.76898e-06,5.76001e-05,5.76925e-05,1.1858e-05,3.88895e-05
586,9.57542e-06,-9.38237e-06,5.40697e-05,5.21247e-05,1.07444e-05,3.40975e-05
587,1.44969e-05,-2.12684e-05,4.96907e-05,4.91563e-05,8.46807e-06,3.10784e-05
588,1.62303e-05,-1.90866e-05,5.08088e-05,5.10512e-05,4.68163e-06,3.41579e-05
589,1.21104e-05,-5.98614e-06,5.75393e-05,5.45875e-05,2.53419e-06,4.03572e-05
590,5.94912e-06,3.12766e-06,6.25438e-05,5.56341e-05,5.56836e-06,4.22966e-05
591,1.44075e-06,1.91418e-06,6.31815e-05,5.52107e-05,1.16032e-05,3.80666e-05
592,-2.92969e-07,-8.64808e-06,6.10526e-05,5.40487e-05,1.62296e-05,3.26612e-05
593,1.77469e-06,-2.24714e-05,5.53352e-05,5.143e-05,1.65616e-05,3.07434e-05
594,4.72593e-06,-2.2023e-05,4.9352e-05,5.24331e-05,1.22691e-05,3.33137e-05
595,5.73958e-06,-9.64927e-06,5.05448e-05,5.67712e-05,5.73299e-06,3.4307e-05
596,5.67767e-06,-3.83517e-06,5.8438e-05,5.79439e-05,9.65892e-07,3.10192e-05
597,5.18436e-06,-2.97997e-06,6.34669e-05,5.74549e-05,7.91548e-07,3.0785e-05
598,6.47507e-06,-5.59124e-07,6.14479e-05,5.90503e-05,4.34593e-06,3.50158e-05
599,1.1064e-05,1.52502e-06,5.51457e-05,6.17589e-05,6.6649e-06,3.77735e-05
600,1.5432e-05,-1.5672e-06,4.94976e-05,6.12731e-05,6.27554e-06,3.49873e-05
601,1.52632e-05,-1.41887e-05,4.90436e-05,5.50044e-05,6.07542e-06,2.77196e-05
602,1.25339e-05,-2.44664e-05,5.29825e-05,5.07841e-05,8.524e-06,2.46129e-05
603,1.23079e-05,-1.77924e-05,5.40266e-05,5.52111e-05,1.05874e-05,2.95524e-05
604,1.51424e-05,-2.78706e-06,5.1206e-05,6.21115e-05,1.09004e-05,3.62574e-05
605,1.82528e-05,4.31166e-06,4.76004e-05,6.43733e-05,1.4378e-05,3.76848e-05
606,2.0964e-05,3.31456e-08,4.54798e-05,6.25779e-05,1.95203e-05,3.41614e-05
607,2.01297e-05,-1.07857e-05,4.70622e-05,5.91664e-05,1.94313e-05,2.91534e-05
608,1.20924e-05,-1.72012e-05,5.27758e-05,5.68314e-05,1.65027e-05,2.62318e-05
609,5.12518e-06,-9.86785e-06,5.62625e-05,5.9711e-05,1.89028e-05,2.94894e-05
610,6.02955e-06,4.766e-06,5.34643e-05,6.77875e-05,2.3779e-05,3.76077e-05
611,9.44193e-06,1.21123e-05,5.19092e-05,7.46966e-05,2.3505e-05,4.47746e-05
612,1.19001e-05,6.73854e-06,5.55712e-05,7.35429e-05,2.23799e-05,4.80499e-05
613,1.44961e-05,-8.20988e-06,5.84413e-05,6.4108e-05,2.41489e-05,4.64426e-05
614,1.67829e-05,-2.08152e-05,5.44772e-05,5.51264e-05,2.63458e-05,4.06995e-05
615,1.6896e-05,-1.66887e-05,4.74781e-05,5.56739e-05,2.6632e-05,3.61806e-05
616,1.26139e-05,-8.8336e-07,4.88892e-05,6.14007e-05,2.30151e-05,3.62137e-05
617,9.62712e-06,8.48663e-06,5.71544e-05,6.22104e-05,1.85892e-05,3.72678e-05
618,1.04689e-05,4.08542e-06,6.18218e-05,5.88818e-05,1.49001e-05,3.47231e-05
619,1.22516e-05,-1.1165e-05,5.67114e-05,5.53239e-05,1.09143e-05,3.0739e-05
620,1.45944e-05,-2.70037e-05,4.80358e-05,5.1951e-05,6.59007e-06,3.04121e-05
621,1.68226e-05,-2.518e-05,4.52271e-05,5.31561e-05,3.49749e-06,3.22144e-05
622,1.48787e-05,-9.30719e-06,5.08034e-05,5.8066e-05,2.67601e-06,3.10389e-05
623,9.18683e-06,-9.51271e-07,5.77638e-05,5.99019e-05,5.00077e-06,3.08652e-05
624,5.38081e-06,-9.21965e-07,5.92711e-05,5.98778e-05,9.0492e-06,3.57832e-05
625,6.69923e-06,-8.29017e-07,5.51837e-05,5.98587e-05,1.09864e-05,4.05953e-05
626,1.24549e-05,-5.98894e-07,4.86246e-05,5.95862e-05,1.07334e-05,4.17446e-05
627,1.68329e-05,-4.77441e-06,4.426e-05,5.79743e-05,1.03484e-05,4.14208e-05
628,1.43121e-05,-1.65093e-05,4.50417e-05,5.30299e-05,9.57773e-06,4.21561e-05
629,8.96465e-06,-2.48112e-05,4.86012e-05,4.96803e-05,9.09686e-06,4.36928e-05
630,8.61638e-06,-1.85987e-05,5.01009e-05,5.20743e-05,1.00544e-05,4.54103e-05
631,1.16826e-05,-6.41621e-06,5.11539e-05,5.55208e-05,1.06354e-05,4.61462e-05
632,1.63982e-05,-5.0194e-08,5.01053e-05,5.50538e-05,1.199e-05,4.54924e-05
633,2.00003e-05,-2.23333e-06,4.58692e-05,5.14411e-05,1.45915e-05,4.31838e-05
634,1.81251e-05,-1.21125e-05,4.5973e-05,4.52765e-05,1.33013e-05,3.73569e-05
635,1.41009e-05,-2.02389e-05,5.16526e-05,3.97534e-05,9.37625e-06,3.1708e-05
636,1.12795e-05,-1.63958e-05,5.39061e-05,4.04727e-05,1.12837e-05,3.22985e-05
637,9.18703e-06,-5.06444e-06,5.01491e-05,4.72508e-05,1.66949e-05,3.65756e-05
638,8.56038e-06,1.31382e-06,4.77411e-05,5.34327e-05,1.97389e-05,3.79882e-05
639,8.76181e-06,-9.39056e-07,5.10466e-05,5.34376e-05,1.96759e-05,3.61032e-05
640,1.0432e-05,-9.9768e-06,5.1059e-05,4.69174e-05,1.7753e-05,3.38527e-05
641,1.48343e-05,-1.92085e-05,4.52619e-05,4.05688e-05,1.77598e-05,3.46672e-05
642,1.73242e-05,-1.69641e-05,4.0812e-05,4.40532e-05,1.98547e-05,4.03646e-05
643,1.05415e-05,-4.86194e-06,4.41101e-05,5.5248e-05,2.00191e-05,4.5838e-05
644,1.0806e-06,3.0505e-06,5.13632e-05,6.16179e-05,1.9201e-05,4.57624e-05
645,-9.94516e-07,1.90397e-06,5.53451e-05,5.82426e-05,2.06804e-05,4.25922e-05
646,3.88747e-06,-9.29043e-06,5.29075e-05,5.05888e-05,2.22097e-05,3.89637e-05
647,1.12072e-05,-2.51501e-05,4.36485e-05,4.61217e-05,2.14257e-05,3.42766e-05
648,1.70514e-05,-2.49426e-05,3.33636e-05,5.02144e-05,1.8593e-05,3.17506e-05
649,1.96948e-05,-1.22886e-05,3.24526e-05,5.66295e-05,1.53205e-05,3.30899e-05
650,1.96264e-05,-6.74086e-06,4.15694e-05,5.62644e-05,1.34371e-05,3.43317e-05
651,1.77905e-05,-3.42681e-06,5.13048e-05,5.18214e-05,1.37792e-05,3.63015e-05
652,1.62921e-05,2.21269e-06,5.37068e-05,4.90982e-05,1.49854e-05,4.13554e-05
653,1.74193e-05,3.78353e-06,4.79807e-05,4.81961e-05,1.45253e-05,4.5664e-05
654,1.917e-05,-3.18563e-06,4.15632e-05,4.63233e-05,1.24559e-05,4.50546e-05
655,1.64466e-05,-1.73123e-05,4.22999e-05,4.19679e-05,1.09788e-05,4.03593e-05
656,1.04973e-05,-2.41416e-05,4.8201e-05,3.96002e-05,1.18687e-05,3.9074e-05
657,8.02139e-06,-1.38182e-05,5.09589e-05,4.41519e-05,1.49981e-05,4.57585e-05
658,1.0052e-05,2.60823e-06,4.98925e-05,5.20623e-05,1.84728e-05,5.38033e-05
659,1.37893e-05,8.87791e-06,4.59884e-05,5.66233e-05,2.256e-05,5.52589e-05
660,1.61996e-05,8.47171e-07,4.2208e-05,5.54491e-05,2.42876e-05,4.87526e-05
661,1.49e-05,-1.60706e-05,4.47106e-05,5.03539e-05,2.00401e-05,3.96737e-05
662,1.15478e-05,-2.80003e-05,5.21924e-05,4.76476e-05,1.59102e-05,3.59768e-05
663,1.27507e-05,-2.42935e-05,5.65286e-05,5.18449e-05,1.91273e-05,4.01893e-05
664,1.69611e-05,-1.06857e-05,5.36111e-05,5.84211e-05,2.47411e-05,4.69479e-05
665,1.97642e-05,-1.55519e-07,4.8951e-05,6.02522e-05,2.59119e-05,5.02441e-05
666,1.68901e-05,4.24065e-07,5.23875e-05,5.59424e-05,2.44599e-05,4.89813e-05
667,1.18365e-05,-1.03203e-05,5.58228e-05,4.96592e-05,2.21385e-05,4.38537e-05
668,1.21275e-05,-2.30341e-05,5.09474e-05,4.74736e-05,2.08543e-05,3.86327e-05
669,1.29851e-05,-2.13095e-05,4.56732e-05,5.14347e-05,1.86027e-05,3.95539e-05
670,9.58108e-06,-6.96256e-06,4.85322e-05,5.6111e-05,1.5719e-05,4.71505e-05
671,7.17196e-06,2.18183e-06,5.49325e-05,5.63164e-05,1.52666e-05,5.28219e-05
672,1.02437e-05,-1.85804e-06,5.97611e-05,5.33864e-05,1.68509e-05,4.99188e-05
673,1.4346e-05,-1.67839e-05,6.04576e-05,5.0224e-05,1.82882e-05,4.22993e-05
674,1.69994e-05,-3.27315e-05,5.36979e-05,4.72629e-05,1.78835e-05,3.59112e-05
675,1.66393e-05,-2.92501e-05,4.42674e-05,4.78218e-05,1.63087e-05,3.16322e-05
676,1.10158e-05,-1.03694e-05,4.16791e-05,5.36445e-05,1.35562e-05,2.81542e-05
677,4.83058e-06,-4.23087e-07,4.78021e-05,5.96048e-05,1.08978e-05,2.90636e-05
678,5.06141e-06,-4.15586e-07,5.49109e-05,6.18313e-05,9.71596e-06,3.69129e-05
679,9.87764e-06,-1.22378e-06,5.64312e-05,6.13776e-05,1.04792e-05,4.44864e-05
680,1.31459e-05,-5.62608e-07,5.1299e-05,6.04776e-05,1.09143e-05,4.6709e-05
681,1.1525e-05,-2.18226e-06,4.49415e-05,5.85791e-05,1.03335e-05,4.51325e-05
682,5.83784e-06,-1.15911e-05,4.56917e-05,5.35856e-05,1.01038e-05,4.1365e-05
683,2.76574e-06,-1.74204e-05,5.27698e-05,4.82767e-05,1.03594e-05,4.10937e-05
684,6.40365e-06,-6.87856e-06,5.70292e-05,4.67475e-05,1.03969e-05,4.69764e-05
685,1.13122e-05,9.78403e-06,5.77022e-05,4.87929e-05,1.08661e-05,5.00893e-05
686,1.408e-05,1.64782e-05,5.55774e-05,5.35715e-05,1.35906e-05,4.49693e-05
687,1.61804e-05,1.1664e-05,5.16346e-05,5.8854e-05,1.75982e-05,3.63715e-05
688,1.6347e-05,-3.10944e-07,5.01775e-05,6.08392e-05,1.81509e-05,2.97975e-05
689,1.29019e-05,-1.04125e-05,5.31569e-05,6.03154e-05,1.42905e-05,2.80771e-05
690,9.18709e-06,-8.04458e-06,5.60834e-05,6.29911e-05,1.10076e-05,3.15474e-05
691,9.67592e-06,4.78378e-06,5.35456e-05,6.86166e-05,1.12736e-05,3.5882e-05
692,1.2565e-05,1.49108e-05,4.95856e-05,7.04612e-05,1.09852e-05,3.65478e-05
693,1.3575e-05,1.38897e-05,5.21919e-05,6.68606e-05,1.0496e-05,3.38999e-05
694,1.24136e-05,2.61779e-06,5.72527e-05,6.11474e-05,1.29473e-05,3.09028e-05
695,1.16252e-05,-8.86452e-06,5.65473e-05,5.66819e-05,1.72353e-05,2.94817e-05
696,8.8327e-06,-7.24972e-06,5.33739e-05,5.69664e-05,1.97057e-05,3.06811e-05
697,4.70042e-06,4.87153e-06,5.50673e-05,6.11789e-05,1.91779e-05,3.46147e-05
698,4.069e-06,1.3536e-05,5.97741e-05,6.24055e-05,2.1141e-05,3.93431e-05
699,5.91113e-06,1.0904e-05,6.46638e-05,5.76958e-05,2.59865e-05,4.12586e-05
700,8.46104e-06,-4.92538e-06,6.5716e-05,4.95307e-05,3.07889e-05,3.67767e-05
701,1.21052e-05,-2.19183e-05,5.84474e-05,4.25519e-05,3.32859e-05,3.15327e-05
702,1.43037e-05,-1.92168e-05,4.89935e-05,4.35305e-05,3.22951e-05,3.36034e-05
703,1.27887e-05,-4.43202e-06,4.93199e-05,4.94467e-05,2.59758e-05,3.93702e-05
704,1.04299e-05,2.7872e-06,5.68734e-05,5.06956e-05,1.86141e-05,4.28614e-05
705,9.2388e-06,6.30011e-06,6.17445e-05,5.03014e-05,1.67973e-05,4.27473e-05
706,1.08811e-05,1.18795e-05,6.24424e-05,5.28536e-05,1.92262e-05,3.84953e-05
707,1.69067e-05,1.52358e-05,5.90463e-05,5.46215e-05,2.03337e-05,3.55234e-05
708,2.37978e-05,1.05725e-05,5.31025e-05,5.25304e-05,1.82565e-05,3.70664e-05
709,2.52254e-05,-3.95774e-06,4.96859e-05,4.7476e-05,1.51743e-05,3.68838e-05
710,2.08584e-05,-1.49962e-05,5.21684e-05,4.48079e-05,1.4914e-05,3.44858e-05
711,1.54077e-05,-9.46877e-06,5.55774e-05,4.78216e-05,1.97482e-05,3.49764e-05
712,1.40014e-05,3.24624e-06,5.466e-05,5.17374e-05,2.58363e-05,3.80096e-05
713,1.82846e-05,8.05506e-06,4.90297e-05,5.13347e-05,2.83151e-05,3.98378e-05
714,2.24025e-05,3.09045e-06,4.27557e-05,4.6971e-05,2.51941e-05,3.86059e-05
715,1.94353e-05,-8.26628e-06,4.3382e-05,4.0498e-05,2.07343e-05,3.52875e-05
716,1.22468e-05,-1.71957e-05,4.92896e-05,3.66545e-05,2.05619e-05,3.35886e-05
717,8.12099e-06,-1.49788e-05,5.19953e-05,4.02543e-05,2.13001e-05,3.62077e-05
718,8.43368e-06,-5.61598e-06,4.93903e-05,4.75147e-05,1.73873e-05,4.01301e-05
719,9.982e-06,-4.98084e-07,4.60002e-05,5.0742e-05,1.5898e-05,4.11327e-05
720,9.96174e-06,-4.26671e-06,4.90223e-05,4.8659e-05,1.8832e-05,3.86863e-05
721,9.74227e-06,-1.56196e-05,5.32748e-05,4.46061e-05,1.81241e-05,3.38411e-05
722,1.58959e-05,-2.57645e-05,5.07564e-05,4.29474e-05,1.4437e-05,2.88127e-05
723,2.3412e-05,-2.20552e-05,4.62355e-05,4.68694e-05,1.39669e-05,2.80471e-05
724,2.0454e-05,-9.09374e-06,4.83647e-05,5.34961e-05,1.52357e-05,3.1849e-05
725,1.29135e-05,-1.489e-06,5.25862e-05,5.70791e-05,1.08006e-05,3.55606e-05
726,8.92176e-06,-1.38583e-06,5.33793e-05,5.74487e-05,3.37226e-06,3.70842e-05
727,8.42786e-06,-7.83918e-06,5.14788e-05,5.52018e-05,2.39063e-06,3.48554e-05
728,1.10012e-05,-1.89418e-05,4.65886e-05,5.06082e-05,9.97932e-06,2.90162e-05
729,1.51732e-05,-1.87962e-05,4.23468e-05,5.15851e-05,1.95276e-05,2.62652e-05
730,1.58172e-05,-5.25057e-06,4.49978e-05,5.85711e-05,2.45101e-05,2.87693e-05
731,1.451e-05,3.49326e-06,5.29927e-05,6.27648e-05,2.45974e-05,3.24615e-05
732,1.44836e-05,4.81588e-06,5.79565e-05,6.35664e-05,2.22557e-05,3.60849e-05
733,1.51341e-05,4.5052e-06,5.69834e-05,6.26716e-05,1.80695e-05,3.92848e-05
734,1.59316e-05,1.86603e-06,5.25513e-05,5.92303e-05,1.31691e-05,4.17893e-05
735,1.74404e-05,-4.05885e-06,4.9482e-05,5.40171e-05,1.08984e-05,4.11818e-05
736,1.63839e-05,-1.47445e-05,5.22891e-05,4.89558e-05,1.21845e-05,3.48437e-05
737,1.00872e-05,-1.98208e-05,5.91693e-05,4.62246e-05,1.53993e-05,2.95111e-05
738,3.99078e-06,-9.95267e-06,6.25653e-05,4.8741e-05,1.79029e-05,3.34619e-05
739,4.45016e-06,3.99615e-06,6.00819e-05,5.64892e-05,1.82449e-05,4.09224e-05
740,1.10374e-05,8.89806e-06,5.37092e-05,6.29924e-05,1.66627e-05,4.13947e-05
741,1.51769e-05,2.97794e-06,4.83636e-05,6.21712e-05,1.41138e-05,3.37456e-05
742,1.02247e-05,-1.07808e-05,4.99165e-05,5.39648e-05,1.256e-05,2.53171e-05
743,4.46635e-06,-1.99159e-05,5.81539e-05,4.5823e-05,1.44085e-05,2.37778e-05
744,6.09165e-06,-1.31678e-05,6.54111e-05,4.57155e-05,2.16029e-05,2.91525e-05
745,9.24269e-06,1.25163e-06,6.46779e-05,5.25049e-05,2.70533e-05,3.55593e-05
746,1.00996e-05,7.60466e-06,5.93513e-05,5.83815e-05,2.27499e-05,3.91848e-05
747,8.62008e-06,3.28841e-06,5.6099e-05,5.84853e-05,6.86544e-06,4.07446e-05
748,7.38503e-06,-6.79485e-06,5.44857e-05,5.34859e-05,-1.13895e-05,3.96634e-05
749,6.51102e-06,-1.51018e-05,5.08486e-05,4.95251e-05,-1.60576e-05,3.64805e-05
750,5.57365e-06,-1.19166e-05,4.80779e-05,5.35395e-05,-7.51121e-06,3.66881e-05
751,2.25996e-06,-7.19114e-07,5.21249e-05,6.1605e-05,6.32471e-06,4.2018e-05
752,-8.49374e-07,5.19224e-06,5.80757e-05,6.38995e-05,1.83945e-05,4.62995e-05
753,-3.61031e-07,1.82307e-06,6.26769e-05,6.00257e-05,2.70679e-05,4.37178e-05
754,2.30976e-06,-9.33808e-06,6.38569e-05,5.39128e-05,3.33772e-05,3.53433e-05
755,5.41746e-06,-2.26025e-05,5.87372e-05,4.83554e-05,3.59279e-05,3.01172e-05
756,7.33641e-06,-2.00088e-05,5.23326e-05,5.00909e-05,2.90492e-05,3.66808e-05
757,6.59923e-06,-6.05467e-06,5.23647e-05,5.70005e-05,1.40872e-05,4.76301e-05
758,5.41358e-06,-1.06458e-06,5.68905e-05,5.8318e-05,3.67567e-06,5.01702e-05
759,6.99602e-06,-1.94651e-06,5.95935e-05,5.65318e-05,5.8124e-06,4.70805e-05
760,9.52814e-06,-1.35779e-06,5.90419e-05,5.85711e-05,1.5483e-05,4.47531e-05
761,1.27842e-05,-4.71935e-07,5.42728e-05,6.24172e-05,2.19465e-05,4.44011e-05
762,1.67926e-05,-5.12166e-06,4.804e-05,6.41076e-05,2.02771e-05,4.49751e-05
763,1.82016e-05,-1.80746e-05,4.82434e-05,6.19483e-05,1.29264e-05,4.41975e-05
764,1.53088e-05,-2.57988e-05,5.51691e-05,5.9641e-05,9.17897e-06,4.2485e-05
765,1.36327e-05,-1.81706e-05,5.93118e-05,6.04498e-05,1.24328e-05,4.11827e-05
766,1.36312e-05,-4.45106e-06,5.74205e-05,6.2378e-05,1.6968e-05,4.16787e-05
767,1.32574e-05,2.47665e-06,5.26745e-05,6.27776e-05,1.84581e-05,4.28354e-05
768,1.25563e-05,2.16076e-07,4.82079e-05,6.19861e-05,1.6375e-05,4.20906e-05
769,7.70062e-06,-1.01668e-05,4.78772e-05,5.9463e-05,1.17192e-05,3.88369e-05
770,-5.7018e-07,-1.98009e-05,5.47113e-05,5.57469e-05,9.14669e-06,3.60703e-05
771,-5.39651e-07,-1.80501e-05,6.21558e-05,5.40584e-05,1.20528e-05,3.85385e-05
772,8.45668e-06,-8.72289e-06,6.36234e-05,5.50202e-05,1.59966e-05,4.55884e-05
773,1.45292e-05,-2.99562e-06,6.15078e-05,5.54899e-05,1.60545e-05,5.02946e-05
774,1.28889e-05,-5.55044e-06,6.12223e-05,5.32734e-05,1.50213e-05,4.79753e-05
775,9.15383e-06,-1.56732e-05,6.01113e-05,4.86919e-05,1.51646e-05,4.09375e-05
776,1.0389e-05,-2.46344e-05,5.29089e-05,4.50746e-05,1.58279e-05,3.56571e-05
777,1.40821e-05,-1.9682e-05,4.56784e-05,4.80704e-05,1.3631e-05,3.69762e-05
778,1.34115e-05,-5.32699e-06,4.69615e-05,5.59052e-05,1.10924e-05,4.36208e-05
779,9.12575e-06,3.73025e-06,5.04316e-05,6.07043e-05,1.25546e-05,4.92857e-05
780,6.28026e-06,2.33921e-06,5.04777e-05,5.87721e-05,1.62647e-05,4.88263e-05
781,7.57542e-06,-9.87604e-06,5.01282e-05,5.03716e-05,1.76101e-05,4.27889e-05
782,1.38802e-05,-2.58325e-05,5.05535e-05,4.28214e-05,1.591e-05,3.90553e-05
783,2.00591e-05,-2.43824e-05,5.23051e-05,4.7903e-05,1.29076e-05,4.3543e-05
784,1.90295e-05,-7.9683e-06,5.68252e-05,5.98384e-05,1.05476e-05,4.58527e-05
785,1.22492e-05,8.25221e-07,6.10131e-05,6.57834e-05,1.02817e-05,4.03477e-05
786,5.24572e-06,2.11142e-06,6.10635e-05,6.73688e-05,1.20274e-05,3.72919e-05
787,3.06983e-06,2.25896e-06,5.74965e-05,6.72333e-05,1.46861e-05,4.00719e-05
788,6.99107e-06,1.85844e-06,5.13516e-05,6.54687e-05,1.53291e-05,4.33721e-05
789,1.25599e-05,-9.35725e-07,4.60084e-05,6.34146e-05,1.41183e-05,4.25053e-05
790,1.29689e-05,-1.23616e-05,4.59179e-05,6.00836e-05,1.19922e-05,3.77842e-05
791,8.10497e-06,-2.22226e-05,5.10437e-05,5.76295e-05,1.10281e-05,3.43571e-05
792,3.77369e-06,-1.58835e-05,5.56491e-05,5.84316e-05,1.16254e-05,3.62865e-05
793,4.07951e-06,-5.95821e-07,5.72644e-05,5.97431e-05,1.0755e-05,4.141e-05
794,8.05927e-06,8.06407e-06,5.45819e-05,5.80986e-05,8.84059e-06,4.44538e-05
795,1.20549e-05,5.1144e-06,4.82582e-05,5.49481e-05,8.70077e-06,4.25306e-05
796,1.43707e-05,-7.06468e-06,4.46969e-05,5.1723e-05,6.77759e-06,3.69091e-05
797,1.40365e-05,-1.59616e-05,4.77673e-05,5.01997e-05,3.81618e-06,3.39389e-05
798,1.41856e-05,-1.01924e-05,5.31087e-05,5.32539e-05,5.41792e-06,3.68461e-05
799,1.68429e-05,2.81377e-06,5.40166e-05,5.80995e-05,9.96349e-06,4.18574e-05
800,1.78386e-05,8.22847e-06,4.99029e-05,5.90246e-05,1.73684e-05,4.40988e-05
801,1.39556e-05,2.72188e-06,4.68199e-05,5.57973e-05,3.02781e-05,4.28072e-05
802,1.21648e-05,-9.94446e-06,4.6239e-05,5.12369e-05,3.72694e-05,3.90117e-05
803,1.6508e-05,-2.16699e-05,4.61444e-05,4.81357e-05,3.36583e-05,3.43766e-05
804,2.09706e-05,-2.08101e-05,4.5643e-05,4.98728e-05,2.6866e-05,3.20618e-05
805,2.03251e-05,-8.07481e-06,4.73211e-05,5.45972e-05,2.08318e-05,3.27703e-05
806,1.74151e-05,4.39113e-06,5.04333e-05,5.76312e-05,1.71918e-05,3.37952e-05
807,1.49673e-05,7.51978e-06,5.17797e-05,5.64822e-05,1.56238e-05,3.21647e-05
808,1.21905e-05,-2.72775e-06,5.0953e-05,5.03014e-05,1.51742e-05,2.73922e-05
809,1.14591e-05,-1.91231e-05,4.73185e-05,4.25864e-05,1.45702e-05,2.41495e-05
810,1.25979e-05,-1.97601e-05,4.43985e-05,4.13807e-05,1.21907e-05,2.76602e-05
811,1.12098e-05,-6.42122e-06,4.66815e-05,4.55159e-05,9.37564e-06,3.4321e-05
812,7.68259e-06,5.07093e-07,5.25829e-05,4.73909e-05,9.45711e-06,3.52114e-05
813,6.68735e-06,3.7756e-06,5.67379e-05,4.83909e-05,1.18388e-05,3.13165e-05
814,9.53184e-06,7.99673e-06,5.68639e-05,5.06657e-05,1.38957e-05,3.00491e-05
815,1.42351e-05,7.85258e-06,5.1635e-05,5.26929e-05,1.33371e-05,3.15709e-05
816,1.84382e-05,7.80675e-07,4.40231e-05,5.18927e-05,1.07912e-05,3.21299e-05
817,2.01471e-05,-1.26047e-05,4.14703e-05,4.72589e-05,8.28281e-06,2.89701e-05
818,1.96896e-05,-2.05788e-05,4.49123e-05,4.49106e-05,7.17523e-06,2.48109e-05
819,1.85957e-05,-1.43128e-05,4.79165e-05,4.85882e-05,8.23933e-06,2.45795e-05
820,1.75672e-05,-2.61936e-06,4.8384e-05,5.30317e-05,1.21322e-05,2.86362e-05
821,1.83664e-05,1.82202e-06,4.58407e-05,5.3247e-05,1.49472e-05,3.40565e-05
822,2.02794e-05,-2.30117e-06,4.16186e-05,5.12477e-05,1.36853e-05,3.77006e-05
823,1.94683e-05,-1.1831e-05,4.14312e-05,4.91834e-05,1.17112e-05,3.60064e-05
824,1.72342e-05,-1.78934e-05,4.56933e-05,5.0056e-05,1.31551e-05,3.14662e-05
825,1.97032e-05,-1.12035e-05,4.75259e-05,5.469e-05,1.80303e-05,3.19049e-05
826,2.30927e-05,2.60817e-06,4.48272e-05,5.89975e-05,2.1724e-05,3.75798e-05
827,1.96582e-05,9.51348e-06,4.50363e-05,5.99584e-05,2.285e-05,4.18353e-05
828,1.3603e-05,5.16614e-06,5.10527e-05,5.79039e-05,2.14323e-05,4.22235e-05
829,1.4023e-05,-6.27746e-06,5.60633e-05,5.28414e-05,1.74077e-05,4.05823e-05
830,2.04908e-05,-1.64172e-05,5.32488e-05,4.69181e-05,1.5763e-05,3.87727e-05
831,2.40554e-05,-1.41214e-05,4.84455e-05,4.58998e-05,1.78827e-05,3.8646e-05
832,2.02813e-05,-1.34796e-06,5.12033e-05,4.9676e-05,1.948e-05,3.72718e-05
833,1.40849e-05,7.68695e-06,5.7912e-05,5.16762e-05,1.8646e-05,3.15128e-05
834,1.02478e-05,4.34453e-06,6.15587e-05,4.80694e-05,1.74979e-05,2.6887e-05
835,9.19669e-06,-1.07276e-05,6.04369e-05,4.18928e-05,1.61538e-05,2.9376e-05
836,1.03693e-05,-2.82159e-05,5.43416e-05,3.86869e-05,1.59231e-05,3.55874e-05
837,1.24471e-05,-2.70617e-05,4.76948e-05,4.24676e-05,1.74846e-05,4.01167e-05
838,1.22629e-05,-8.50251e-06,4.82057e-05,4.76264e-05,1.80325e-05,3.84948e-05
839,9.21177e-06,2.85811e-06,5.49599e-05,4.74453e-05,1.67974e-05,3.30523e-05
840,6.00566e-06,4.88367e-06,5.95791e-05,4.58094e-05,1.72729e-05,3.29382e-05
841,6.76888e-06,8.00756e-06,5.91668e-05,4.65895e-05,1.98303e-05,3.6332e-05
842,1.17102e-05,1.11022e-05,5.40152e-05,4.89123e-05,1.98812e-05,3.78856e-05
843,1.55043e-05,7.11635e-06,4.66493e-05,4.92265e-05,1.69274e-05,3.6878e-05
844,1.38028e-05,-6.46099e-06,4.48863e-05,4.60122e-05,1.42554e-05,3.33436e-05
845,8.26162e-06,-1.65024e-05,5.19527e-05,4.51119e-05,1.55385e-05,3.16329e-05
846,2.81575e-06,-1.0138e-05,6.15616e-05,5.12972e-05,1.96881e-05,3.57038e-05
847,6.00275e-07,2.19012e-06,6.55742e-05,6.00404e-05,2.1935e-05,4.21559e-05
848,3.72033e-06,5.67839e-06,5.99557e-05,6.3229e-05,1.78535e-05,4.39447e-05
849,8.61315e-06,7.65162e-07,5.02371e-05,6.02503e-05,6.47593e-06,3.97716e-05
850,1.00891e-05,-8.98034e-06,4.78572e-05,5.43914e-05,-6.08387e-06,3.42267e-05
851,8.33934e-06,-1.53839e-05,5.19157e-05,5.09092e-05,-1.12817e-05,3.25565e-05
852,7.46952e-06,-1.08989e-05,5.50342e-05,5.23189e-05,-5.2406e-06,3.68145e-05
853,9.09467e-06,-1.33864e-06,5.47106e-05,5.61218e-05,4.25175e-06,4.39564e-05
854,1.01889e-05,2.85928e-06,5.18834e-05,5.92872e-05,1.13357e-05,4.63747e-05
855,1.01487e-05,-9.74733e-08,4.95152e-05,5.88495e-05,1.72001e-05,4.13231e-05
856,1.12609e-05,-7.48259e-06,4.71922e-05,5.14224e-05,2.0107e-05,3.46897e-05
857,1.31053e-05,-1.35153e-05,4.38537e-05,4.11394e-05,2.25927e-05,3.32441e-05
858,1.4935e-05,-1.01672e-05,4.34633e-05,3.94128e-05,2.58e-05,3.85236e-05
859,1.35213e-05,2.11199e-07,4.95447e-05,4.72924e-05,2.68923e-05,4.51273e-05
860,1.07059e-05,6.2135e-06,5.6655e-05,5.46836e-05,2.35468e-05,4.71209e-05
861,1.01596e-05,1.32339e-06,6.02399e-05,5.49389e-05,1.91233e-05,4.442e-05
862,1.14813e-05,-1.46664e-05,5.93977e-05,4.87487e-05,1.73439e-05,3.92088e-05
863,1.20268e-05,-3.12719e-05,5.31875e-05,4.17074e-05,1.82069e-05,3.37027e-05
864,9.72088e-06,-2.7347e-05,4.62952e-05,4.47768e-05,1.61621e-05,3.31972e-05
865,5.819e-06,-8.04557e-06,4.61993e-05,5.61062e-05,9.44943e-06,3.74775e-05
866,4.22689e-06,3.08847e-06,5.47595e-05,6.18269e-05,2.99157e-06,3.96069e-05
867,5.88522e-06,3.55052e-06,6.38495e-05,6.07669e-05,1.14407e-07,4.0316e-05
868,7.66663e-06,1.98046e-07,6.4108e-05,5.89687e-05,1.96837e-08,4.29335e-05
869,7.32406e-06,-3.46253e-06,5.46949e-05,5.85656e-05,-1.054e-06,4.55159e-05
870,6.76989e-06,-8.53456e-06,4.5686e-05,5.73361e-05,-3.03467e-06,4.58168e-05
871,6.13267e-06,-1.94894e-05,4.81619e-05,5.11755e-05,-3.5119e-06,4.36569e-05
872,3.22461e-06,-2.60603e-05,5.85696e-05,4.54824e-05,-1.83036e-06,4.10944e-05
873,2.44578e-06,-1.56028e-05,6.4176e-05,4.8665e-05,1.58887e-06,3.89828e-05
874,5.80713e-06,1.80792e-06,6.25125e-05,5.77924e-05,5.81189e-06,3.82349e-05
875,1.0289e-05,1.04873e-05,5.65162e-05,6.34015e-05,8.90355e-06,3.8367e-05
876,1.31887e-05,6.98787e-06,4.9678e-05,6.27344e-05,1.1603e-05,3.7542e-05
877,1.07599e-05,-6.15814e-06,5.07269e-05,5.78148e-05,1.18713e-05,3.47503e-05
878,5.84116e-06,-1.64919e-05,5.87318e-05,5.39109e-05,1.2944e-05,3.24935e-05
879,6.71228e-06,-1.23382e-05,6.34345e-05,5.58753e-05,2.01469e-05,3.42431e-05
880,8.31311e-06,6.9739e-07,6.04656e-05,6.1663e-05,2.65499e-05,3.81764e-05
881,7.87286e-06,7.65645e-06,5.73634e-05,6.46399e-05,2.9171e-05,4.00855e-05
882,8.57336e-06,2.17944e-06,5.98158e-05,6.21131e-05,3.13279e-05,3.86102e-05
883,9.79337e-06,-1.18568e-05,6.19342e-05,5.636e-05,3.21504e-05,3.45361e-05
884,1.47146e-05,-2.09498e-05,5.7518e-05,5.12979e-05,3.20719e-05,3.09294e-05
885,1.83174e-05,-1.25844e-05,5.23223e-05,5.23435e-05,2.91093e-05,3.23022e-05
886,1.69435e-05,3.58287e-06,5.57562e-05,5.88019e-05,2.42752e-05,3.81797e-05
887,1.66868e-05,1.15504e-05,6.36047e-05,6.39114e-05,2.06974e-05,4.3792e-05
888,1.66721e-05,9.72068e-06,6.79136e-05,6.41675e-05,1.97668e-05,4.354e-05
889,1.48604e-05,-1.96022e-06,6.47968e-05,5.96327e-05,2.03361e-05,3.69642e-05
890,1.38163e-05,-1.78798e-05,5.62692e-05,5.3221e-05,2.06238e-05,3.14197e-05
891,1.64589e-05,-1.90361e-05,4.88659e-05,5.36059e-05,1.86603e-05,3.22312e-05
892,1.94951e-05,-7.90238e-06,4.80648e-05,5.97001e-05,1.67385e-05,3.6312e-05
893,2.02972e-05,-1.92359e-06,5.0966e-05,6.28042e-05,1.87761e-05,3.92084e-05
894,1.72817e-05,-3.06399e-07,5.39557e-05,6.51845e-05,2.21517e-05,3.93741e-05
895,1.13915e-05,9.26786e-07,5.5949e-05,6.80815e-05,2.18411e-05,3.76393e-05
896,7.259e-06,9.68407e-07,5.36963e-05,6.78189e-05,1.67537e-05,3.91502e-05
897,7.45777e-06,-2.0084e-06,4.82576e-05,6.52073e-05,1.07008e-05,4.44439e-05
898,9.39249e-06,-1.27072e-05,4.79124e-05,6.16468e-05,6.57035e-06,4.72056e-05
899,9.25758e-06,-2.27528e-05,5.5336e-05,5.91087e-05,6.61251e-06,4.61855e-05
900,8.50664e-06,-1.99611e-05,6.27482e-05,5.87756e-05,1.11796e-05,4.48699e-05
901,1.04079e-05,-9.37826e-06,6.53594e-05,6.08138e-05,1.88053e-05,4.36809e-05
902,1.53755e-05,-1.85959e-06,6.0263e-05,6.36529e-05,2.39312e-05,3.97719e-05
903,1.94251e-05,-3.61141e-06,5.09048e-05,6.26835e-05,2.5168e-05,3.39202e-05
904,2.02507e-05,-1.57e-05,4.74846e-05,5.43334e-05,2.36465e-05,2.92902e-05
905,1.88912e-05,-2.61187e-05,5.07683e-05,4.42706e-05,1.98098e-05,2.84068e-05
906,1.80179e-05,-2.18158e-05,5.56414e-05,4.1053e-05,1.74332e-05,3.10957e-05
907,1.81776e-05,-8.12221e-06,5.51151e-05,4.46799e-05,1.65268e-05,3.45889e-05
908,1.81199e-05,-1.31789e-07,5.17493e-05,4.85628e-05,1.41902e-05,3.56373e-05
909,1.73184e-05,-2.11735e-06,5.38192e-05,4.89205e-05,1.24887e-05,3.38598e-05
910,1.68119e-05,-1.1442e-05,5.56609e-05,4.665e-05,1.45771e-05,3.16327e-05
911,1.87495e-05,-2.16317e-05,5.31769e-05,4.52807e-05,1.93163e-05,3.1207e-05
912,1.94294e-05,-2.0134e-05,4.86781e-05,4.89888e-05,2.09233e-05,3.38335e-05
913,1.41138e-05,-6.90492e-06,5.0403e-05,5.51609e-05,1.88306e-05,3.78491e-05
914,1.00038e-05,2.68372e-06,5.61407e-05,5.62756e-05,1.76571e-05,3.98384e-05
915,1.04443e-05,1.52021e-07,6.06189e-05,5.11468e-05,1.8936e-05,3.87339e-05
916,1.43701e-05,-1.24369e-05,6.01705e-05,4.45731e-05,2.1098e-05,3.45567e-05
917,1.81935e-05,-2.60721e-05,5.38868e-05,4.09535e-05,2.43802e-05,2.71158e-05
918,1.72931e-05,-2.45198e-05,4.74951e-05,4.34216e-05,2.62066e-05,2.41327e-05
919,1.21211e-05,-1.10468e-05,4.77817e-05,4.79095e-05,2.27644e-05,3.14526e-05
920,7.88372e-06,-4.67556e-06,5.4209e-05,4.9352e-05,1.95072e-05,3.98388e-05
921,7.0925e-06,-4.94185e-06,5.94954e-05,4.94092e-05,2.08267e-05,4.24142e-05
922,8.97198e-06,-4.0108e-06,5.97003e-05,4.94822e-05,2.25668e-05,4.2871e-05
923,1.27227e-05,-8.0037e-07,5.29624e-05,4.84705e-05,2.06427e-05,4.28026e-05
924,1.72179e-05,-2.31194e-06,4.53736e-05,4.51132e-05,1.71257e-05,4.08574e-05
925,1.79899e-05,-1.62792e-05,4.55856e-05,3.82592e-05,1.45484e-05,3.68208e-05
926,1.38464e-05,-2.87509e-05,5.18259e-05,3.39313e-05,1.48153e-05,3.48066e-05
927,1.13931e-05,-2.20001e-05,5.56974e-05,3.86306e-05,1.73413e-05,3.87579e-05
928,1.30951e-05,-4.21452e-06,5.58539e-05,4.74586e-05,1.88665e-05,4.52777e-05
929,1.81834e-05,4.54975e-06,5.21758e-05,5.16487e-05,1.62915e-05,4.67375e-05
930,2.293e-05,-1.77463e-07,4.61522e-05,4.97313e-05,1.05547e-05,4.27659e-05
931,2.29501e-05,-1.35716e-05,4.56485e-05,4.50253e-05,2.70338e-06,3.81678e-05
932,2.1229e-05,-2.34836e-05,5.29466e-05,4.15977e-05,-1.52422e-06,3.59058e-05
933,2.17336e-05,-1.94036e-05,5.73065e-05,4.19802e-05,3.83246e-06,3.69975e-05
934,2.19558e-05,-6.07108e-06,5.59786e-05,4.51523e-05,1.05074e-05,3.95897e-05
935,2.05985e-05,4.28499e-06,5.21054e-05,4.83429e-05,1.26366e-05,4.04715e-05
936,1.91329e-05,5.6441e-06,5.07223e-05,4.92237e-05,1.17305e-05,4.01193e-05
937,2.09751e-05,-3.05243e-06,5.22457e-05,4.61258e-05,1.20195e-05,4.06649e-05
938,2.07933e-05,-1.43542e-05,4.90112e-05,4.24258e-05,1.45975e-05,4.10014e-05
939,1.55308e-05,-1.29529e-05,4.16324e-05,4.61691e-05,1.4768e-05,4.04487e-05
940,8.49586e-06,3.09209e-07,4.03625e-05,5.54912e-05,1.12042e-05,3.99255e-05
941,4.65417e-06,8.77594e-06,4.51924e-05,6.03312e-05,1.05627e-05,3.96453e-05
942,3.95511e-06,3.70115e-06,5.10124e-05,5.93394e-05,1.4593e-05,3.83337e-05
943,5.21264e-06,-1.23021e-05,5.21754e-05,5.66073e-05,1.56056e-05,3.63975e-05
944,9.16937e-06,-2.72872e-05,4.69545e-05,5.25283e-05,1.23247e-05,3.72932e-05
945,1.15351e-05,-2.23434e-05,4.20597e-05,5.20942e-05,9.56594e-06,4.23505e-05
946,9.11608e-06,-4.01663e-06,4.2017e-05,5.7541e-05,9.30775e-06,4.47208e-05
947,5.12749e-06,5.59521e-06,4.51212e-05,6.13985e-05,9.42058e-06,4.06837e-05
948,3.34513e-06,7.66724e-06,4.77569e-05,6.05546e-05,9.5674e-06,3.78859e-05
949,4.05723e-06,9.02063e-06,4.78992e-05,5.82358e-05,1.16086e-05,3.89259e-05
950,6.53298e-06,7.80314e-06,4.22585e-05,5.77045e-05,1.64737e-05,3.98821e-05
951,6.73005e-06,9.25338e-07,3.51552e-05,5.71842e-05,2.2058e-05,3.94076e-05
952,3.81756e-06,-1.3231e-05,3.5266e-05,5.27625e-05,2.49671e-05,3.6484e-05
953,8.98596e-07,-2.16005e-05,4.3366e-05,4.86538e-05,2.33812e-05,3.44453e-05
954,8.99761e-07,-1.33786e-05,5.10561e-05,5.1722e-05,2.01317e-05,3.70977e-05
955,1.5128e-06,2.25069e-06,5.33455e-05,5.88436e-05,1.96139e-05,4.12583e-05
956,7.91446e-07,1.08497e-05,5.2208e-05,6.25006e-05,2.12471e-05,4.21027e-05
957,3.34011e-06,7.55551e-06,5.03785e-05,6.09882e-05,2.14747e-05,3.86718e-05
958,6.54061e-06,-5.85549e-06,5.03082e-05,5.62908e-05,1.80147e-05,3.35662e-05
959,5.29334e-06,-1.77274e-05,5.39061e-05,5.30447e-05,1.62266e-05,3.22282e-05
960,7.11699e-06,-1.49054e-05,5.68653e-05,5.47377e-05,2.05969e-05,3.61449e-05
961,1.26522e-05,-1.26328e-06,5.65799e-05,5.89976e-05,2.35545e-05,4.06137e-05
962,1.3843e-05,8.69393e-06,5.41236e-05,6.01468e-05,2.49352e-05,4.23424e-05
963,8.60889e-06,7.11783e-06,5.34568e-05,5.70415e-05,2.89389e-05,4.09682e-05
964,5.76505e-06,-4.28502e-06,5.33614e-05,5.10529e-05,3.13603e-05,3.62766e-05
965,9.43897e-06,-1.48129e-05,5.01454e-05,4.54124e-05,2.89662e-05,3.22538e-05
966,1.35672e-05,-1.0645e-05,4.67527e-05,4.60106e-05,2.25011e-05,3.45981e-05
967,1.26522e-05,4.67104e-06,4.87916e-05,5.19717e-05,1.42859e-05,4.01192e-05
968,8.13948e-06,1.49385e-05,5.41459e-05,5.69479e-05,7.55392e-06,4.13658e-05
969,5.16731e-06,1.13584e-05,5.78972e-05,5.8519e-05,6.85246e-06,3.96468e-05
970,5.80297e-06,-5.88329e-06,5.72706e-05,5.6725e-05,1.10317e-05,3.91157e-05
971,9.77947e-06,-2.43669e-05,5.19142e-05,5.35837e-05,1.50237e-05,3.86741e-05
972,1.23531e-05,-2.21006e-05,4.65957e-05,5.41316e-05,1.45675e-05,3.84037e-05
973,9.7167e-06,-6.35674e-06,4.935e-05,5.74557e-05,1.17539e-05,3.81151e-05
974,4.86939e-06,-1.10237e-06,5.76303e-05,5.94942e-05,1.1461e-05,3.80295e-05
975,3.34766e-06,-3.12717e-06,6.20907e-05,5.99812e-05,1.45743e-05,3.95072e-05
976,6.099e-06,-3.07396e-06,5.97319e-05,5.90459e-05,1.80834e-05,3.94332e-05
977,9.56706e-06,-1.56499e-06,5.2445e-05,5.81801e-05,1.86878e-05,3.63363e-05
978,1.10661e-05,-3.25065e-06,4.59969e-05,5.83398e-05,1.58852e-05,3.20329e-05
979,1.03366e-05,-1.38064e-05,4.61685e-05,5.57419e-05,1.31056e-05,2.61315e-05
980,8.77748e-06,-2.28457e-05,5.24919e-05,5.05888e-05,1.47128e-05,2.38663e-05
981,8.54222e-06,-1.73973e-05,5.86395e-05,4.92063e-05,1.84224e-05,3.00115e-05
982,9.46549e-06,-3.54706e-06,6.20979e-05,5.35455e-05,1.80794e-05,3.96394e-05
983,1.16945e-05,5.77284e-06,5.70271e-05,5.89566e-05,1.29777e-05,4.67182e-05
984,1.4417e-05,5.06032e-06,4.67392e-05,6.10422e-05,8.1782e-06,4.89449e-05
985,1.59559e-05,-5.65247e-06,4.47982e-05,5.75381e-05,6.63681e-06,4.4895e-05
986,1.41519e-05,-1.64473e-05,5.0714e-05,5.24882e-05,8.24984e-06,3.66511e-05
987,9.17001e-06,-1.5355e-05,5.5452e-05,5.32237e-05,1.22603e-05,3.17573e-05
988,8.03832e-06,-5.16248e-06,5.45537e-05,5.89102e-05,1.58632e-05,3.49348e-05
989,1.16045e-05,3.3774e-06,5.23384e-05,6.23541e-05,2.0026e-05,4.18693e-05
990,1.22449e-05,3.92163e-06,5.51652e-05,6.01482e-05,2.32912e-05,4.56609e-05
991,1.09546e-05,-4.81026e-06,5.62365e-05,5.26648e-05,2.17654e-05,4.33558e-05
992,1.22749e-05,-1.51092e-05,5.28104e-05,4.59049e-05,1.87951e-05,3.72763e-05
993,1.50666e-05,-1.30385e-05,5.05008e-05,4.8647e-05,1.95927e-05,3.43672e-05
994,1.28622e-05,-8.42435e-07,5.38958e-05,5.78838e-05,2.43659e-05,3.68175e-05
995,8.31305e-06,6.40667e-06,5.90036e-05,6.26195e-05,2.52284e-05,3.89328e-05
996,7.89193e-06,2.34759e-06,6.30611e-05,6.02201e-05,2.14101e-05,3.74117e-05
997,9.33877e-06,-1.13324e-05,6.37726e-05,5.41556e-05,1.85716e-05,3.39296e-05
998,1.24052e-05,-2.46502e-05,5.83318e-05,4.88048e-05,1.88233e-05,3.10226e-05
999,1.53017e-05,-1.93758e-05,5.13694e-05,5.14619e-05,1.75107e-05,3.29319e-05
1000,1.45919e-05,-1.3522e-06,5.20412e-05,5.96742e-05,1.4237e-05,3.70899e-05
1001,1.159e-05,7.63895e-06,5.98845e-05,6.1089e-05,1.25226e-05,3.65132e-05
1002,1.06218e-05,8.59062e-06,6.51968e-05,5.82374e-05,9.01413e-06,3.45457e-05
1003,1.41594e-05,6.87925e-06,6.48633e-05,5.8845e-05,-2.4649e-06,3.52536e-05
1004,2.00826e-05,2.25634e-06,6.00032e-05,5.98082e-05,-1.74826e-05,3.70461e-05
1005,2.16535e-05,-6.67517e-06,5.29001e-05,5.8406e-05,-2.28223e-05,3.65154e-05
1006,1.67946e-05,-2.07628e-05,5.01636e-05,5.51702e-05,-1.31427e-05,3.15119e-05
1007,1.25904e-05,-2.69631e-05,5.42035e-05,5.48672e-05,7.03535e-06,2.66035e-05
1008,1.27959e-05,-1.62066e-05,5.74225e-05,5.8659e-05,2.57506e-05,2.79034e-05
1009,1.31516e-05,-9.73296e-08,5.5953e-05,6.24103e-05,3.14126e-05,3.56721e-05
1010,1.09983e-05,6.48627e-06,4.95968e-05,6.28598e-05,2.59117e-05,4.28727e-05
1011,1.15214e-05,2.2632e-06,4.21268e-05,6.05711e-05,1.62482e-05,4.30783e-05
1012,1.68744e-05,-7.43547e-06,4.06052e-05,5.64647e-05,2.61879e-06,3.69189e-05
1013,2.16068e-05,-1.28365e-05,4.89613e-05,5.28925e-05,-1.01811e-05,3.20497e-05
1014,2.35849e-05,-6.74373e-06,5.82492e-05,5.31083e-05,-1.23082e-05,3.34156e-05
1015,2.33935e-05,4.37843e-06,5.92496e-05,5.56931e-05,-3.4558e-06,3.78198e-05
1016,2.31433e-05,8.40771e-06,5.41376e-05,5.59653e-05,8.86305e-06,3.94927e-05
1017,2.1233e-05,2.88099e-06,5.24831e-05,5.25382e-05,1.68109e-05,3.7658e-05
1018,1.54182e-05,-9.05167e-06,5.54018e-05,4.77816e-05,1.62893e-05,3.54732e-05
1019,1.4028e-05,-1.91907e-05,5.44497e-05,4.55228e-05,1.46962e-05,3.64425e-05
1020,1.87773e-05,-1.54216e-05,4.89545e-05,4.90002e-05,1.68718e-05,4.14409e-05
1021,2.17505e-05,-2.44564e-06,4.86655e-05,5.521e-05,2.51802e-05,4.60651e-05
1022,2.12242e-05,4.34202e-06,5.55817e-05,5.80783e-05,3.41403e-05,4.6231e-05
1023,2.05444e-05,2.13987e-07,6.34921e-05,5.51564e-05,3.84542e-05,4.20107e-05
1024,2.24817e-05,-1.35541e-05,6.41869e-05,4.97776e-05,3.80427e-05,3.55811e-05
1025,2.59803e-05,-2.99165e-05,5.58722e-05,4.7601e-05,3.34632e-05,3.12823e-05
1026,2.7737e-05,-3.00851e-05,4.71283e-05,5.24972e-05,2.7495e-05,3.32272e-05
1027,2.36301e-05,-1.62927e-05,4.63857e-05,5.88111e-05,2.2366e-05,3.714e-05
1028,1.54293e-05,-8.57419e-06,5.04046e-05,5.88126e-05,1.93409e-05,3.75494e-05
1029,7.53997e-06,-6.84149e-06,5.2778e-05,5.51993e-05,1.78918e-05,3.66176e-05
1030,3.71931e-06,-5.52883e-06,5.31472e-05,5.36456e-05,1.80614e-05,3.68316e-05
1031,5.95188e-06,-5.47507e-06,4.96991e-05,5.55987e-05,1.67891e-05,3.80411e-05
1032,1.11724e-05,-8.94189e-06,4.48382e-05,5.73102e-05,1.31032e-05,4.00706e-05
1033,1.25785e-05,-1.85706e-05,4.62119e-05,5.45097e-05,1.0555e-05,3.99684e-05
1034,8.82251e-06,-2.39508e-05,5.33622e-05,5.15017e-05,1.18369e-05,3.86485e-05
1035,5.31536e-06,-1.52173e-05,5.74202e-05,5.39245e-05,1.17968e-05,4.00227e-05
1036,4.65837e-06,-1.34272e-06,5.68853e-05,6.1201e-05,7.44373e-06,4.27611e-05
1037,5.64722e-06,5.24735e-06,5.27336e-05,6.75182e-05,3.28289e-06,4.30531e-05
1038,6.63551e-06,3.19514e-06,4.64042e-05,6.79946e-05,4.36657e-06,4.08331e-05
1039,7.15321e-06,-6.18103e-06,4.55499e-05,6.17234e-05,7.08541e-06,3.59609e-05
1040,7.20561e-06,-1.62153e-05,5.25291e-05,5.44047e-05,8.1932e-06,2.98987e-05
1041,6.3648e-06,-1.64688e-05,5.76719e-05,5.32267e-05,1.14971e-05,2.89276e-05
1042,4.05931e-06,-7.48146e-06,5.51981e-05,5.59579e-05,1.50452e-05,3.51429e-05
1043,3.9971e-06,-3.75697e-07,5.23386e-05,5.58029e-05,1.67034e-05,4.26838e-05
1044,5.56692e-06,-2.67955e-06,5.41996e-05,5.09521e-05,1.97062e-05,4.44618e-05
1045,7.11105e-06,-1.44532e-05,5.2459e-05,4.44178e-05,2.18481e-05,3.96058e-05
1046,9.48007e-06,-2.54083e-05,4.55474e-05,4.11914e-05,2.06412e-05,3.39762e-05
1047,9.97799e-06,-2.00652e-05,4.08767e-05,4.53166e-05,1.76567e-05,3.2926e-05
1048,6.11852e-06,-2.55254e-06,4.42272e-05,5.24163e-05,1.59619e-05,3.56625e-05
1049,2.62596e-06,8.31315e-06,5.00189e-05,5.484e-05,1.53339e-05,3.8491e-05
1050,3.10583e-06,4.94609e-06,5.39907e-05,5.16384e-05,1.61454e-05,3.92256e-05
1051,4.18474e-06,-8.64954e-06,5.48539e-05,4.55825e-05,1.93762e-05,3.68139e-05
1052,3.91919e-06,-2.14957e-05,5.14175e-05,3.94286e-05,2.13311e-05,3.31471e-05
1053,4.62758e-06,-1.702e-05,4.57314e-05,4.15639e-05,1.76987e-05,3.38315e-05
1054,7.08949e-06,-1.78963e-06,4.33086e-05,5.31982e-05,1.10096e-05,3.80187e-05
1055,9.23996e-06,3.8355e-06,4.69433e-05,6.10699e-05,7.0198e-06,3.88322e-05
1056,8.22445e-06,3.43479e-06,5.11769e-05,6.05181e-05,6.24953e-06,3.65757e-05
1057,7.60601e-06,5.02354e-06,5.16136e-05,5.85633e-05,7.80324e-06,3.5854e-05
1058,1.11851e-05,6.68966e-06,4.75282e-05,5.86847e-05,1.11596e-05,3.54418e-05
1059,1.56551e-05,4.63669e-06,4.34828e-05,5.8683e-05,1.45832e-05,3.4801e-05
1060,1.68854e-05,-6.19415e-06,4.5862e-05,5.38919e-05,1.5894e-05,3.42727e-05
1061,1.49164e-05,-1.63164e-05,5.39915e-05,4.82146e-05,1.46817e-05,3.44604e-05
1062,9.99377e-06,-1.13758e-05,5.87212e-05,4.97767e-05,1.3277e-05,3.58292e-05
1063,4.60843e-06,2.00579e-06,5.76309e-05,5.52306e-05,1.56074e-05,3.69532e-05
1064,6.32357e-06,8.24407e-06,5.24906e-05,5.90864e-05,1.95914e-05,3.8058e-05
1065,1.39667e-05,3.25464e-06,4.81371e-05,5.88037e-05,1.94801e-05,3.98469e-05
1066,1.86827e-05,-9.55978e-06,4.94793e-05,5.24615e-05,1.53612e-05,3.96763e-05
1067,1.6834e-05,-1.9342e-05,5.52038e-05,4.49194e-05,1.33361e-05,3.69215e-05
1068,1.4359e-05,-1.69831e-05,5.78662e-05,4.34564e-05,1.46438e-05,3.60233e-05
1069,1.56324e-05,-7.80648e-06,5.59007e-05,4.80974e-05,1.3875e-05,3.75872e-05
1070,1.85762e-05,-2.7647e-06,5.46215e-05,5.15707e-05,9.07759e-06,3.86577e-05
1071,2.09529e-05,-6.04187e-06,5.79493e-05,4.92338e-05,5.90849e-06,3.85127e-05
1072,2.27739e-05,-1.66403e-05,6.04607e-05,4.32257e-05,6.39507e-06,3.7264e-05
1073,2.39483e-05,-2.60567e-05,5.66837e-05,3.97519e-05,1.02512e-05,3.48667e-05
1074,2.45246e-05,-2.16518e-05,5.23912e-05,4.2477e-05,1.27722e-05,3.38226e-05
1075,2.26431e-05,-5.68005e-06,5.44836e-05,4.82053e-05,1.08604e-05,3.53128e-05
1076,2.08986e-05,6.49172e-06,6.21848e-05,5.29938e-05,9.1674e-06,3.72734e-05
1077,2.05077e-05,6.92341e-06,6.90147e-05,5.58275e-05,1.16945e-05,3.7444e-05
1078,2.07593e-05,-4.11552e-06,6.91305e-05,5.31239e-05,1.85121e-05,3.62228e-05
1079,2.14691e-05,-1.76523e-05,6.35338e-05,4.57222e-05,2.52707e-05,3.75475e-05
1080,1.96146e-05,-1.37289e-05,5.87335e-05,4.62376e-05,2.70507e-05,4.37045e-05
1081,1.21398e-05,1.2575e-06,5.88443e-05,5.44516e-05,2.49236e-05,4.7021e-05
1082,3.74173e-06,5.86679e-06,6.02672e-05,5.63441e-05,2.40928e-05,4.1476e-05
1083,6.70268e-07,4.32527e-06,5.89336e-05,5.45993e-05,2.58219e-05,3.67122e-05
1084,3.36692e-06,4.31084e-06,5.6012e-05,5.6529e-05,2.76625e-05,3.89983e-05
1085,8.68221e-06,4.76994e-06,5.06844e-05,5.8332e-05,2.62938e-05,4.35648e-05
1086,1.17023e-05,2.41315e-06,4.42345e-05,5.53323e-05,2.26626e-05,4.47717e-05
1087,8.20156e-06,-8.33231e-06,4.36256e-05,4.78038e-05,1.96337e-05,4.01081e-05
1088,6.66054e-07,-1.92842e-05,4.96185e-05,4.3617e-05,1.88894e-05,3.56565e-05
1089,-1.9629e-06,-1.706e-05,5.60424e-05,4.94761e-05,1.9727e-05,3.78172e-05
1090,1.47544e-06,-7.14076e-06,5.98515e-05,6.04824e-05,2.01231e-05,4.37033e-05
1091,3.86827e-06,-2.09406e-06,5.80957e-05,6.52835e-05,1.95671e-05,4.54088e-05
1092,4.43504e-06,-5.23953e-06,5.21215e-05,6.04636e-05,1.9004e-05,4.08776e-05
1093,4.86367e-06,-1.44254e-05,5.12992e-05,5.09401e-05,1.66299e-05,3.4367e-05
1094,5.54409e-06,-1.95292e-05,5.55725e-05,4.60096e-05,1.3803e-05,3.11633e-05
1095,7.96033e-06,-1.1439e-05,5.71468e-05,5.02743e-05,1.39483e-05,3.31453e-05
1096,5.33881e-06,2.49111e-06,5.4923e-05,5.76651e-05,1.60121e-05,3.66014e-05
1097,-1.04874e-07,7.83752e-06,5.19386e-05,5.89272e-05,1.70128e-05,3.67701e-05
1098,-3.92296e-06,2.31126e-06,5.09247e-05,5.17684e-05,1.59174e-05,3.26538e-05
1099,-4.7834e-06,-9.46762e-06,5.00753e-05,4.16384e-05,1.45398e-05,2.80529e-05
1100,-1.63547e-06,-1.93737e-05,4.79635e-05,3.75772e-05,1.50482e-05,2.90177e-05
1101,3.60705e-06,-1.61975e-05,4.53213e-05,4.47015e-05,1.506e-05,3.62801e-05
1102,4.79096e-06,-2.13601e-06,4.90598e-05,5.55207e-05,1.3619e-05,4.3448e-05
1103,3.45999e-06,9.46085e-06,5.53795e-05,6.0276e-05,1.38325e-05,4.67822e-05
1104,4.92432e-06,9.60085e-06,5.72507e-05,5.92334e-05,1.56468e-05,4.62085e-05
1105,8.31593e-06,-4.17105e-06,5.34416e-05,5.50099e-05,1.73446e-05,4.23864e-05
1106,1.334e-05,-2.04572e-05,4.57159e-05,5.08048e-05,1.91847e-05,3.96644e-05
1107,1.7013e-05,-1.74701e-05,4.06184e-05,5.54273e-05,2.02291e-05,4.49064e-05
1108,1.54324e-05,-2.25721e-06,4.3003e-05,6.73922e-05,1.72606e-05,5.23731e-05
1109,1.11396e-05,2.12541e-06,4.91801e-05,7.45949e-05,1.2238e-05,5.12955e-05
1110,1.04038e-05,9.1773e-07,5.21686e-05,7.37378e-05,9.2488e-06,4.67548e-05
1111,1.30985e-05,2.85566e-06,5.18672e-05,6.87487e-05,9.09091e-06,4.52252e-05
1112,1.67434e-05,5.02986e-06,4.71375e-05,6.39417e-05,8.93065e-06,4.57731e-05
1113,1.87526e-05,1.7435e-06,3.97367e-05,6.06346e-05,5.51569e-06,4.54503e-05
1114,1.69282e-05,-1.302e-05,3.8199e-05,5.52624e-05,7.46168e-08,4.27306e-05
1115,1.30033e-05,-2.60125e-05,4.55176e-05,5.07953e-05,-1.2988e-06,4.18245e-05
1116,1.04937e-05,-2.01957e-05,5.13847e-05,5.215e-05,4.5834e-06,4.32686e-05
1117,8.92268e-06,-2.27308e-06,4.98491e-05,5.7637e-05,1.3116e-05,4.25549e-05
1118,1.1747e-05,8.93745e-06,4.3835e-05,6.0324e-05,1.75725e-05,3.76355e-05
1119,1.75346e-05,4.9758e-06,3.90505e-05,5.6752e-05,1.89687e-05,3.15149e-05
1120,2.00123e-05,-8.89012e-06,4.11499e-05,5.10969e-05,2.0509e-05,2.80697e-05
1121,1.81605e-05,-1.77275e-05,4.97582e-05,4.93136e-05,1.98128e-05,2.9213e-05
1122,1.36775e-05,-1.11128e-05,5.42687e-05,5.33672e-05,1.6805e-05,3.3793e-05
1123,1.25476e-05,4.3948e-06,5.10346e-05,5.93097e-05,1.44241e-05,3.83348e-05
1124,1.71379e-05,1.39131e-05,4.90454e-05,6.2795e-05,1.37484e-05,4.02457e-05
1125,1.94944e-05,1.09889e-05,5.09065e-05,6.17886e-05,1.43769e-05,3.8924e-05
1126,1.85919e-05,-1.16298e-06,5.19454e-05,5.59152e-05,1.32685e-05,3.5398e-05
1127,2.07412e-05,-1.3106e-05,4.86504e-05,4.85685e-05,1.22451e-05,3.24938e-05
1128,2.25344e-05,-1.29517e-05,4.19805e-05,4.74071e-05,1.21822e-05,3.32556e-05
1129,1.94815e-05,-1.27529e-06,4.24503e-05,5.30055e-05,9.56001e-06,3.61035e-05
1130,1.58879e-05,8.45054e-06,4.98028e-05,5.75054e-05,6.29396e-06,3.61989e-05
1131,1.56404e-05,7.50272e-06,5.40496e-05,5.69437e-05,6.17187e-06,3.19902e-05
1132,1.64516e-05,-6.45099e-06,5.16448e-05,5.12807e-05,1.20915e-05,2.78718e-05
1133,1.6465e-05,-2.48828e-05,4.74057e-05,4.42803e-05,1.97794e-05,2.77036e-05
1134,1.52434e-05,-2.52741e-05,4.5358e-05,4.5245e-05,2.23644e-05,3.3147e-05
1135,1.28106e-05,-1.0725e-05,4.68742e-05,5.08397e-05,1.97196e-05,3.98936e-05
1136,1.11466e-05,-3.17106e-06,5.1438e-05,5.08074e-05,1.71789e-05,4.2232e-05
1137,1.00157e-05,-1.38394e-06,5.4937e-05,4.8141e-05,1.80568e-05,4.36238e-05
1138,9.36019e-06,1.08915e-06,5.58537e-05,4.68961e-05,2.23505e-05,4.46229e-05
1139,1.11973e-05,4.25774e-06,5.39922e-05,4.58044e-05,2.66909e-05,4.4727e-05
1140,1.42425e-05,3.96643e-06,5.15123e-05,4.23508e-05,2.80471e-05,4.57368e-05
1141,1.33726e-05,-5.54947e-06,5.12316e-05,3.71081e-05,2.62584e-05,4.39777e-05
1142,1.06262e-05,-1.30637e-05,5.37239e-05,3.72928e-05,2.33296e-05,4.13467e-05
1143,1.25778e-05,-6.60213e-06,5.56784e-05,4.4541e-05,2.26442e-05,4.24117e-05
1144,1.64635e-05,5.9288e-06,5.64583e-05,5.15016e-05,2.33602e-05,4.42139e-05
1145,1.68223e-05,1.10439e-05,5.52072e-05,5.36862e-05,2.26848e-05,4.33679e-05
1146,1.59514e-05,5.98664e-06,5.14593e-05,5.31541e-05,2.06155e-05,4.10546e-05
1147,1.69476e-05,-5.29631e-06,4.94159e-05,5.01069e-05,1.68271e-05,3.79689e-05
1148,1.94175e-05,-1.32236e-05,5.3494e-05,4.71532e-05,1.36165e-05,3.63222e-05
1149,2.06453e-05,-9.40508e-06,5.82425e-05,5.04769e-05,1.35951e-05,3.83003e-05
1150,1.99172e-05,1.8834e-06,5.69356e-05,5.84882e-05,1.4383e-05,4.10827e-05
1151,1.70508e-05,8.4301e-06,5.396e-05,6.18156e-05,1.36077e-05,4.10894e-05
1152,1.29654e-05,3.85622e-06,5.43043e-05,5.62763e-05,1.12852e-05,3.78551e-05
1153,1.23121e-05,-1.04704e-05,5.4841e-05,4.72077e-05,1.12417e-05,3.13044e-05
1154,1.53904e-05,-2.34348e-05,5.34592e-05,4.27226e-05,1.28094e-05,2.55348e-05
1155,2.12896e-05,-1.89104e-05,5.08795e-05,4.77514e-05,1.36885e-05,2.75872e-05
1156,2.18642e-05,-6.84465e-07,5.22771e-05,5.81982e-05,1.26098e-05,3.45067e-05
1157,1.67582e-05,1.02491e-05,5.66392e-05,6.5028e-05,1.35359e-05,3.75656e-05
1158,1.23057e-05,5.13396e-06,5.90147e-05,6.5095e-05,1.96421e-05,3.42002e-05
1159,1.2513e-05,-1.0903e-05,5.80642e-05,5.90313e-05,2.59941e-05,2.97063e-05
1160,1.75739e-05,-2.54765e-05,5.28376e-05,5.02803e-05,2.72566e-05,3.09707e-05
1161,2.06411e-05,-2.03743e-05,4.77862e-05,4.95267e-05,2.31536e-05,3.8891e-05
1162,1.79079e-05,-2.44799e-06,4.93443e-05,5.55338e-05,1.90959e-05,4.51735e-05
1163,1.35471e-05,4.64996e-06,5.48307e-05,5.75514e-05,1.95414e-05,4.38822e-05
1164,1.13944e-05,1.02504e-06,5.74198e-05,5.71334e-05,2.29553e-05,3.97992e-05
1165,1.04821e-05,-1.98858e-06,5.70994e-05,5.86689e-05,2.36067e-05,3.79946e-05
1166,1.27422e-05,-3.61334e-06,5.42108e-05,6.22706e-05,1.89937e-05,3.90709e-05
1167,1.71778e-05,-8.3121e-06,4.97368e-05,6.42501e-05,1.09049e-05,3.92814e-05
1168,1.91183e-05,-1.91286e-05,4.93479e-05,5.97021e-05,4.02612e-06,3.52198e-05
1169,1.74691e-05,-2.64164e-05,5.50287e-05,5.35904e-05,2.00182e-06,3.20921e-05
1170,1.54176e-05,-1.84076e-05,6.16467e-05,5.17651e-05,6.38888e-06,3.39606e-05
1171,1.46499e-05,-3.9474e-06,6.67395e-05,5.18989e-05,1.23267e-05,3.75195e-05
1172,1.47889e-05,1.79355e-06,6.67633e-05,5.05102e-05,1.43745e-05,3.89758e-05
1173,1.58491e-05,-4.40748e-06,5.99207e-05,4.88383e-05,1.4792e-05,3.70464e-05
1174,1.70434e-05,-1.70871e-05,5.44014e-05,4.81035e-05,1.41069e-05,3.19535e-05
1175,1.68074e-05,-2.41356e-05,5.57743e-05,4.92807e-05,1.20557e-05,2.87639e-05
1176,1.74892e-05,-1.71235e-05,5.90026e-05,5.4329e-05,1.33497e-05,3.06839e-05
1177,1.90793e-05,-3.13534e-06,5.89502e-05,6.23562e-05,1.46394e-05,3.24451e-05
1178,1.92601e-05,4.76533e-06,5.62716e-05,6.9255e-05,1.10272e-05,2.97408e-05
1179,1.69607e-05,2.0089e-06,5.39248e-05,7.06829e-05,4.3883e-06,2.61033e-05
1180,1.54496e-05,-9.36806e-06,5.17191e-05,6.43531e-05,6.34026e-07,2.50134e-05
1181,1.62259e-05,-1.94988e-05,4.88195e-05,5.56099e-05,1.25446e-06,2.63194e-05
1182,1.7059e-05,-1.57569e-05,4.70546e-05,5.55362e-05,8.33227e-07,3.08257e-05
1183,1.45039e-05,-2.57002e-06,5.00332e-05,6.33813e-05,1.42211e-06,3.63869e-05
1184,1.06321e-05,3.83667e-06,5.49544e-05,6.62353e-05,5.15829e-06,3.92453e-05
1185,8.58869e-06,-1.09888e-06,5.91861e-05,6.09532e-05,9.31586e-06,3.97524e-05
1186,8.02769e-06,-1.40958e-05,5.87742e-05,5.47581e-05,1.05505e-05,3.81437e-05
1187,1.11072e-05,-2.72104e-05,5.10805e-05,5.12674e-05,1.04871e-05,3.42324e-05
1188,1.54744e-05,-2.50338e-05,4.28185e-05,5.35522e-05,1.0407e-05,3.17324e-05
1189,1.61629e-05,-1.2254e-05,4.37063e-05,5.84306e-05,1.0397e-05,3.18313e-05
1190,1.37691e-05,-6.05896e-06,5.16767e-05,6.0737e-05,1.08445e-05,3.19433e-05
1191,1.17713e-05,-3.49813e-06,5.87165e-05,6.32014e-05,1.19096e-05,3.33468e-05
1192,1.03848e-05,5.07256e-07,6.0528e-05,6.64202e-05,1.25473e-05,3.60551e-05
1193,1.04767e-05,1.15625e-06,5.53409e-05,6.78234e-05,1.18098e-05,3.61696e-05
1194,1.12683e-05,-4.91761e-06,4.82993e-05,6.55358e-05,1.0344e-05,3.36465e-05
1195,1.048e-05,-1.80364e-05,4.801e-05,5.83067e-05,7.75563e-06,2.76218e-05
1196,7.35748e-06,-2.59393e-05,5.38095e-05,5.15329e-05,7.71123e-06,2.3903e-05
1197,4.00507e-06,-1.83705e-05,5.63779e-05,5.0108e-05,1.27256e-05,2.94916e-05
1198,1.85207e-06,-5.70205e-06,5.65483e-05,5.21736e-05,1.762e-05,3.67649e-05
1199,3.96624e-06,-1.51759e-06,5.76033e-05,5.46056e-05,1.80843e-05,3.78627e-05
1200,9.50205e-06,-6.90988e-06,5.59117e-05,5.49052e-05,1.63369e-05,3.55791e-05
1201,1.05898e-05,-1.77047e-05,5.36978e-05,5.2522e-05,1.48896e-05,3.49666e-05
1202,6.58817e-06,-2.50307e-05,5.62917e-05,5.0697e-05,1.62719e-05,3.61557e-05
1203,2.71382e-06,-1.92684e-05,6.05245e-05,5.34668e-05,2.14e-05,3.77938e-05
1204,3.28038e-06,-4.55219e-06,6.2535e-05,5.929e-05,2.39766e-05,3.94875e-05
1205,4.54796e-06,6.15692e-06,6.26803e-05,6.25388e-05,2.11986e-05,4.11644e-05
1206,3.80175e-06,6.14191e-06,6.34507e-05,6.06426e-05,1.86942e-05,4.14714e-05
1207,4.94038e-06,-3.18971e-06,6.12818e-05,5.36534e-05,1.85395e-05,3.9778e-05
1208,8.11054e-06,-1.26284e-05,5.5744e-05,4.43249e-05,2.16692e-05,3.88096e-05
1209,1.1683e-05,-9.66942e-06,5.15546e-05,4.11817e-05,2.43595e-05,4.15031e-05
1210,1.22344e-05,2.14077e-06,5.4283e-05,4.71786e-05,2.47308e-05,4.56671e-05
1211,1.07629e-05,7.791e-06,5.9484e-05,5.43129e-05,2.58062e-05,4.7251e-05
1212,8.83448e-06,2.22628e-06,6.13179e-05,5.67928e-05,2.72919e-05,4.59982e-05
1213,8.00408e-06,-1.11331e-05,5.761e-05,5.2866e-05,2.66906e-05,4.38214e-05
1214,9.72816e-06,-2.38471e-05,4.95562e-05,4.56271e-05,2.3615e-05,4.15344e-05
1215,1.14361e-05,-2.12079e-05,4.4057e-05,4.69329e-05,1.95564e-05,4.12811e-05
1216,9.78336e-06,-6.79383e-06,4.58978e-05,5.66678e-05,1.65976e-05,4.21554e-05
1217,6.55914e-06,1.67625e-06,5.15633e-05,6.13798e-05,1.51763e-05,4.13797e-05
1218,3.96183e-06,4.67515e-06,5.45478e-05,6.06931e-05,1.41863e-05,4.29527e-05
1219,1.73634e-06,6.70999e-06,5.43632e-05,5.86784e-05,1.43675e-05,4.65759e-05
1220,1.88719e-06,7.29779e-06,5.08168e-05,5.54818e-05,1.59558e-05,4.75249e-05
1221,5.25966e-06,2.17327e-06,4.51154e-05,5.24778e-05,1.73476e-05,4.58829e-05
1222,7.76978e-06,-1.32723e-05,4.32723e-05,4.83842e-05,1.64826e-05,4.28097e-05
1223,6.18117e-06,-2.45028e-05,4.74509e-05,4.46453e-05,1.60827e-05,4.04125e-05
1224,3.22257e-06,-1.77193e-05,5.15697e-05,4.51534e-05,2.03296e-05,4.14743e-05
1225,3.02875e-06,-2.4483e-06,5.4216e-05,4.94814e-05,2.75447e-05,4.3952e-05
1226,1.05267e-05,6.13183e-06,5.23694e-05,5.13707e-05,3.14583e-05,4.45831e-05
1227,1.95155e-05,3.59368e-06,4.72716e-05,4.9629e-05,2.9681e-05,4.22523e-05
1228,1.8063e-05,-7.31457e-06,4.50044e-05,4.65122e-05,2.39344e-05,3.83988e-05
1229,7.94441e-06,-1.56248e-05,4.74645e-05,4.55484e-05,1.89884e-05,3.67787e-05
1230,5.35528e-07,-1.02298e-05,4.83814e-05,4.96574e-05,1.66361e-05,3.87428e-05
1231,1.90204e-06,4.26891e-06,4.35998e-05,5.58061e-05,1.33036e-05,4.13034e-05
1232,6.81107e-06,1.38739e-05,4.03067e-05,5.84862e-05,1.20032e-05,4.21866e-05
1233,7.49494e-06,1.17067e-05,4.36284e-05,5.55508e-05,1.29976e-05,4.08084e-05
1234,4.97697e-06,-8.30655e-07,5.14192e-05,4.9755e-05,1.2377e-05,3.57654e-05
1235,4.11969e-06,-1.4018e-05,5.41486e-05,4.58313e-05,1.27281e-05,2.99065e-05
1236,8.70114e-06,-1.40292e-05,5.09903e-05,4.88888e-05,1.49149e-05,3.00409e-05
1237,1.27442e-05,-2.21588e-06,5.16577e-05,5.50202e-05,1.68406e-05,3.69476e-05
1238,1.18773e-05,6.90212e-06,5.55791e-05,5.42248e-05,1.53126e-05,4.47176e-05
1239,1.05156e-05,5.28514e-06,5.94374e-05,4.6747e-05,1.38516e-05,4.75773e-05
1240,1.20398e-05,-7.06545e-06,6.08546e-05,3.94474e-05,1.43202e-05,4.20419e-05
1241,1.62989e-05,-2.0121e-05,5.74545e-05,3.58753e-05,1.46893e-05,3.25356e-05
1242,1.88858e-05,-1.50184e-05,5.08492e-05,3.9604e-05,1.45312e-05,2.90258e-05
1243,1.68523e-05,3.5786e-06,4.98062e-05,4.69864e-05,1.39515e-05,3.27665e-05
1244,1.23135e-05,1.38399e-05,5.44294e-05,5.0778e-05,1.33035e-05,3.62969e-05
1245,8.903e-06,1.3824e-05,5.66925e-05,5.06695e-05,1.39354e-05,3.95414e-05
1246,8.05966e-06,1.04839e-05,5.28505e-05,4.98702e-05,1.51175e-05,4.46844e-05
1247,8.98712e-06,6.20547e-06,4.45559e-05,5.13551e-05,1.04594e-05,4.66431e-05
1248,9.77092e-06,5.18272e-07,3.83723e-05,5.37658e-05,-2.3278e-06,4.09573e-05
1249,8.67708e-06,-9.95865e-06,4.09711e-05,5.20715e-05,-1.22418e-05,3.18463e-05
1250,6.40868e-06,-1.87169e-05,4.86342e-05,4.75214e-05,-5.28954e-06,2.89282e-05
1251,7.68946e-06,-1.44395e-05,5.10409e-05,4.66629e-05,1.41389e-05,3.48095e-05
1252,1.27179e-05,-2.88853e-06,5.01903e-05,4.98997e-05,2.89981e-05,4.24659e-05
1253,1.50588e-05,2.45401e-06,5.00613e-05,5.30239e-05,3.27967e-05,4.32192e-05
1254,1.44603e-05,-8.78284e-07,4.83127e-05,5.36351e-05,3.22317e-05,3.79217e-05
1255,1.43209e-05,-1.00326e-05,4.6877e-05,4.95583e-05,3.11278e-05,3.27712e-05
1256,1.44716e-05,-1.58178e-05,5.00354e-05,4.39765e-05,2.8019e-05,3.10483e-05
1257,1.77579e-05,-1.02946e-05,5.5468e-05,4.43185e-05,2.04953e-05,3.26761e-05
1258,1.93181e-05,8.05369e-08,5.5968e-05,5.13947e-05,1.17039e-05,3.54545e-05
1259,1.69229e-05,4.53331e-06,5.27224e-05,5.82706e-05,9.60007e-06,3.75054e-05
1260,1.54095e-05,1.94999e-06,5.28499e-05,5.86314e-05,1.69729e-05,3.71585e-05
1261,1.58823e-05,-5.42408e-06,5.31123e-05,5.24753e-05,2.41244e-05,3.39958e-05
1262,1.86241e-05,-1.21261e-05,5.19922e-05,4.572e-05,2.34097e-05,3.11069e-05
1263,2.07218e-05,-7.52772e-06,5.0501e-05,4.54361e-05,1.72579e-05,3.31571e-05
1264,2.03947e-05,5.49613e-06,5.35962e-05,5.22613e-05,1.32945e-05,3.91614e-05
1265,1.91264e-05,1.20685e-05,5.79588e-05,5.9902e-05,1.4424e-05,4.46895e-05
1266,1.74809e-05,6.2714e-06,5.92047e-05,6.10065e-05,1.80858e-05,4.76635e-05
1267,1.72969e-05,-8.1715e-06,5.66489e-05,5.43274e-05,1.9223e-05,4.49057e-05
1268,2.06152e-05,-2.19175e-05,5.14457e-05,4.74468e-05,1.5112e-05,3.82217e-05
1269,2.47522e-05,-2.0307e-05,4.80385e-05,4.98983e-05,9.01374e-06,3.66766e-05
1270,2.40121e-05,-7.71699e-06,4.96926e-05,5.67915e-05,5.15655e-06,4.0548e-05
1271,1.80204e-05,-1.42155e-06,5.51197e-05,5.81019e-05,6.07728e-06,4.34063e-05
1272,1.23275e-05,1.33701e-06,5.88387e-05,5.61705e-05,7.4113e-06,4.35157e-05
1273,1.1965e-05,5.49024e-06,5.93389e-05,5.51449e-05,4.13605e-06,4.26641e-05
1274,1.61828e-05,6.40007e-06,5.58367e-05,5.62287e-05,-2.08892e-06,4.18237e-05
1275,2.01741e-05,1.35723e-06,5.09083e-05,5.85076e-05,-6.44897e-06,3.9288e-05
1276,2.02313e-05,-1.10717e-05,5.06075e-05,5.86879e-05,-8.55906e-06,3.54772e-05
1277,1.67606e-05,-2.15403e-05,5.5784e-05,5.82815e-05,-8.18877e-06,3.52961e-05
1278,1.49189e-05,-1.76809e-05,5.93088e-05,6.05378e-05,-5.53393e-06,3.93956e-05
1279,1.78984e-05,-3.66636e-06,6.01873e-05,6.47952e-05,-3.21713e-06,4.32847e-05
1280,2.21126e-05,6.26928e-06,5.66201e-05,6.79838e-05,-2.86195e-06,4.41239e-05
1281,2.11704e-05,3.49163e-06,5.01455e-05,6.655e-05,-2.40892e-06,4.16223e-05
1282,1.40761e-05,-1.12407e-05,4.90631e-05,6.07327e-05,-6.52362e-07,3.91579e-05
1283,7.24059e-06,-2.49157e-05,5.37403e-05,5.77676e-05,2.96647e-06,4.09711e-05
1284,6.33388e-06,-2.49964e-05,5.86331e-05,6.07435e-05,8.78161e-06,4.57532e-05
1285,1.0441e-05,-1.42204e-05,5.94084e-05,6.48413e-05,1.54511e-05,4.81452e-05
1286,1.38397e-05,-5.32595e-06,6.01859e-05,6.54517e-05,2.47147e-05,4.61527e-05
1287,1.44958e-05,-5.68788e-06,6.36667e-05,6.26414e-05,3.12132e-05,4.28679e-05
1288,1.50422e-05,-1.56849e-05,6.23258e-05,5.93131e-05,2.92776e-05,4.08364e-05
1289,1.63005e-05,-2.73514e-05,5.64846e-05,5.84951e-05,2.35062e-05,4.02181e-05
1290,1.72961e-05,-2.74347e-05,5.03119e-05,6.17535e-05,1.89411e-05,4.14229e-05
1291,1.53879e-05,-1.71992e-05,4.87843e-05,6.6872e-05,1.66778e-05,4.29977e-05
1292,1.27392e-05,-1.12869e-05,5.27274e-05,7.05381e-05,1.53386e-05,4.17799e-05
1293,1.21344e-05,-1.53319e-05,5.86114e-05,7.0217e-05,1.66674e-05,3.71685e-05
1294,1.39497e-05,-2.57369e-05,6.0117e-05,6.42271e-05,1.8743e-05,3.1099e-05
1295,1.7303e-05,-3.81312e-05,5.46234e-05,5.6371e-05,1.91392e-05,2.78838e-05
1296,1.94016e-05,-3.73829e-05,4.75399e-05,5.55083e-05,1.73846e-05,3.32928e-05
1297,1.69982e-05,-2.24976e-05,4.65427e-05,5.80871e-05,1.51374e-05,4.22861e-05
1298,1.38778e-05,-1.16177e-05,5.27901e-05,5.32881e-05,1.54316e-05,4.52973e-05
1299,1.33447e-05,-5.86572e-06,5.90874e-05,4.65362e-05,1.77128e-05,4.3697e-05
1300,1.48725e-05,-1.02154e-06,5.9505e-05,4.63479e-05,1.80858e-05,4.14435e-05
1301,1.6034e-05,1.91552e-06,5.34444e-05,5.05195e-05,1.46868e-05,3.8808e-05
1302,1.28727e-05,9.77417e-07,4.62923e-05,5.24085e-05,1.09783e-05,3.54025e-05
1303,6.07815e-06,-9.89632e-06,4.41935e-05,4.80922e-05,9.79348e-06,3.17424e-05
1304,1.8338e-06,-2.2071e-05,4.85615e-05,4.43727e-05,1.21096e-05,3.00465e-05
1305,2.5246e-06,-1.94671e-05,5.28084e-05,4.63502e-05,1.62443e-05,3.27962e-05
1306,2.96041e-06,-5.25159e-06,5.27225e-05,5.1074e-05,1.86523e-05,3.64085e-05
1307,2.64778e-06,5.21065e-06,4.82915e-05,5.4061e-05,1.69541e-05,3.67564e-05
1308,3.16986e-06,3.52115e-06,4.26948e-05,5.41007e-05,1.40288e-05,3.44176e-05
1309,2.51246e-06,-8.63874e-06,4.29935e-05,5.21975e-05,9.76966e-06,3.12188e-05
1310,6.9831e-07,-1.6753e-05,5.04558e-05,5.07885e-05,5.85035e-06,3.11101e-05
1311,6.04048e-07,-8.66567e-06,5.57214e-05,5.25768e-05,6.60306e-06,3.61657e-05
1312,2.58615e-06,8.08636e-06,5.52633e-05,5.54683e-05,1.09645e-05,4.30435e-05
1313,4.67847e-06,1.65109e-05,5.48654e-05,5.55526e-05,1.47512e-05,4.65296e-05
1314,4.92406e-06,1.11912e-05,5.83272e-05,5.19572e-05,1.61194e-05,4.38654e-05
1315,7.38238e-06,-2.91031e-06,6.07926e-05,4.76099e-05,1.51262e-05,3.6398e-05
1316,1.41149e-05,-1.49788e-05,5.62764e-05,4.70524e-05,1.20729e-05,3.12342e-05
1317,2.10293e-05,-1.25658e-05,4.85178e-05,5.29523e-05,9.15583e-06,3.37226e-05
1318,2.1681e-05,4.14931e-07,4.82364e-05,6.13715e-05,9.15017e-06,4.01529e-05
1319,1.77941e-05,9.25513e-06,5.46776e-05,6.61925e-05,1.50412e-05,4.25846e-05
1320,1.35137e-05,8.40849e-06,6.07619e-05,6.54563e-05,2.45896e-05,3.82611e-05
1321,1.10795e-05,-1.949e-06,6.11732e-05,5.85463e-05,3.16146e-05,3.09568e-05
1322,1.30145e-05,-1.51184e-05,5.44994e-05,4.79736e-05,3.38009e-05,2.65598e-05
1323,1.51233e-05,-1.31165e-05,4.73779e-05,4.39125e-05,3.38245e-05,2.95506e-05
1324,1.0826e-05,1.46185e-06,4.72189e-05,4.83009e-05,3.33747e-05,3.5271e-05
1325,3.6333e-06,8.03281e-06,5.26646e-05,5.26062e-05,3.33061e-05,3.63562e-05
1326,1.42819e-06,7.22736e-06,5.80894e-05,5.49396e-05,3.43571e-05,3.50976e-05
1327,5.17247e-06,7.3202e-06,5.90599e-05,5.72628e-05,3.52395e-05,3.57095e-05
1328,1.00249e-05,8.76733e-06,5.18644e-05,5.99917e-05,3.34301e-05,3.77166e-05
1329,1.1361e-05,6.0387e-06,4.12237e-05,5.8922e-05,2.9084e-05,3.77193e-05
1330,8.13319e-06,-6.30465e-06,3.84023e-05,5.07668e-05,2.61154e-05,3.50097e-05
1331,3.05531e-06,-1.57696e-05,4.68598e-05,4.23939e-05,2.66624e-05,3.32799e-05
1332,2.46796e-07,-9.68589e-06,5.64198e-05,4.20282e-05,2.93871e-05,3.44708e-05
1333,1.8518e-07,3.38282e-06,5.84489e-05,4.71673e-05,3.34005e-05,3.50969e-05
1334,3.48033e-06,9.05282e-06,5.24471e-05,5.06864e-05,3.64313e-05,3.29654e-05
1335,6.52314e-06,4.73871e-06,4.4815e-05,5.05802e-05,3.5154e-05,3.19971e-05
1336,5.65561e-06,-6.54184e-06,4.45999e-05,4.74388e-05,2.87835e-05,3.36342e-05
1337,3.73679e-06,-1.60611e-05,5.12536e-05,4.46284e-05,2.33644e-05,3.76319e-05
1338,3.60379e-06,-1.4504e-05,5.5525e-05,4.60603e-05,2.25743e-05,4.28507e-05
1339,5.40554e-06,-4.39089e-06,5.32468e-05,5.13346e-05,1.8787e-05,4.60471e-05
1340,6.71263e-06,3.7157e-06,5.00453e-05,5.60368e-05,1.2649e-05,4.51514e-05
1341,6.59636e-06,3.12769e-06,5.30659e-05,5.68565e-05,1.00411e-05,4.17226e-05
1342,6.80425e-06,-6.32895e-06,5.68984e-05,5.28578e-05,1.22612e-05,3.7441e-05
1343,8.2734e-06,-1.68169e-05,5.45168e-05,4.64691e-05,1.6074e-05,3.30688e-05
1344,1.21754e-05,-1.51296e-05,4.81347e-05,4.37242e-05,1.83097e-05,3.30699e-05
1345,1.23663e-05,-1.69734e-06,4.93314e-05,4.62539e-05,1.94266e-05,3.96886e-05
1346,7.89927e-06,7.69517e-06,5.75542e-05,5.03678e-05,2.1932e-05,4.65112e-05
1347,3.79373e-06,4.11033e-06,6.5043e-05,5.31561e-05,2.6187e-05,4.61486e-05
1348,4.30008e-06,-9.885e-06,6.72982e-05,5.0506e-05,2.81782e-05,3.7685e-05
1349,9.01275e-06,-2.45687e-05,6.26024e-05,4.32863e-05,2.76218e-05,2.86878e-05
1350,1.22858e-05,-2.20972e-05,5.67874e-05,4.21508e-05,2.53164e-05,2.97781e-05
1351,1.16763e-05,-6.18289e-06,5.62792e-05,4.82229e-05,1.98165e-05,3.64671e-05
1352,8.84037e-06,9.53831e-07,6.02336e-05,5.36398e-05,1.19159e-05,3.7698e-05
1353,6.83944e-06,-9.77921e-07,6.21899e-05,5.67349e-05,6.89771e-06,3.60448e-05
1354,8.14515e-06,-2.46206e-06,6.0263e-05,5.8948e-05,4.01101e-06,3.69808e-05
1355,1.42651e-05,-3.14007e-06,5.57371e-05,6.03548e-05,-7.72374e-07,3.91774e-05
1356,2.04066e-05,-8.12562e-06,5.25145e-05,6.04787e-05,-3.68098e-06,3.93359e-05
1357,2.01695e-05,-2.06845e-05,5.50866e-05,5.77329e-05,3.38776e-07,3.66182e-05
1358,1.67219e-05,-2.76328e-05,6.24347e-05,5.43224e-05,7.33868e-06,3.51908e-05
1359,1.77353e-05,-1.77098e-05,6.69687e-05,5.45143e-05,1.05787e-05,3.75838e-05
1360,1.97288e-05,-1.43683e-06,6.53393e-05,5.77901e-05,9.95064e-06,3.97612e-05
1361,1.85986e-05,6.54321e-06,5.87151e-05,5.97261e-05,1.11063e-05,3.89888e-05
1362,1.7002e-05,4.07979e-06,5.11771e-05,5.63079e-05,1.20471e-05,3.55638e-05
1363,1.61816e-05,-5.58846e-06,5.0198e-05,4.91973e-05,4.3697e-06,2.87581e-05
1364,1.71134e-05,-1.29673e-05,5.61168e-05,4.56859e-05,-6.94374e-06,2.25266e-05
1365,1.86201e-05,-9.4963e-06,6.26801e-05,4.92744e-05,-8.50624e-06,2.26688e-05
1366,1.83013e-05,9.52046e-07,6.42303e-05,5.46331e-05,-1.21127e-06,2.85608e-05
1367,1.71127e-05,7.98139e-06,6.1068e-05,5.55156e-05,8.64937e-06,3.47622e-05
1368,1.65836e-05,6.33555e-06,6.02323e-05,5.20549e-05,1.83097e-05,3.74642e-05
1369,1.57244e-05,-3.51603e-06,5.9659e-05,4.82575e-05,2.09002e-05,3.53864e-05
1370,1.48733e-05,-1.35464e-05,5.47049e-05,4.79594e-05,1.7651e-05,3.31614e-05
1371,1.5226e-05,-1.03944e-05,4.78428e-05,5.27506e-05,1.30081e-05,3.73268e-05
1372,1.43405e-05,3.92626e-06,4.6525e-05,5.75839e-05,9.09673e-06,4.45367e-05
1373,1.38922e-05,1.29564e-05,5.05194e-05,5.6381e-05,7.28214e-06,4.76931e-05
1374,1.46375e-05,7.84564e-06,5.51383e-05,5.18919e-05,1.032e-05,4.63834e-05
1375,1.76139e-05,-8.16055e-06,5.44255e-05,4.83386e-05,1.63431e-05,4.28284e-05
1376,2.24477e-05,-2.34825e-05,4.70658e-05,4.64713e-05,1.7402e-05,3.91621e-05
1377,2.58824e-05,-1.94324e-05,3.90598e-05,4.99094e-05,1.38839e-05,3.90816e-05
1378,2.52585e-05,-1.18716e-06,3.85816e-05,5.54636e-05,1.05769e-05,4.08344e-05
1379,2.18776e-05,7.749e-06,4.48695e-05,5.64542e-05,1.07275e-05,4.17379e-05
1380,1.8809e-05,6.42712e-06,4.94563e-05,5.57185e-05,1.35467e-05,4.30792e-05
1381,1.89209e-05,4.14123e-06,4.80312e-05,5.6082e-05,1.60447e-05,4.31307e-05
1382,2.30807e-05,2.00709e-06,4.05181e-05,5.62858e-05,1.70729e-05,4.02434e-05
1383,2.67891e-05,-2.57886e-06,3.31485e-05,5.49349e-05,1.77911e-05,3.71468e-05
1384,2.64276e-05,-1.18938e-05,3.29347e-05,5.15977e-05,1.71716e-05,3.48347e-05
1385,2.41682e-05,-1.78712e-05,3.87014e-05,4.89543e-05,1.48532e-05,3.30421e-05
1386,2.36558e-05,-1.23065e-05,4.28178e-05,4.93842e-05,1.41828e-05,3.30428e-05
1387,2.46633e-05,-1.5999e-06,4.29465e-05,5.09858e-05,1.49938e-05,3.45178e-05
1388,2.51909e-05,3.24792e-06,3.85929e-05,5.21651e-05,1.58646e-05,3.66408e-05
1389,2.23436e-05,-1.43439e-06,3.36539e-05,5.28686e-05,1.77509e-05,3.85294e-05
1390,1.78366e-05,-1.46651e-05,3.39836e-05,5.2522e-05,1.83524e-05,3.72519e-05
1391,1.50865e-05,-2.63243e-05,4.02411e-05,5.24049e-05,1.534e-05,3.32384e-05
1392,1.66295e-05,-2.43211e-05,4.71667e-05,5.55517e-05,1.14803e-05,3.13383e-05
1393,1.79996e-05,-1.26672e-05,5.15761e-05,6.01326e-05,1.0952e-05,3.36865e-05
1394,1.66146e-05,-4.7833e-06,5.04162e-05,6.16331e-05,1.34099e-05,3.82457e-05
1395,1.41614e-05,-6.08074e-06,4.84939e-05,5.90987e-05,1.64021e-05,4.07496e-05
1396,1.29089e-05,-1.44977e-05,4.86579e-05,5.34376e-05,1.55388e-05,3.84564e-05
1397,1.50014e-05,-2.24459e-05,4.62405e-05,4.85449e-05,1.16394e-05,3.60377e-05
1398,1.54837e-05,-1.93219e-05,4.33457e-05,5.08157e-05,9.81548e-06,3.84815e-05
1399,9.44339e-06,-9.09287e-06,4.72725e-05,5.88703e-05,1.00145e-05,4.19147e-05
1400,3.01069e-06,-5.4515e-06,5.5514e-05,6.36715e-05,1.20168e-05,4.25453e-05
1401,1.42602e-06,-1.10177e-05,6.01024e-05,6.22813e-05,1.15417e-05,4.14175e-05
1402,4.25421e-06,-2.23042e-05,5.79288e-05,5.68428e-05,1.00357e-05,3.77001e-05
1403,9.1027e-06,-3.21835e-05,5.18373e-05,5.21677e-05,9.87563e-06,3.31786e-05
1404,1.10201e-05,-2.58758e-05,4.71487e-05,5.51348e-05,1.02854e-05,3.38319e-05
1405,9.90735e-06,-9.73587e-06,4.68669e-05,6.20365e-05,9.61796e-06,3.80927e-05
1406,8.76553e-06,-2.45527e-06,5.05914e-05,6.3456e-05,7.79321e-06,3.98025e-05
1407,8.26423e-06,-3.7707e-07,5.45145e-05,5.99164e-05,6.9409e-06,3.98271e-05
1408,8.16731e-06,2.60432e-06,5.53968e-05,5.67777e-05,7.09472e-06,4.11872e-05
1409,9.67347e-06,5.58864e-06,5.02107e-05,5.61143e-05,7.07824e-06,4.25405e-05
1410,1.06082e-05,3.97976e-06,4.14271e-05,5.60252e-05,6.27326e-06,4.03761e-05
1411,7.20636e-06,-9.21917e-06,3.79412e-05,5.35853e-05,5.22024e-06,3.5091e-05
1412,3.15139e-06,-2.00445e-05,4.30344e-05,5.11843e-05,5.79487e-06,3.17903e-05
1413,3.80254e-06,-1.20323e-05,4.92811e-05,5.34585e-05,9.94985e-06,3.33603e-05
1414,7.51733e-06,3.8257e-06,5.26892e-05,5.8197e-05,1.43761e-05,3.73717e-05
1415,1.06669e-05,9.51319e-06,5.21459e-05,6.08085e-05,1.7121e-05,3.95723e-05
1416,1.18328e-05,3.17085e-06,4.72853e-05,5.90171e-05,1.70866e-05,3.79724e-05
1417,1.04916e-05,-8.65224e-06,4.48866e-05,5.35009e-05,1.4719e-05,3.29423e-05
1418,8.14212e-06,-1.57199e-05,5.00099e-05,4.99199e-05,1.41049e-05,2.85965e-05
1419,9.55609e-06,-1.07089e-05,5.49272e-05,5.19655e-05,1.79279e-05,2.90598e-05
1420,1.22634e-05,3.81734e-07,5.39801e-05,5.6026e-05,1.96703e-05,3.37256e-05
1421,1.04139e-05,5.79218e-06,5.12485e-05,5.75343e-05,1.93028e-05,3.79545e-05
1422,8.35769e-06,1.67404e-06,5.20129e-05,5.60599e-05,1.8021e-05,3.90265e-05
1423,9.1632e-06,-1.01988e-05,5.4198e-05,5.20391e-05,1.41469e-05,3.79508e-05
1424,8.34494e-06,-2.08816e-05,5.08164e-05,4.90092e-05,1.24175e-05,3.6683e-05
1425,5.20942e-06,-1.67241e-05,4.28614e-05,5.15153e-05,1.46915e-05,3.79856e-05
1426,1.82095e-06,-3.31951e-07,4.04315e-05,5.65562e-05,1.9648e-05,4.28053e-05
1427,1.50237e-06,1.07791e-05,4.29068e-05,5.77496e-05,2.3085e-05,4.64821e-05
1428,1.45311e-06,8.24822e-06,4.68147e-05,5.39605e-05,2.37831e-05,4.35949e-05
1429,3.04032e-06,-6.28685e-06,5.00318e-05,4.67581e-05,2.26785e-05,3.69899e-05
1430,8.12343e-06,-2.27989e-05,4.89289e-05,4.18123e-05,2.24869e-05,3.38351e-05
1431,1.09797e-05,-1.82374e-05,4.37563e-05,4.57759e-05,2.27833e-05,3.5867e-05
1432,8.56865e-06,1.17968e-06,4.15717e-05,5.32858e-05,2.23209e-05,3.7626e-05
1433,3.51488e-06,7.56887e-06,4.60955e-05,5.60147e-05,2.20345e-05,3.63724e-05
1434,-2.23952e-06,5.1873e-06,5.22309e-05,5.62378e-05,2.17854e-05,3.61359e-05
1435,-5.93231e-06,5.60408e-06,5.45749e-05,5.7236e-05,2.06091e-05,3.71449e-05
1436,-1.42101e-06,5.26778e-06,5.00612e-05,5.83967e-05,1.80594e-05,3.73588e-05
1437,7.16717e-06,-1.91115e-06,4.1774e-05,5.69069e-05,1.52848e-05,3.66853e-05
1438,9.30507e-06,-1.71107e-05,3.84146e-05,5.03875e-05,1.38288e-05,3.37821e-05
1439,5.9391e-06,-2.58515e-05,4.49657e-05,4.61569e-05,1.54325e-05,3.09662e-05
1440,6.45018e-06,-1.72283e-05,5.4007e-05,5.11049e-05,1.82583e-05,3.15709e-05
1441,1.14719e-05,-1.73722e-06,5.86439e-05,5.90182e-05,1.81471e-05,3.46906e-05
1442,1.68359e-05,5.73114e-06,5.66461e-05,6.15898e-05,1.67124e-05,3.84088e-05
1443,1.92381e-05,1.10915e-06,4.90652e-05,5.8044e-05,1.68593e-05,4.06788e-05
1444,1.69427e-05,-1.1744e-05,4.72789e-05,5.33662e-05,1.55644e-05,3.92708e-05
1445,1.00247e-05,-2.12108e-05,5.87275e-05,5.46861e-05,1.36278e-05,3.63682e-05
1446,4.58039e-06,-1.77804e-05,6.91837e-05,6.15527e-05,1.3721e-05,3.62992e-05
1447,4.36321e-06,-6.80557e-06,6.77439e-05,6.50744e-05,1.44082e-05,3.85439e-05
1448,8.2637e-06,5.37513e-08,6.32326e-05,6.10441e-05,1.72653e-05,3.90457e-05
1449,1.15057e-05,-1.63982e-06,6.46716e-05,5.41271e-05,2.21062e-05,3.61399e-05
1450,1.3666e-05,-1.12886e-05,6.60902e-05,4.73117e-05,2.40662e-05,3.22459e-05
1451,1.69763e-05,-2.17873e-05,6.0455e-05,4.25176e-05,2.23302e-05,3.07053e-05
1452,1.7785e-05,-2.15437e-05,5.30971e-05,4.43071e-05,1.98138e-05,3.31425e-05
1453,1.39922e-05,-1.17183e-05,5.37725e-05,5.11593e-05,2.01227e-05,3.77781e-05
1454,9.66005e-06,-3.78797e-06,5.76056e-05,5.6276e-05,2.06864e-05,3.96589e-05
1455,9.16837e-06,-4.15166e-06,6.08634e-05,5.60219e-05,2.03663e-05,3.66767e-05
1456,1.13154e-05,-1.46333e-05,6.32402e-05,4.94112e-05,1.91888e-05,3.21589e-05
1457,1.53605e-05,-2.86604e-05,6.21724e-05,4.1029e-05,1.68088e-05,3.08284e-05
1458,1.9184e-05,-2.8023e-05,5.91352e-05,4.21745e-05,1.39732e-05,3.45649e-05
1459,1.95411e-05,-1.43809e-05,6.02168e-05,5.09026e-05,1.21023e-05,3.85539e-05
1460,1.78981e-05,-7.47451e-06,6.53038e-05,5.41656e-05,1.12109e-05,4.02082e-05
1461,1.6688e-05,-7.95174e-06,6.93555e-05,5.30435e-05,1.03147e-05,4.3716e-05
1462,1.6525e-05,-7.8686e-06,6.84465e-05,5.56329e-05,9.69543e-06,4.87769e-05
1463,1.84777e-05,-5.83763e-06,6.17159e-05,6.09134e-05,8.47485e-06,5.07919e-05
1464,2.23412e-05,-4.68775e-06,5.52681e-05,6.25058e-05,5.50902e-06,4.70559e-05
1465,2.12811e-05,-1.11512e-05,5.51181e-05,5.89504e-05,6.12898e-07,3.9484e-05
1466,1.37693e-05,-1.63924e-05,6.02596e-05,5.6143e-05,-9.9205e-07,3.52706e-05
1467,1.0168e-05,-6.57404e-06,6.35524e-05,5.77284e-05,4.37714e-06,3.69986e-05
1468,1.38057e-05,9.26624e-06,6.42041e-05,5.93191e-05,1.052e-05,3.89186e-05
1469,1.94665e-05,1.48919e-05,6.08485e-05,5.62191e-05,1.06072e-05,3.81203e-05
1470,2.34858e-05,7.56427e-06,5.37983e-05,5.0499e-05,8.49854e-06,3.7109e-05
1471,2.44941e-05,-6.84828e-06,5.08013e-05,4.42485e-05,6.50934e-06,3.74364e-05
1472,2.27895e-05,-1.57905e-05,5.44295e-05,4.14338e-05,5.05793e-06,3.88829e-05
1473,2.03222e-05,-1.02086e-05,5.75699e-05,4.61308e-05,9.3468e-06,3.94918e-05
1474,1.65633e-05,3.34884e-06,5.68097e-05,5.46874e-05,1.58518e-05,3.76531e-05
1475,1.12918e-05,1.28492e-05,5.38598e-05,6.02808e-05,1.77591e-05,3.54213e-05
1476,7.21241e-06,1.36946e-05,5.47328e-05,6.05245e-05,1.83847e-05,3.60568e-05
1477,6.52391e-06,5.61703e-06,5.63023e-05,5.60804e-05,1.91757e-05,3.81465e-05
1478,1.05141e-05,-4.67891e-06,5.30302e-05,5.08211e-05,2.07372e-05,3.94767e-05
1479,1.64294e-05,-3.7883e-06,4.91002e-05,5.18866e-05,1.91619e-05,4.05751e-05
1480,1.7643e-05,7.94258e-06,5.23408e-05,5.88398e-05,1.35936e-05,4.09973e-05
1481,1.58e-05,1.54626e-05,5.81721e-05,6.49429e-05,7.67677e-06,4.09935e-05
1482,1.4911e-05,1.1043e-05,5.92087e-05,6.55695e-05,3.22134e-06,4.13236e-05
1483,1.49158e-05,-2.69612e-06,5.56411e-05,5.87938e-05,-8.03216e-08,3.92288e-05
1484,1.74353e-05,-1.65914e-05,4.92265e-05,4.94283e-05,-1.69075e-06,3.43847e-05
1485,2.19181e-05,-1.41752e-05,4.39346e-05,4.8315e-05,-1.13626e-06,3.53513e-05
1486,2.20557e-05,-5.45632e-07,4.42104e-05,5.45545e-05,-8.11381e-07,4.4248e-05
1487,1.74386e-05,5.4212e-06,4.93916e-05,5.67287e-05,4.56087e-07,5.04652e-05
1488,1.31712e-05,7.93448e-06,5.37262e-05,5.56636e-05,5.21105e-06,5.04156e-05
1489,1.26819e-05,1.24117e-05,5.36148e-05,5.7197e-05,1.45807e-05,4.90525e-05
1490,1.59947e-05,1.26875e-05,4.9151e-05,6.06134e-05,2.37225e-05,4.93144e-05
1491,1.84506e-05,4.18597e-06,4.45415e-05,6.20374e-05,2.66689e-05,4.88739e-05
1492,1.54251e-05,-1.18907e-05,4.5788e-05,5.63201e-05,2.21827e-05,4.45556e-05
1493,1.06221e-05,-2.24378e-05,5.24619e-05,4.83866e-05,1.97641e-05,4.06686e-05
1494,9.21418e-06,-1.6934e-05,5.68612e-05,4.72498e-05,2.43235e-05,4.10763e-05
1495,1.05263e-05,-4.66836e-06,5.64132e-05,5.21637e-05,2.98869e-05,4.25035e-05
1496,1.46901e-05,-6.86089e-08,5.16636e-05,5.46858e-05,3.00484e-05,4.06603e-05
1497,2.02725e-05,-5.90594e-06,4.72122e-05,5.06433e-05,2.507e-05,3.43421e-05
1498,1.95506e-05,-1.8505e-05,4.8869e-05,4.42833e-05,1.98869e-05,2.55337e-05
1499,1.0281e-05,-2.59888e-05,5.67121e-05,4.2835e-05,1.85713e-05,2.07771e-05
1500,3.63267e-06,-1.87905e-05,6.08077e-05,4.85827e-05,2.22518e-05,2.48535e-05
1501,6.16835e-06,-3.75469e-06,5.56213e-05,5.51744e-05,2.06253e-05,3.41539e-05
1502,9.52075e-06,5.19495e-06,4.99536e-05,5.48919e-05,1.08394e-05,4.21952e-05
1503,5.92667e-06,2.28439e-06,5.08241e-05,4.75483e-05,2.98597e-06,4.60054e-05
1504,3.58224e-06,-1.04571e-05,5.42861e-05,3.93825e-05,2.67457e-06,4.3093e-05
1505,9.41768e-06,-2.24213e-05,5.45504e-05,3.80629e-05,8.98958e-06,3.60371e-05
1506,1.75038e-05,-1.88996e-05,4.98838e-05,4.65388e-05,1.31325e-05,3.38465e-05
1507,1.6592e-05,-3.1816e-06,4.64863e-05,5.64926e-05,1.8084e-05,3.88163e-05
1508,1.00204e-05,8.09455e-06,4.79573e-05,5.94006e-05,2.9995e-05,4.43977e-05
1509,6.86929e-06,8.15497e-06,5.19649e-05,5.64774e-05,4.19391e-05,4.53142e-05
1510,9.32567e-06,-3.52655e-06,5.35291e-05,4.98223e-05,4.41984e-05,4.03434e-05
1511,1.47576e-05,-2.13592e-05,4.83706e-05,4.19025e-05,3.62228e-05,3.31365e-05
1512,1.7685e-05,-2.53523e-05,4.1766e-05,4.34652e-05,2.56874e-05,3.22934e-05
1513,1.50819e-05,-1.32425e-05,4.33146e-05,5.39068e-05,1.5095e-05,3.56521e-05
1514,1.11475e-05,-4.03857e-06,5.19009e-05,5.83604e-05,5.84436e-06,3.6305e-05
1515,1.02362e-05,-9.84041e-07,5.80071e-05,5.60023e-05,3.56839e-06,3.81175e-05
1516,1.03273e-05,2.63401e-07,5.67867e-05,5.42901e-05,1.17354e-05,4.00148e-05
1517,1.159e-05,-8.68977e-07,5.0392e-05,5.40102e-05,2.44742e-05,3.85741e-05
1518,1.44723e-05,-5.41523e-06,4.45496e-05,5.24414e-05,3.41641e-05,3.55473e-05
1519,1.55786e-05,-1.67211e-05,4.51362e-05,4.86052e-05,3.96078e-05,3.16778e-05
1520,1.25109e-05,-2.46547e-05,5.11065e-05,4.75899e-05,4.22227e-05,3.07543e-05
1521,7.96476e-06,-1.63053e-05,5.51069e-05,5.08926e-05,4.1674e-05,3.27387e-05
1522,4.95699e-06,-7.08485e-07,5.5163e-05,5.40189e-05,3.64708e-05,3.27805e-05
1523,4.63309e-06,6.85647e-06,5.21733e-05,5.35229e-05,2.66319e-05,3.00671e-05
1524,2.77547e-06,3.1185e-06,4.86655e-05,5.08281e-05,1.68577e-05,2.76124e-05
1525,-8.94612e-07,-8.2041e-06,4.94638e-05,4.94039e-05,1.02877e-05,2.50327e-05
1526,-2.82627e-06,-1.63723e-05,5.53572e-05,5.06434e-05,1.17459e-05,2.41691e-05
1527,1.27335e-07,-1.2647e-05,5.8931e-05,5.42817e-05,2.1123e-05,2.94423e-05
1528,5.99134e-06,-2.00206e-06,5.53194e-05,5.84376e-05,2.61549e-05,3.64075e-05
1529,9.98938e-06,5.5973e-06,5.07241e-05,6.05419e-05,2.19964e-05,3.6733e-05
1530,9.08065e-06,5.3359e-06,4.98452e-05,5.83546e-05,1.44727e-05,3.23005e-05
1531,6.31219e-06,-4.61398e-06,4.77199e-05,5.08718e-05,9.41323e-06,3.08827e-05
1532,7.8702e-06,-1.63884e-05,4.29412e-05,4.23365e-05,9.48776e-06,3.47533e-05
1533,1.13577e-05,-1.38472e-05,4.14858e-05,4.1771e-05,1.03438e-05,4.0274e-05
1534,1.25773e-05,2.18256e-06,4.84313e-05,4.84926e-05,9.69964e-06,4.24411e-05
1535,1.08783e-05,1.33691e-05,5.63752e-05,5.42902e-05,9.79179e-06,4.11577e-05
1536,8.83661e-06,1.02388e-05,5.90375e-05,5.86584e-05,1.09068e-05,4.06515e-05
1537,9.56478e-06,-4.58896e-06,5.66287e-05,6.09684e-05,1.19246e-05,4.12467e-05
1538,1.2287e-05,-2.12888e-05,5.12093e-05,5.91753e-05,1.19509e-05,4.17647e-05
1539,1.26302e-05,-2.20914e-05,4.71645e-05,5.99979e-05,1.07899e-05,4.4195e-05
1540,8.5784e-06,-1.08131e-05,4.81124e-05,6.35744e-05,9.50998e-06,4.34964e-05
1541,4.15089e-06,-4.87753e-06,5.37242e-05,6.2234e-05,9.76318e-06,3.86166e-05
1542,4.39955e-06,-2.31516e-06,5.89043e-05,5.84383e-05,1.13575e-05,3.90002e-05
1543,8.87822e-06,9.96388e-07,5.92279e-05,5.9121e-05,1.28895e-05,4.32083e-05
1544,1.20658e-05,3.00038e-06,5.34878e-05,6.25771e-05,1.41009e-05,4.39251e-05
1545,1.06815e-05,-8.14198e-07,4.67181e-05,6.2068e-05,1.50723e-05,4.13668e-05
1546,6.00235e-06,-1.27182e-05,4.7415e-05,5.62727e-05,1.15278e-05,3.70233e-05
1547,2.44011e-06,-1.96196e-05,5.30913e-05,5.13038e-05,4.23412e-06,3.51433e-05
1548,4.12575e-06,-1.10779e-05,5.48705e-05,5.19766e-05,1.91282e-06,3.79487e-05
1549,9.04098e-06,2.9098e-06,5.34916e-05,5.57041e-05,6.67641e-06,3.9906e-05
1550,1.38387e-05,7.64031e-06,5.04909e-05,5.92383e-05,1.15879e-05,3.68051e-05
1551,1.68841e-05,1.14203e-06,4.79356e-05,6.10749e-05,1.25496e-05,3.22783e-05
1552,1.5999e-05,-1.15214e-05,5.07775e-05,5.91993e-05,9.95203e-06,3.08068e-05
1553,1.27409e-05,-1.98394e-05,5.83969e-05,5.46097e-05,6.84372e-06,3.27083e-05
1554,1.25688e-05,-1.59533e-05,6.05008e-05,5.21442e-05,6.66019e-06,3.77954e-05
1555,1.72829e-05,-5.10556e-06,5.51978e-05,5.37399e-05,9.28408e-06,4.41265e-05
1556,1.9653e-05,2.68878e-06,5.3763e-05,5.5835e-05,1.33498e-05,4.73322e-05
1557,1.78869e-05,2.17167e-06,5.93139e-05,5.637e-05,1.98916e-05,4.53884e-05
1558,1.72506e-05,-8.22293e-06,6.38692e-05,5.46926e-05,2.60013e-05,4.01574e-05
1559,1.88789e-05,-1.99586e-05,5.99628e-05,5.18984e-05,2.38505e-05,3.61082e-05
1560,2.01233e-05,-1.77761e-05,5.22177e-05,5.27055e-05,1.26524e-05,3.70601e-05
1561,1.7076e-05,-4.27272e-06,5.16418e-05,5.69527e-05,1.1081e-06,4.12412e-05
1562,1.39987e-05,3.2759e-06,5.55995e-05,5.88652e-05,-3.90758e-06,4.43424e-05
1563,1.39195e-05,-1.3443e-06,5.78045e-05,5.65302e-05,-2.7289e-06,4.35285e-05
1564,1.50699e-05,-1.28139e-05,5.5784e-05,5.04911e-05,1.55844e-06,3.71325e-05
1565,1.55251e-05,-2.2697e-05,5.00925e-05,4.41836e-05,7.40922e-06,2.98292e-05
1566,1.45165e-05,-1.96932e-05,4.34859e-05,4.52671e-05,1.38645e-05,3.0349e-05
1567,1.15564e-05,-9.45936e-06,4.31887e-05,5.13016e-05,1.95648e-05,3.6705e-05
1568,9.73906e-06,-5.27641e-06,4.94054e-05,5.46549e-05,2.3566e-05,3.97724e-05
1569,1.1348e-05,-3.67516e-06,5.45876e-05,5.65539e-05,2.48858e-05,3.91515e-05
1570,1.39606e-05,6.59516e-08,5.46264e-05,5.87841e-05,2.49005e-05,4.00105e-05
