Time_Index,DELTOID_Affected,DELTOID_NonAffected,BICEPS_Affected,BICEPS_NonAffected,FOREARM_Affected,FOREARM_NonAffected
1,-4.57036e-05,2.40301e-06,-6.3809e-06,8.70963e-05,-2.2751e-05,0.000123782
2,-2.0682e-05,2.56652e-07,-3.42991e-06,6.84737e-05,-1.86416e-05,7.32666e-05
3,6.80283e-07,8.2967e-07,5.48609e-07,5.25138e-05,-1.59327e-05,1.06797e-05
4,7.97618e-06,5.2353e-06,6.48492e-06,4.35413e-05,-1.48725e-05,-5.85269e-05
5,1.4373e-06,1.17639e-05,1.02276e-05,3.86407e-05,-1.37271e-05,-0.000113781
6,-1.23904e-05,1.47609e-05,9.80838e-06,3.29676e-05,-9.63154e-06,-0.000131713
7,-5.49284e-06,1.29516e-05,8.99713e-06,2.56256e-05,-3.51085e-06,-0.000108334
8,1.96018e-05,1.30865e-05,1.22145e-05,1.65093e-05,-1.50724e-06,-6.73862e-05
9,3.11928e-05,1.6646e-05,1.8987e-05,7.47426e-06,-4.67532e-06,-3.90549e-05
10,3.2837e-05,1.94652e-05,2.88366e-05,2.64344e-06,-6.85613e-06,-2.46174e-05
11,3.3203e-05,2.03337e-05,3.94191e-05,-1.40696e-06,-6.02347e-06,-8.60359e-06
12,3.14922e-05,2.19384e-05,4.34662e-05,-6.42382e-06,-5.24436e-06,1.10966e-05
13,2.96528e-05,2.70653e-05,4.04984e-05,-8.77926e-06,-1.87535e-06,2.17235e-05
14,1.99902e-05,2.98929e-05,3.88471e-05,-3.5205e-06,7.17022e-06,1.89613e-05
15,1.01208e-05,2.58235e-05,3.94296e-05,9.96646e-06,1.35471e-05,1.25206e-05
16,1.67044e-05,1.81315e-05,3.76527e-05,2.31917e-05,1.26444e-05,7.76464e-06
17,3.54399e-05,1.2378e-05,3.28318e-05,2.82172e-05,1.08446e-05,4.53166e-06
18,4.83004e-05,1.05016e-05,2.91568e-05,2.6599e-05,1.66123e-05,-2.4069e-06
19,4.49416e-05,1.03282e-05,2.89686e-05,2.45744e-05,2.71774e-05,-1.13021e-05
20,2.44925e-05,9.5203e-06,3.01594e-05,2.48612e-05,3.3998e-05,-1.35336e-05
21,6.77187e-06,7.82424e-06,2.906e-05,2.69362e-05,3.4977e-05,-6.19095e-06
22,1.2355e-05,8.75814e-06,2.46451e-05,2.83438e-05,3.22839e-05,2.90539e-06
23,3.17172e-05,1.25669e-05,2.02202e-05,2.85168e-05,2.71806e-05,7.65501e-06
24,4.01455e-05,1.68022e-05,1.54909e-05,2.91464e-05,1.80308e-05,1.06711e-05
25,3.06643e-05,1.87721e-05,6.75982e-06,3.07274e-05,5.93366e-06,1.09917e-05
26,1.04692e-05,1.58774e-05,-1.46289e-06,3.25421e-05,-7.65651e-06,9.2821e-07
27,-8.51984e-06,9.1665e-06,6.30622e-07,3.38605e-05,-2.23546e-05,-1.70324e-05
28,-1.02503e-05,5.08441e-06,1.059e-05,3.6154e-05,-3.2494e-05,-2.26915e-05
29,2.47076e-06,6.69367e-06,1.87527e-05,4.40588e-05,-3.1759e-05,4.8958e-06
30,1.07058e-05,1.06186e-05,2.55005e-05,5.55015e-05,-2.52207e-05,7.20563e-05
31,7.02008e-06,1.24687e-05,3.25243e-05,6.25793e-05,-1.68386e-05,0.000159227
32,-9.11976e-06,9.99502e-06,3.39797e-05,6.57853e-05,-5.9492e-06,0.000221552
33,-3.03334e-05,6.91323e-06,3.15126e-05,7.06438e-05,4.17748e-06,0.000222746
34,-2.7019e-05,1.05997e-05,3.11398e-05,7.5644e-05,1.22293e-05,0.000166191
35,-2.65998e-06,2.07795e-05,3.42795e-05,7.37764e-05,1.69038e-05,8.08644e-05
36,5.3824e-06,2.80488e-05,3.98574e-05,6.2624e-05,1.35648e-05,3.12145e-06
37,-4.70345e-06,3.10691e-05,4.42142e-05,4.80445e-05,2.20859e-06,-5.43028e-05
38,-1.51703e-05,3.38301e-05,4.64807e-05,3.78995e-05,-9.53974e-06,-0.000100077
39,-2.29674e-05,3.56556e-05,5.11804e-05,3.39387e-05,-1.46829e-05,-0.000144514
40,-3.26514e-05,3.30367e-05,5.67925e-05,3.39311e-05,-1.05928e-05,-0.000180025
41,-5.3691e-05,2.5296e-05,5.91683e-05,3.77797e-05,-1.63664e-09,-0.000175397
42,-7.05187e-05,1.37909e-05,5.99665e-05,4.31839e-05,4.26674e-06,-0.000127313
43,-6.00163e-05,-2.51914e-07,6.14055e-05,4.64083e-05,-1.78234e-06,-7.08315e-05
44,-3.44972e-05,-1.217e-05,6.22954e-05,4.8017e-05,-5.40813e-06,-3.51472e-05
45,-2.02334e-05,-1.62715e-05,5.77432e-05,5.156e-05,2.62369e-06,-1.03541e-05
46,-2.5394e-05,-1.26116e-05,4.64464e-05,5.7396e-05,2.02921e-05,3.55029e-05
47,-4.42711e-05,-6.95661e-06,3.28776e-05,6.27056e-05,4.10227e-05,0.000104686
48,-5.69673e-05,-3.22962e-06,2.00825e-05,6.53784e-05,5.81542e-05,0.000156729
49,-4.41822e-05,-2.00235e-06,7.39112e-06,6.52414e-05,6.19706e-05,0.000164063
50,-1.44519e-05,-1.31578e-06,-5.50927e-06,6.4682e-05,4.81518e-05,0.000143405
51,6.6611e-06,2.40304e-06,-1.66916e-05,6.77638e-05,2.48813e-05,0.000123311
52,7.36022e-06,9.54961e-06,-2.59723e-05,7.52547e-05,5.39585e-06,0.00010883
53,-8.7327e-06,1.51113e-05,-3.33612e-05,8.13823e-05,-3.85792e-06,8.8422e-05
54,-2.73268e-05,1.26782e-05,-3.62491e-05,7.96954e-05,-5.37288e-06,5.16337e-05
55,-2.78282e-05,4.17125e-06,-3.48403e-05,7.1258e-05,-2.36106e-06,-3.90783e-06
56,-1.35449e-05,-2.47487e-06,-3.12355e-05,6.338e-05,3.51085e-06,-6.2989e-05
57,-1.29495e-05,-2.98302e-06,-2.33998e-05,6.05979e-05,6.33514e-06,-0.000105217
58,-3.78266e-05,1.68074e-06,-1.20001e-05,6.09652e-05,-3.86392e-06,-0.000124654
59,-7.27119e-05,5.64057e-06,-3.6598e-06,6.07277e-05,-3.06945e-05,-0.000126829
60,-9.66126e-05,3.56842e-06,9.24707e-07,5.89986e-05,-5.79741e-05,-0.000121852
61,-8.33072e-05,-5.11841e-07,7.24242e-06,5.78491e-05,-6.47048e-05,-0.000118569
62,-4.19084e-05,7.85289e-07,1.71158e-05,5.86542e-05,-4.84687e-05,-0.000111961
63,-1.50136e-05,5.67236e-06,3.22463e-05,5.84445e-05,-2.34067e-05,-9.19538e-05
64,-6.26703e-06,9.57875e-06,4.90887e-05,5.75568e-05,-4.79427e-06,-5.6216e-05
65,-2.49661e-06,1.23987e-05,5.77354e-05,5.86802e-05,-5.21797e-07,-1.27354e-05
66,-1.15698e-06,1.51536e-05,6.14108e-05,6.15771e-05,-8.28889e-06,2.59758e-05
67,4.7648e-07,1.82164e-05,6.49721e-05,6.36096e-05,-1.66738e-05,5.94189e-05
68,-7.12554e-06,1.84441e-05,6.76226e-05,6.3097e-05,-1.75157e-05,9.21764e-05
69,-1.52668e-05,1.37966e-05,7.05678e-05,6.17214e-05,-9.20915e-06,0.000109629
70,-2.6774e-06,8.1123e-06,7.19106e-05,6.11622e-05,8.23053e-07,0.000102281
71,2.39583e-05,3.462e-06,6.94142e-05,6.30059e-05,2.8059e-06,9.19296e-05
72,4.27791e-05,4.74906e-07,6.59881e-05,6.79406e-05,-3.04838e-06,9.53519e-05
73,4.56189e-05,8.98816e-07,6.48644e-05,7.36775e-05,-7.63491e-06,9.61884e-05
74,3.42135e-05,3.18803e-06,6.13892e-05,7.60015e-05,-7.78302e-06,7.5355e-05
75,2.25809e-05,4.57094e-06,5.07712e-05,7.32376e-05,-1.07282e-05,4.39307e-05
76,2.44271e-05,4.62313e-06,3.72653e-05,6.66009e-05,-2.02828e-05,2.20937e-05
77,3.27206e-05,5.24906e-06,2.86036e-05,6.02239e-05,-3.09797e-05,6.49663e-06
78,3.35589e-05,9.49169e-06,2.70807e-05,5.68658e-05,-3.58258e-05,-1.61376e-05
79,2.54836e-05,1.6923e-05,2.77189e-05,5.45681e-05,-3.34269e-05,-4.07981e-05
80,9.42525e-06,2.19561e-05,2.53275e-05,5.0724e-05,-2.75348e-05,-4.88346e-05
81,-8.28601e-06,2.07109e-05,1.86304e-05,4.56801e-05,-2.36291e-05,-3.86278e-05
82,-8.87975e-06,1.67623e-05,8.4055e-06,4.24346e-05,-2.52505e-05,-3.35037e-05
83,6.54813e-06,1.67066e-05,-2.17752e-06,4.19872e-05,-2.98075e-05,-4.70762e-05
84,1.49893e-05,2.20349e-05,-7.4547e-06,4.05395e-05,-2.90846e-05,-6.17156e-05
85,3.09601e-06,2.84564e-05,-7.45416e-06,3.50233e-05,-2.14599e-05,-5.90009e-05
86,-2.81766e-05,3.10373e-05,-6.75777e-06,2.80761e-05,-1.44446e-05,-3.73415e-05
87,-6.18112e-05,2.94041e-05,-5.80673e-06,2.31803e-05,-1.3531e-05,-2.69895e-06
88,-6.239e-05,2.89886e-05,-3.20054e-06,1.97117e-05,-1.60916e-05,2.68202e-05
89,-3.02592e-05,3.17776e-05,7.29216e-07,2.07469e-05,-2.32098e-05,3.65772e-05
90,-5.06639e-06,3.36064e-05,3.33263e-06,2.907e-05,-4.15613e-05,3.04972e-05
91,1.81988e-06,3.17709e-05,6.23037e-06,3.65759e-05,-6.75452e-05,1.81408e-05
92,5.9103e-07,2.82419e-05,9.71423e-06,4.24396e-05,-9.10303e-05,9.79232e-06
93,-4.55155e-06,2.51775e-05,1.13926e-05,5.14415e-05,-0.000101941,1.00668e-05
94,-1.57866e-05,2.22183e-05,1.11915e-05,5.9296e-05,-9.28962e-05,9.61893e-06
95,-3.8898e-05,1.86516e-05,1.28673e-05,6.19525e-05,-7.05949e-05,7.63192e-07
96,-5.54332e-05,1.75157e-05,1.71682e-05,6.13808e-05,-5.00947e-05,-9.17407e-06
97,-4.47874e-05,2.02811e-05,1.57129e-05,6.06793e-05,-3.57098e-05,-2.12304e-07
98,-2.06989e-05,2.20977e-05,5.83884e-06,6.00225e-05,-1.85167e-05,2.85623e-05
99,-8.0898e-06,2.26721e-05,-6.50023e-06,5.92355e-05,2.84851e-06,4.83894e-05
100,-1.00474e-05,2.38964e-05,-1.43842e-05,5.81829e-05,1.54561e-05,4.45603e-05
101,-2.16648e-05,2.46878e-05,-1.74209e-05,5.40112e-05,1.47286e-05,3.58338e-05
102,-2.87264e-05,2.3557e-05,-1.83935e-05,4.76701e-05,1.74919e-05,4.37298e-05
103,-1.79454e-05,2.11267e-05,-2.00607e-05,4.42587e-05,3.44721e-05,6.81652e-05
104,1.22722e-06,1.97665e-05,-2.16662e-05,4.33269e-05,5.19311e-05,9.33694e-05
105,9.27751e-06,2.08386e-05,-2.13172e-05,4.10502e-05,5.19252e-05,0.000103157
106,2.5895e-06,2.18619e-05,-1.98307e-05,3.92714e-05,2.9377e-05,9.37691e-05
107,-1.27482e-05,1.84338e-05,-1.64245e-05,4.23642e-05,-6.96269e-06,7.09335e-05
108,-2.57399e-05,1.14661e-05,-8.1838e-06,4.89783e-05,-3.84028e-05,4.0341e-05
109,-1.82405e-05,6.93898e-06,1.52389e-06,5.31951e-05,-5.11931e-05,1.37012e-05
110,4.4912e-06,6.05485e-06,7.95303e-06,5.01565e-05,-4.92366e-05,4.44738e-06
111,1.72106e-05,5.84149e-06,1.58529e-05,4.12468e-05,-4.28885e-05,6.8334e-06
112,9.46663e-06,5.36814e-06,2.75555e-05,3.27338e-05,-3.86179e-05,2.02697e-06
113,-1.14715e-05,3.89382e-06,3.81159e-05,3.03094e-05,-3.60394e-05,-1.6823e-05
114,-3.0588e-05,2.25469e-06,4.63042e-05,3.32184e-05,-2.78593e-05,-3.5922e-05
115,-2.33688e-05,3.46875e-06,5.58266e-05,3.58385e-05,-1.5327e-05,-3.56732e-05
116,2.43078e-06,6.08218e-06,6.3174e-05,3.50958e-05,-1.47529e-05,-1.1262e-05
117,1.46676e-05,5.07861e-06,6.36628e-05,3.1629e-05,-2.95716e-05,1.96024e-05
118,1.5226e-05,3.45397e-06,5.88084e-05,2.84643e-05,-4.30915e-05,4.07407e-05
119,1.54358e-05,5.39248e-06,5.52836e-05,3.02666e-05,-4.54384e-05,4.94002e-05
120,1.33677e-05,1.11307e-05,5.37139e-05,3.72404e-05,-3.81842e-05,5.10776e-05
121,5.21848e-06,1.76086e-05,4.93666e-05,4.5252e-05,-1.75332e-05,6.88027e-05
122,-1.35877e-05,1.83649e-05,4.43522e-05,5.23365e-05,1.80857e-05,0.000112417
123,-2.66952e-05,1.27384e-05,4.1923e-05,5.85014e-05,5.34135e-05,0.000150015
124,-1.54074e-05,7.2549e-06,3.89156e-05,6.33255e-05,7.23673e-05,0.000148816
125,9.38887e-06,6.0787e-06,3.38088e-05,6.56794e-05,7.68927e-05,0.000113651
126,2.23195e-05,8.74792e-06,3.15042e-05,6.69915e-05,7.66071e-05,6.87896e-05
127,1.68307e-05,1.18864e-05,3.23914e-05,6.98646e-05,7.48539e-05,2.74555e-05
128,-2.49161e-06,1.12169e-05,3.49788e-05,7.46144e-05,6.99983e-05,-1.03589e-05
129,-1.85139e-05,8.27253e-06,3.74647e-05,7.76113e-05,5.84114e-05,-4.79959e-05
130,-1.44877e-05,7.20803e-06,3.72496e-05,7.44778e-05,4.10538e-05,-8.73816e-05
131,2.14431e-06,7.12523e-06,3.48904e-05,6.41124e-05,2.4471e-05,-0.000116967
132,1.16854e-05,4.78717e-06,3.23173e-05,5.05513e-05,1.09162e-05,-0.000114387
133,7.26342e-06,1.89113e-06,3.09196e-05,3.94586e-05,-5.20139e-06,-7.40517e-05
134,-6.91633e-06,1.46551e-06,3.22366e-05,3.19159e-05,-2.59091e-05,-1.66035e-05
135,-1.90741e-05,3.14038e-06,3.701e-05,2.61259e-05,-4.00886e-05,3.47171e-05
136,-1.12907e-05,4.5334e-06,4.13479e-05,2.25173e-05,-3.83286e-05,6.67241e-05
137,1.07155e-05,4.92934e-06,4.38598e-05,2.30991e-05,-2.74163e-05,7.26845e-05
138,2.24399e-05,6.71152e-06,4.64175e-05,2.70593e-05,-1.88847e-05,6.01157e-05
139,1.4643e-05,1.01252e-05,4.74687e-05,3.15905e-05,-1.67344e-05,4.25105e-05
140,-7.19762e-06,1.19635e-05,4.45846e-05,3.5711e-05,-2.01706e-05,2.54909e-05
141,-3.18738e-05,9.81594e-06,4.13474e-05,4.02807e-05,-2.65747e-05,1.39558e-05
142,-3.09609e-05,4.76598e-06,4.34062e-05,4.45528e-05,-3.27376e-05,6.94419e-06
143,-7.27965e-06,2.72119e-06,5.02328e-05,4.66378e-05,-3.79405e-05,-5.06933e-06
144,6.26575e-06,7.04443e-06,5.50644e-05,4.5159e-05,-3.91986e-05,-2.00711e-05
145,1.02192e-05,1.14856e-05,5.31993e-05,4.2045e-05,-3.50653e-05,-2.92513e-05
146,1.30587e-05,1.1626e-05,4.94943e-05,3.94891e-05,-2.89144e-05,-3.17147e-05
147,9.13749e-06,1.09738e-05,4.97311e-05,3.95511e-05,-2.3613e-05,-2.90124e-05
148,-4.1936e-07,1.16507e-05,5.37342e-05,4.42125e-05,-1.99855e-05,-2.2867e-05
149,-1.88364e-05,1.1892e-05,5.33575e-05,4.81733e-05,-1.78107e-05,-1.24317e-05
150,-3.27925e-05,1.12448e-05,4.3062e-05,4.67478e-05,-2.29234e-05,2.82981e-06
151,-2.17008e-05,1.23392e-05,2.83201e-05,4.53893e-05,-3.64088e-05,1.78794e-05
152,4.03174e-06,1.33646e-05,1.99272e-05,4.89867e-05,-5.02113e-05,2.77557e-05
153,2.12866e-05,1.20171e-05,2.00498e-05,5.5921e-05,-5.92868e-05,2.84323e-05
154,2.31385e-05,1.03099e-05,2.05039e-05,6.40006e-05,-6.28304e-05,2.06443e-05
155,1.22396e-05,9.39606e-06,1.88091e-05,6.91571e-05,-5.98925e-05,1.10369e-05
156,2.23624e-06,9.46741e-06,1.76255e-05,6.70007e-05,-4.92942e-05,5.81751e-06
157,8.75709e-06,1.03478e-05,1.71901e-05,6.02816e-05,-3.63452e-05,8.5368e-06
158,2.53981e-05,9.64462e-06,1.70212e-05,5.7592e-05,-2.82902e-05,2.13208e-05
159,3.33082e-05,6.40977e-06,1.84474e-05,6.25489e-05,-2.36096e-05,3.85825e-05
160,2.52247e-05,2.60966e-06,2.17971e-05,6.937e-05,-1.5069e-05,4.58854e-05
161,5.1476e-06,-1.60548e-06,2.66476e-05,7.17724e-05,-5.43084e-06,3.63544e-05
162,-1.22674e-05,-4.76124e-06,3.05079e-05,7.01795e-05,-8.39004e-07,2.00373e-05
163,-6.75849e-06,-3.73915e-06,3.18394e-05,6.86579e-05,1.43649e-06,7.78709e-06
164,1.49054e-05,6.00942e-07,3.18627e-05,6.64739e-05,3.96664e-06,4.81796e-06
165,2.59653e-05,6.61562e-06,3.21803e-05,6.33352e-05,6.75641e-06,2.09665e-05
166,1.83403e-05,1.40642e-05,3.25187e-05,6.2285e-05,2.35475e-05,6.33794e-05
167,-7.07998e-07,1.6764e-05,3.16393e-05,6.27624e-05,7.17846e-05,0.000118306
168,-1.98188e-05,1.22225e-05,3.13594e-05,6.28297e-05,0.000132517,0.000160133
169,-1.2432e-05,6.81971e-06,3.19178e-05,6.11341e-05,0.000159924,0.000176365
170,1.51718e-05,4.61335e-06,3.4465e-05,5.84615e-05,0.000138664,0.000164708
171,2.7065e-05,5.32575e-06,3.75384e-05,5.50282e-05,9.32312e-05,0.000126543
172,2.44655e-05,5.94512e-06,3.69351e-05,5.10989e-05,5.03246e-05,6.40952e-05
173,1.9493e-05,5.45373e-06,3.59656e-05,4.85884e-05,1.76568e-05,-1.7106e-05
174,1.16053e-05,5.27147e-06,3.6299e-05,4.86785e-05,-1.06812e-05,-9.39581e-05
175,-2.10612e-07,1.89744e-06,3.47552e-05,5.09137e-05,-3.29867e-05,-0.000132018
176,-1.94128e-05,-5.77518e-06,3.11734e-05,5.32087e-05,-3.74706e-05,-0.000117775
177,-3.0365e-05,-1.2674e-05,2.97141e-05,5.51787e-05,-2.21163e-05,-7.42561e-05
178,-1.74429e-05,-1.66968e-05,3.33088e-05,5.87934e-05,-9.25177e-06,-3.36839e-05
179,4.14627e-06,-1.70596e-05,4.36652e-05,6.4212e-05,-2.12046e-05,-7.9529e-06
180,1.18902e-05,-1.0218e-05,5.80961e-05,6.74137e-05,-5.19712e-05,5.11268e-06
181,2.18498e-06,3.03333e-06,6.50552e-05,6.60357e-05,-7.92435e-05,2.45656e-06
182,-2.02056e-05,1.49146e-05,5.92905e-05,6.13268e-05,-8.84738e-05,-2.64357e-05
183,-3.99158e-05,2.14225e-05,4.91278e-05,5.50555e-05,-8.42447e-05,-7.29381e-05
184,-4.05244e-05,2.48348e-05,4.2111e-05,5.05016e-05,-7.73179e-05,-9.86181e-05
185,-2.79409e-05,2.74102e-05,3.62738e-05,5.13719e-05,-6.90898e-05,-7.24569e-05
186,-2.00742e-05,2.96177e-05,3.12504e-05,5.68887e-05,-5.7937e-05,-9.32455e-06
187,-2.35501e-05,3.06227e-05,3.04724e-05,6.16688e-05,-4.87065e-05,5.10769e-05
188,-3.45979e-05,2.88951e-05,3.55731e-05,6.17214e-05,-4.2677e-05,9.80992e-05
189,-4.20634e-05,2.62826e-05,4.39989e-05,5.87827e-05,-3.04474e-05,0.000146224
190,-3.01563e-05,2.70228e-05,4.93866e-05,5.80601e-05,-6.90149e-06,0.000184243
191,-4.10026e-06,3.08148e-05,4.87261e-05,6.06744e-05,1.87437e-05,0.000168347
192,1.20803e-05,3.23213e-05,4.70139e-05,6.24633e-05,3.72177e-05,7.4926e-05
193,6.64662e-06,2.8596e-05,4.57344e-05,5.99308e-05,4.90729e-05,-6.16205e-05
194,-1.64157e-05,2.04873e-05,4.30561e-05,5.65148e-05,5.89209e-05,-0.000173082
195,-4.48058e-05,1.13677e-05,4.18149e-05,5.38135e-05,6.52839e-05,-0.000220021
196,-4.87886e-05,7.21498e-06,4.23295e-05,4.79209e-05,6.65073e-05,-0.000216382
197,-2.68585e-05,1.10037e-05,4.06863e-05,4.03477e-05,6.47458e-05,-0.000192507
198,-1.16244e-05,1.97539e-05,3.78857e-05,3.93367e-05,5.47763e-05,-0.000168167
199,-8.16461e-06,2.86511e-05,3.83805e-05,4.65226e-05,2.8836e-05,-0.000146956
200,-7.38723e-06,3.27048e-05,3.75024e-05,5.14858e-05,-1.059e-05,-0.00011871
201,-8.12246e-06,3.00898e-05,3.32943e-05,5.11108e-05,-5.19158e-05,-8.00424e-05
202,-1.58166e-05,2.40254e-05,3.0516e-05,5.04009e-05,-8.61751e-05,-3.48563e-05
203,-3.68073e-05,1.55919e-05,3.07182e-05,5.19938e-05,-0.000102751,1.19894e-05
204,-4.99397e-05,6.73791e-06,2.95301e-05,5.39747e-05,-9.2376e-05,4.97665e-05
205,-3.22013e-05,2.21918e-06,2.52968e-05,5.32518e-05,-6.02471e-05,6.9325e-05
206,7.0444e-07,3.32352e-06,2.16096e-05,4.97912e-05,-2.67902e-05,7.49646e-05
207,2.09718e-05,6.99954e-06,1.98051e-05,4.60626e-05,-9.4418e-06,7.72641e-05
208,2.18211e-05,1.22515e-05,1.93939e-05,4.3538e-05,-7.94746e-06,7.92462e-05
209,7.90998e-06,1.61942e-05,1.88798e-05,4.12946e-05,-1.08179e-05,8.03081e-05
210,-3.12135e-06,1.39194e-05,1.71594e-05,3.86506e-05,-9.64201e-06,8.26864e-05
211,4.28971e-06,7.08174e-06,1.11726e-05,3.58188e-05,-1.65047e-06,8.53699e-05
212,1.91556e-05,2.06296e-06,1.13781e-06,3.54795e-05,1.22547e-05,8.56055e-05
213,2.13164e-05,3.45877e-06,-7.67822e-06,3.98643e-05,3.02859e-05,8.59102e-05
214,8.46709e-06,9.0185e-06,-9.9943e-06,4.55307e-05,4.92915e-05,8.35758e-05
215,-9.81224e-06,1.27429e-05,-7.32055e-06,4.58564e-05,5.85685e-05,6.49926e-05
216,-1.80365e-05,1.04659e-05,-6.11073e-06,4.15873e-05,4.88203e-05,2.55812e-05
217,-4.35185e-06,6.62634e-06,-1.19944e-05,3.98904e-05,2.15254e-05,-1.51809e-05
218,1.74156e-05,8.12711e-06,-2.40642e-05,4.29644e-05,-1.46785e-05,-3.15477e-05
219,2.4757e-05,1.4526e-05,-3.30575e-05,4.75986e-05,-4.61615e-05,-1.80659e-05
220,1.44309e-05,2.21047e-05,-3.4324e-05,5.23181e-05,-5.78676e-05,1.01547e-05
221,-8.23077e-06,2.70282e-05,-3.13123e-05,5.67554e-05,-5.15067e-05,3.6091e-05
222,-3.33861e-05,2.19334e-05,-2.60737e-05,5.97664e-05,-4.34325e-05,4.75338e-05
223,-3.1777e-05,9.42193e-06,-1.85344e-05,5.89316e-05,-4.72049e-05,3.9978e-05
224,-4.75836e-06,2.63583e-06,-9.9031e-06,5.49995e-05,-6.22271e-05,2.07181e-05
225,9.06727e-06,2.90235e-06,-3.28215e-06,5.10714e-05,-7.68678e-05,8.19115e-06
226,7.86293e-06,4.28772e-06,-4.311e-07,4.8149e-05,-7.99754e-05,1.40078e-05
227,6.42457e-06,5.05701e-06,4.78407e-06,4.71507e-05,-6.92821e-05,3.08829e-05
228,3.54158e-06,6.49274e-06,1.75773e-05,4.67278e-05,-5.52836e-05,4.67135e-05
229,-3.01286e-06,8.57657e-06,3.38781e-05,4.6721e-05,-5.07581e-05,5.51641e-05
230,-1.73047e-05,9.5605e-06,4.64753e-05,4.76487e-05,-5.2664e-05,6.21715e-05
231,-2.59776e-05,9.23169e-06,5.33417e-05,4.7672e-05,-4.83862e-05,7.36308e-05
232,-1.52874e-05,7.39855e-06,5.65149e-05,4.78147e-05,-3.44591e-05,7.71433e-05
233,2.25e-06,4.91765e-06,5.81093e-05,4.81752e-05,-1.88605e-05,5.71096e-05
234,7.8456e-06,3.5151e-06,6.07276e-05,4.58726e-05,-9.84735e-06,2.03492e-05
235,-3.14367e-06,4.63458e-06,6.48653e-05,4.08769e-05,-7.60884e-06,-1.24351e-05
236,-2.54557e-05,7.28081e-06,6.70758e-05,3.61635e-05,-6.27054e-06,-2.97688e-05
237,-4.05913e-05,1.00126e-05,6.61131e-05,3.2819e-05,-1.65304e-06,-3.33644e-05
238,-3.30688e-05,1.30912e-05,6.33757e-05,2.8503e-05,5.04108e-06,-2.88658e-05
239,-1.32512e-05,1.5197e-05,6.18192e-05,2.25495e-05,8.47176e-06,-2.22916e-05
240,-1.94644e-06,1.65202e-05,6.22032e-05,1.9454e-05,4.18413e-06,-1.41967e-05
241,-4.85513e-06,1.95499e-05,6.19063e-05,2.27219e-05,-4.46647e-06,2.01688e-06
242,-1.81827e-05,2.3219e-05,5.90285e-05,2.95819e-05,-9.66831e-06,2.47822e-05
243,-3.11831e-05,2.24307e-05,5.47501e-05,3.48536e-05,-6.66949e-06,4.60935e-05
244,-2.64706e-05,1.79288e-05,4.92501e-05,3.84158e-05,2.16327e-06,6.51636e-05
245,-7.86917e-06,1.45266e-05,4.33682e-05,4.13214e-05,1.1095e-05,8.26729e-05
246,4.02402e-06,1.34922e-05,3.89067e-05,4.27953e-05,1.72489e-05,8.95026e-05
247,1.24862e-06,1.32724e-05,2.90129e-05,4.47515e-05,2.31315e-05,7.55789e-05
248,-1.30439e-05,1.22815e-05,7.97353e-06,4.92496e-05,3.10512e-05,4.31476e-05
249,-2.66131e-05,9.78674e-06,-1.61819e-05,5.40997e-05,4.20746e-05,6.99262e-06
250,-1.50294e-05,9.44378e-06,-2.77344e-05,5.80322e-05,5.3355e-05,-1.66128e-05
251,1.3648e-05,1.14717e-05,-2.3206e-05,6.29064e-05,5.86297e-05,-1.86102e-05
252,2.92519e-05,1.08101e-05,-1.56435e-05,6.86053e-05,5.21102e-05,-3.00302e-06
253,3.52715e-05,8.87928e-06,-9.18335e-06,7.46019e-05,3.97252e-05,1.84329e-05
254,3.70054e-05,8.70892e-06,-1.41573e-06,7.61941e-05,3.46732e-05,3.155e-05
255,2.65248e-05,9.76575e-06,4.15849e-06,7.03346e-05,3.65542e-05,3.09518e-05
256,2.6233e-06,1.42761e-05,8.62124e-06,6.14864e-05,4.46146e-05,2.58323e-05
257,-3.19745e-05,2.05729e-05,1.16385e-05,5.80005e-05,5.59192e-05,2.32968e-05
258,-5.4644e-05,2.04627e-05,1.08107e-05,6.08334e-05,5.8297e-05,2.48586e-05
259,-4.59559e-05,1.35224e-05,6.38818e-06,6.10078e-05,4.97505e-05,2.699e-05
260,-2.40124e-05,7.7872e-06,3.31426e-06,5.39393e-05,4.07926e-05,2.90063e-05
261,-1.73636e-05,1.10963e-05,5.48851e-06,4.61208e-05,3.97298e-05,3.75292e-05
262,-2.82109e-05,1.88828e-05,1.15591e-05,4.34278e-05,4.49374e-05,6.12859e-05
263,-4.70091e-05,2.07829e-05,1.74714e-05,4.37244e-05,4.84485e-05,9.75404e-05
264,-5.81674e-05,1.66847e-05,1.99379e-05,4.36708e-05,4.48762e-05,0.000127921
265,-4.77579e-05,1.40602e-05,2.12657e-05,4.28442e-05,3.50176e-05,0.000133732
266,-2.38885e-05,1.45868e-05,2.44154e-05,4.31582e-05,2.09885e-05,0.000113517
267,-8.776e-06,1.62709e-05,2.71671e-05,4.41838e-05,4.20846e-06,7.98722e-05
268,-1.07374e-05,1.82617e-05,2.84254e-05,4.68173e-05,-8.73077e-06,3.84974e-05
269,-2.38666e-05,1.86597e-05,3.16746e-05,5.29802e-05,-1.11036e-05,-1.20513e-05
270,-3.36743e-05,1.65461e-05,3.7237e-05,6.05509e-05,-6.86558e-06,-6.24275e-05
271,-2.11847e-05,1.6368e-05,4.08862e-05,6.45294e-05,-5.7181e-06,-8.87553e-05
272,7.3859e-06,2.06158e-05,3.7848e-05,6.41021e-05,-1.30456e-05,-8.19466e-05
273,2.72391e-05,2.4709e-05,3.12506e-05,6.19261e-05,-2.87785e-05,-6.67633e-05
274,2.88038e-05,2.62968e-05,2.79833e-05,6.2438e-05,-4.85235e-05,-6.75153e-05
275,1.3363e-05,2.43345e-05,2.67157e-05,6.98737e-05,-6.2268e-05,-7.43315e-05
276,-8.30086e-06,2.01878e-05,2.31405e-05,8.25111e-05,-5.78632e-05,-6.84004e-05
277,-5.4087e-06,1.82818e-05,1.94084e-05,9.38502e-05,-3.64954e-05,-4.15219e-05
278,1.73527e-05,1.74211e-05,2.2075e-05,9.99202e-05,-2.169e-05,6.22545e-07
279,2.38789e-05,1.44254e-05,3.12721e-05,0.00010147,-2.51853e-05,3.38465e-05
280,1.66362e-05,1.14867e-05,4.19806e-05,9.65484e-05,-3.17418e-05,4.73179e-05
281,1.16733e-05,1.11244e-05,5.20512e-05,8.40618e-05,-3.36156e-05,4.8773e-05
282,8.65618e-06,1.27577e-05,5.53926e-05,6.91564e-05,-3.35711e-05,4.32027e-05
283,3.1189e-06,1.23272e-05,5.15058e-05,5.70755e-05,-3.76245e-05,3.30757e-05
284,-1.28594e-05,1.07303e-05,4.87138e-05,5.2283e-05,-4.88835e-05,2.05701e-05
285,-2.46582e-05,1.23071e-05,4.9258e-05,5.72771e-05,-5.66513e-05,9.18357e-06
286,-1.4999e-05,1.62744e-05,5.17809e-05,6.39931e-05,-5.38918e-05,-1.94891e-06
287,1.28442e-06,1.84957e-05,5.4314e-05,6.25217e-05,-4.76528e-05,-1.44748e-05
288,5.85822e-06,2.0002e-05,5.57877e-05,5.33972e-05,-4.66753e-05,-2.88114e-05
289,-1.90963e-06,2.18098e-05,5.55167e-05,4.32113e-05,-4.78852e-05,-4.42783e-05
290,-2.00521e-05,2.0425e-05,5.14294e-05,3.60849e-05,-4.6908e-05,-5.64207e-05
291,-3.81384e-05,1.46865e-05,4.44978e-05,3.00466e-05,-4.69233e-05,-5.42949e-05
292,-4.18657e-05,8.60618e-06,3.7297e-05,2.28537e-05,-5.12286e-05,-2.73851e-05
293,-3.61866e-05,6.01312e-06,3.12779e-05,1.6174e-05,-5.41219e-05,2.73666e-05
294,-3.78469e-05,5.79643e-06,2.90751e-05,1.10919e-05,-4.94681e-05,0.000108284
295,-5.16282e-05,6.38072e-06,3.2185e-05,6.73045e-06,-3.86602e-05,0.000203842
296,-7.31742e-05,6.92812e-06,3.68845e-05,3.18973e-06,-2.79938e-05,0.000282
297,-9.01166e-05,6.04794e-06,3.81215e-05,1.37349e-06,-2.25073e-05,0.000299916
298,-7.85047e-05,3.89362e-06,3.5823e-05,2.71162e-06,-2.23421e-05,0.000234748
299,-3.75088e-05,4.36356e-06,3.63068e-05,7.58443e-06,-2.5009e-05,0.00010021
300,2.30557e-06,8.65818e-06,4.12909e-05,1.22518e-05,-2.34622e-05,-5.61923e-05
301,1.98349e-05,1.33832e-05,4.41128e-05,1.2296e-05,-1.66858e-05,-0.000177306
302,1.30017e-05,1.46285e-05,4.20799e-05,7.97412e-06,-1.4219e-05,-0.000231717
303,-3.35414e-06,1.19382e-05,4.03642e-05,4.98353e-06,-1.66449e-05,-0.000235395
304,7.86396e-06,8.08902e-06,4.33596e-05,9.15851e-06,-1.81002e-05,-0.000229308
305,4.35075e-05,4.22225e-06,4.85788e-05,1.81141e-05,-1.81574e-05,-0.000224467
306,6.32527e-05,1.28276e-06,5.06816e-05,2.42064e-05,-1.60831e-05,-0.000193083
307,6.71284e-05,1.65415e-07,4.80691e-05,2.63101e-05,-1.32418e-05,-0.000132219
308,7.13623e-05,-5.89154e-07,4.23374e-05,2.97392e-05,-1.12541e-05,-7.07646e-05
309,7.81616e-05,-1.08664e-06,3.49939e-05,3.9381e-05,-9.16312e-06,-3.09044e-05
310,8.13943e-05,6.55989e-07,2.9201e-05,5.00792e-05,-2.12331e-06,-1.42072e-05
311,6.99004e-05,3.87491e-06,2.39699e-05,5.33527e-05,1.47482e-05,-3.42299e-06
312,5.6535e-05,6.53979e-06,1.2414e-05,5.22263e-05,4.72562e-05,1.27158e-05
313,6.12518e-05,7.75223e-06,-5.8854e-06,5.31416e-05,8.75891e-05,2.8044e-05
314,7.1648e-05,4.89321e-06,-2.44829e-05,5.4809e-05,0.000112996,3.2582e-05
315,6.27655e-05,4.46338e-07,-3.73792e-05,5.36367e-05,0.000112543,2.97513e-05
316,2.91239e-05,-1.66154e-06,-4.1335e-05,5.0824e-05,9.06824e-05,3.0794e-05
317,-1.82858e-05,3.80224e-07,-3.71141e-05,4.81109e-05,5.56946e-05,4.65464e-05
318,-5.15288e-05,7.25117e-06,-2.82876e-05,4.76881e-05,1.81955e-05,9.2615e-05
319,-5.11898e-05,1.59395e-05,-1.90483e-05,5.04717e-05,-1.76069e-05,0.000174263
320,-3.15108e-05,2.181e-05,-1.12425e-05,5.48076e-05,-5.13951e-05,0.000257911
321,-1.89795e-05,2.54754e-05,-5.19229e-06,5.97989e-05,-7.09596e-05,0.000296115
322,-2.21121e-05,3.03554e-05,-1.65151e-06,6.51383e-05,-6.51867e-05,0.000280278
323,-3.61885e-05,3.36877e-05,1.02282e-06,6.96161e-05,-5.05365e-05,0.000232716
324,-4.92706e-05,3.05659e-05,6.39413e-06,7.10572e-05,-5.31259e-05,0.000165991
325,-4.32614e-05,2.51001e-05,1.31311e-05,6.95204e-05,-7.1769e-05,8.29839e-05
326,-2.19663e-05,2.38034e-05,1.91094e-05,6.87735e-05,-8.91587e-05,-7.45557e-06
327,-6.29096e-06,2.46115e-05,2.62921e-05,7.27991e-05,-9.94736e-05,-8.91169e-05
328,-4.73802e-06,2.48766e-05,3.45885e-05,8.09096e-05,-0.000102439,-0.000147261
329,-1.88095e-05,2.33175e-05,4.12991e-05,8.63983e-05,-9.16966e-05,-0.000189944
330,-3.91931e-05,1.69201e-05,4.48479e-05,8.25701e-05,-6.78788e-05,-0.000232239
331,-3.44458e-05,5.86954e-06,4.57673e-05,7.22244e-05,-4.22549e-05,-0.000256424
332,-8.07234e-06,-1.77622e-06,4.73592e-05,6.59795e-05,-2.68317e-05,-0.000225919
333,2.63313e-06,-2.30696e-06,5.17003e-05,6.85117e-05,-1.89869e-05,-0.000142292
334,-4.42526e-07,-5.99279e-07,5.09057e-05,7.08261e-05,-7.93004e-06,-5.35138e-05
335,3.48215e-07,7.89884e-07,4.49255e-05,6.63259e-05,4.14381e-06,-1.30855e-06
336,6.89337e-06,3.58604e-06,4.21592e-05,5.90374e-05,9.22164e-06,9.52948e-06
337,7.88608e-06,9.02595e-06,4.38699e-05,5.55316e-05,8.47397e-06,2.83001e-06
338,-8.3278e-06,1.35693e-05,4.74945e-05,6.03739e-05,4.08598e-06,4.20773e-06
339,-2.52506e-05,1.2429e-05,4.42688e-05,6.96373e-05,-3.9405e-06,1.76099e-05
340,-2.32644e-05,7.22188e-06,3.18055e-05,7.55411e-05,-1.60316e-05,2.75153e-05
341,-1.09914e-05,2.80358e-06,1.75979e-05,7.56314e-05,-3.1307e-05,2.36781e-05
342,-8.95049e-06,3.92297e-06,7.63535e-06,7.43625e-05,-4.61173e-05,1.38388e-05
343,-1.97305e-05,8.47709e-06,5.04189e-06,7.59739e-05,-5.17507e-05,8.03043e-06
344,-3.67735e-05,9.79204e-06,1.03623e-05,7.8776e-05,-4.18516e-05,6.58072e-06
345,-4.50811e-05,6.9003e-06,1.73647e-05,7.93106e-05,-2.5168e-05,8.5204e-06
346,-3.49913e-05,5.71181e-06,1.98795e-05,7.74817e-05,-1.51904e-05,1.98003e-05
347,-1.68838e-05,9.20434e-06,1.65831e-05,7.6266e-05,-1.70039e-05,4.05029e-05
348,-7.92095e-06,1.39276e-05,7.7664e-06,7.59565e-05,-2.45826e-05,5.76653e-05
349,-1.10859e-05,1.41255e-05,-4.44489e-06,7.36357e-05,-2.49366e-05,5.86243e-05
350,-2.34733e-05,8.26542e-06,-1.50244e-05,6.78436e-05,-1.23372e-05,5.12889e-05
351,-3.64945e-05,1.50003e-06,-1.72141e-05,6.14519e-05,1.28621e-06,5.52833e-05
352,-2.96034e-05,-2.00546e-06,-1.02119e-05,5.78029e-05,1.97586e-06,7.33586e-05
353,-4.85378e-06,-2.81456e-06,-1.541e-06,5.49984e-05,-7.72459e-06,9.14323e-05
354,1.12591e-05,-9.70053e-07,3.31441e-06,5.03754e-05,-1.62416e-05,9.8181e-05
355,7.78178e-06,4.14004e-06,1.01657e-05,4.60022e-05,-1.9007e-05,9.10689e-05
356,-9.99309e-06,7.84126e-06,2.15899e-05,4.34731e-05,-1.60579e-05,7.45642e-05
357,-3.04065e-05,6.85868e-06,3.17389e-05,4.17979e-05,-1.01468e-05,7.01844e-05
358,-2.65067e-05,3.17825e-06,3.84398e-05,3.90385e-05,-7.84258e-06,0.000108579
359,-2.25484e-06,-1.14192e-07,4.25591e-05,3.43523e-05,-7.23617e-06,0.000179238
360,9.21345e-06,-2.22606e-07,4.45232e-05,2.83131e-05,-2.3239e-06,0.00023143
361,7.72312e-06,5.57036e-06,4.87151e-05,2.09015e-05,3.32263e-06,0.000260172
362,5.89902e-06,1.3486e-05,5.64267e-05,1.41813e-05,4.66069e-06,0.00028689
363,2.38186e-06,1.8542e-05,6.28795e-05,1.15446e-05,2.78409e-06,0.000286058
364,-4.81601e-06,1.97364e-05,6.61234e-05,1.43167e-05,-3.963e-06,0.000220142
365,-2.19215e-05,1.63443e-05,6.54976e-05,2.06342e-05,-1.49034e-05,0.000101464
366,-3.26413e-05,1.10889e-05,6.2958e-05,2.78863e-05,-2.09257e-05,-1.29763e-05
367,-1.67335e-05,9.87983e-06,6.39328e-05,3.5275e-05,-2.02976e-05,-8.46787e-05
368,1.14156e-05,1.41036e-05,6.86789e-05,4.16807e-05,-1.77772e-05,-0.000115596
369,2.65725e-05,2.12093e-05,7.09676e-05,4.37381e-05,-1.88521e-05,-0.000134977
370,2.1786e-05,2.52918e-05,6.63662e-05,4.32725e-05,-2.48269e-05,-0.00016729
371,1.24983e-06,2.24443e-05,5.65758e-05,4.73745e-05,-2.83562e-05,-0.000199834
372,-1.68744e-05,1.58203e-05,4.50789e-05,5.52973e-05,-2.11493e-05,-0.000198941
373,-1.40514e-05,1.1076e-05,3.35741e-05,6.05705e-05,-5.02168e-06,-0.00015044
374,2.41705e-06,8.82069e-06,2.44893e-05,6.2656e-05,8.89536e-06,-7.78919e-05
375,1.02432e-05,8.30545e-06,2.02622e-05,6.50567e-05,1.20315e-05,-1.87499e-05
376,2.66884e-07,1.05363e-05,1.97822e-05,6.78032e-05,8.40836e-06,6.12274e-06
377,-2.14437e-05,1.26326e-05,1.85681e-05,6.82381e-05,7.40717e-06,-1.99128e-06
378,-3.81338e-05,1.09882e-05,1.53001e-05,6.46285e-05,1.13985e-05,-3.59282e-05
379,-2.90987e-05,7.23967e-06,1.36088e-05,5.77352e-05,1.68366e-05,-8.88863e-05
380,-1.89736e-06,5.75035e-06,1.55096e-05,5.01266e-05,2.02265e-05,-0.000148656
381,1.77748e-05,8.55944e-06,2.0941e-05,4.46242e-05,2.26975e-05,-0.000186019
382,1.89506e-05,1.48325e-05,2.55177e-05,4.19647e-05,2.70238e-05,-0.000165231
383,7.44038e-07,2.01984e-05,2.42038e-05,4.13483e-05,3.17448e-05,-9.4767e-05
384,-2.70595e-05,2.02895e-05,1.92615e-05,4.26258e-05,3.44282e-05,-2.64322e-05
385,-2.9348e-05,1.4896e-05,1.4419e-05,4.48122e-05,3.87353e-05,2.16741e-05
386,-5.12361e-06,9.92992e-06,1.14199e-05,4.42212e-05,4.41449e-05,7.59421e-05
387,6.89341e-06,1.03518e-05,9.9569e-06,4.08951e-05,4.44582e-05,0.00013025
388,5.71129e-06,1.35842e-05,8.51646e-06,3.64451e-05,4.17863e-05,0.000145331
389,6.33254e-06,1.43587e-05,7.22148e-06,3.17156e-05,3.96997e-05,0.000119445
390,6.07956e-06,1.51102e-05,3.97125e-06,3.14749e-05,3.41533e-05,7.96373e-05
391,-1.96731e-06,1.75808e-05,-4.40596e-06,3.33778e-05,2.33747e-05,3.6946e-05
392,-2.15625e-05,1.79205e-05,-1.15684e-05,3.10862e-05,8.60488e-06,-1.12424e-05
393,-3.40995e-05,1.54669e-05,-1.28724e-05,2.44029e-05,-1.04451e-05,-5.15436e-05
394,-1.95877e-05,1.17124e-05,-1.23217e-05,1.99369e-05,-2.94254e-05,-6.69895e-05
395,8.5588e-06,9.55182e-06,-8.18976e-06,2.32893e-05,-3.94081e-05,-6.32843e-05
396,2.42681e-05,1.13292e-05,3.18953e-07,3.3568e-05,-3.44296e-05,-5.17535e-05
397,2.16486e-05,1.46186e-05,7.13575e-06,4.56824e-05,-1.57026e-05,-2.08743e-05
398,6.7634e-06,1.49863e-05,9.84429e-06,5.41991e-05,2.49258e-06,4.87967e-05
399,-2.72845e-06,1.2586e-05,1.20339e-05,5.85543e-05,6.20754e-06,0.000138807
400,9.17677e-06,1.26023e-05,1.71177e-05,6.11262e-05,-1.35941e-06,0.000204992
401,3.30039e-05,1.53084e-05,2.46997e-05,6.63447e-05,-8.27869e-06,0.000222567
402,4.65366e-05,1.6968e-05,3.24528e-05,7.62522e-05,-1.21516e-05,0.000194581
403,4.14162e-05,1.69883e-05,3.84445e-05,8.59171e-05,-1.61181e-05,0.000130403
404,2.00095e-05,1.59737e-05,4.31626e-05,8.76784e-05,-1.62182e-05,4.21783e-05
405,-5.73635e-06,1.3376e-05,4.82123e-05,8.0046e-05,-8.68333e-06,-4.72497e-05
406,-1.1655e-05,1.08047e-05,5.19778e-05,6.8727e-05,-2.42947e-06,-0.000107321
407,6.02245e-06,1.10495e-05,5.31934e-05,5.89779e-05,-9.25443e-06,-0.00012425
408,2.43266e-05,1.26515e-05,5.43001e-05,5.04303e-05,-2.8637e-05,-0.000117433
409,2.67643e-05,1.25806e-05,5.41951e-05,4.15717e-05,-5.03045e-05,-0.000113385
410,1.02923e-05,1.0511e-05,5.02583e-05,3.82803e-05,-6.59135e-05,-0.000115981
411,-1.1142e-05,1.04917e-05,4.8277e-05,4.48848e-05,-7.1491e-05,-0.000113901
412,-5.01783e-06,1.24153e-05,5.42667e-05,5.11888e-05,-6.57661e-05,-9.58592e-05
413,2.16292e-05,1.13169e-05,6.23901e-05,4.73386e-05,-5.10871e-05,-5.17391e-05
414,3.18399e-05,1.15701e-05,6.13188e-05,3.95573e-05,-2.80406e-05,7.91849e-06
415,2.74306e-05,1.55138e-05,5.38857e-05,3.49675e-05,-5.43004e-06,5.01931e-05
416,2.24561e-05,1.82569e-05,5.19673e-05,3.03492e-05,6.64883e-06,6.06093e-05
417,1.66018e-05,1.85936e-05,5.26696e-05,2.76545e-05,6.67218e-06,5.38375e-05
418,6.05428e-06,1.64249e-05,4.80741e-05,3.06024e-05,-4.81775e-06,4.66919e-05
419,-1.82417e-05,1.34431e-05,4.28856e-05,3.56305e-05,-2.17574e-05,4.15336e-05
420,-4.31633e-05,1.22976e-05,4.01099e-05,3.78115e-05,-3.22599e-05,3.73036e-05
421,-4.34605e-05,1.44081e-05,3.51687e-05,3.7849e-05,-3.39602e-05,3.46334e-05
422,-2.4475e-05,1.80845e-05,3.10887e-05,3.92684e-05,-3.10706e-05,3.14123e-05
423,-1.22736e-05,2.07009e-05,3.30886e-05,4.13831e-05,-2.46816e-05,2.74148e-05
424,-1.97605e-05,1.95368e-05,3.55789e-05,4.46975e-05,-2.00415e-05,2.72369e-05
425,-4.58484e-05,1.55788e-05,3.09305e-05,5.08384e-05,-2.0174e-05,3.17175e-05
426,-7.03731e-05,1.25935e-05,2.08462e-05,5.83696e-05,-1.9915e-05,3.54058e-05
427,-7.00345e-05,1.21154e-05,1.04623e-05,6.31346e-05,-1.3794e-05,3.55563e-05
428,-4.95875e-05,1.38854e-05,3.91079e-06,6.56641e-05,-1.48105e-07,3.45954e-05
429,-3.32487e-05,1.71484e-05,2.14584e-06,6.97837e-05,1.75784e-05,3.57132e-05
430,-3.41676e-05,2.00632e-05,1.26915e-06,7.66766e-05,2.83797e-05,3.7394e-05
431,-5.00343e-05,1.93917e-05,-8.73334e-07,8.22328e-05,2.1262e-05,3.46888e-05
432,-6.41774e-05,1.48316e-05,-2.27995e-06,8.00362e-05,6.42324e-07,2.69501e-05
433,-5.45352e-05,1.068e-05,-2.55462e-06,6.82332e-05,-1.73323e-05,2.41243e-05
434,-2.8269e-05,9.69664e-06,-9.60879e-07,5.43157e-05,-2.30367e-05,3.17112e-05
435,-1.0899e-05,1.06843e-05,6.05967e-06,4.7144e-05,-1.64765e-05,4.25115e-05
436,-1.18814e-05,1.25497e-05,1.76338e-05,4.73094e-05,-1.14128e-06,4.62297e-05
437,-2.87844e-05,1.25691e-05,2.79829e-05,5.04651e-05,1.50302e-05,4.30082e-05
438,-4.93931e-05,9.73634e-06,3.30192e-05,5.11651e-05,2.19451e-05,5.07575e-05
439,-4.44483e-05,8.73617e-06,3.43881e-05,5.1082e-05,2.04115e-05,8.95647e-05
440,-1.82681e-05,9.83874e-06,3.61519e-05,5.54533e-05,1.55389e-05,0.000148196
441,-5.21602e-06,7.23249e-06,3.75136e-05,6.21522e-05,7.71891e-06,0.000185407
442,-1.82107e-06,2.50744e-06,3.87353e-05,6.59123e-05,3.78465e-06,0.000186138
443,4.3913e-06,-1.30073e-06,4.24233e-05,6.26101e-05,6.06546e-06,0.000160461
444,7.54935e-06,-4.22062e-06,4.66279e-05,5.33049e-05,9.62907e-06,0.000113674
445,3.18892e-06,-4.41818e-06,4.81956e-05,4.32663e-05,1.33206e-05,5.3681e-05
446,-1.43146e-05,-3.24323e-06,4.6125e-05,3.54542e-05,2.06226e-05,-7.38829e-06
447,-2.92692e-05,-1.06189e-06,4.4055e-05,3.16831e-05,4.06816e-05,-4.40278e-05
448,-1.92674e-05,2.89845e-06,4.14821e-05,3.00258e-05,6.67056e-05,-4.88614e-05
449,5.41157e-06,5.32611e-06,3.62453e-05,2.69686e-05,7.261e-05,-5.01779e-05
450,1.86425e-05,6.13532e-06,3.15096e-05,2.30108e-05,4.72067e-05,-6.76792e-05
451,1.1697e-05,7.85855e-06,3.13319e-05,2.04533e-05,7.71832e-06,-8.2316e-05
452,-8.06403e-06,9.67126e-06,3.67044e-05,1.8822e-05,-2.40019e-05,-7.05328e-05
453,-1.8275e-05,9.77008e-06,4.42988e-05,1.58604e-05,-3.56181e-05,-4.1155e-05
454,-6.81321e-07,1.07354e-05,4.78977e-05,1.24498e-05,-2.63682e-05,-2.33771e-05
455,3.05854e-05,1.40289e-05,4.6165e-05,1.15584e-05,-5.06381e-06,-3.06729e-05
456,4.56063e-05,1.88334e-05,4.27237e-05,1.4392e-05,1.71516e-05,-5.22921e-05
457,3.66217e-05,2.36998e-05,3.71309e-05,1.86668e-05,3.18008e-05,-6.97914e-05
458,1.56425e-05,2.60282e-05,2.86626e-05,2.05182e-05,3.32024e-05,-6.72536e-05
459,1.32602e-06,2.3464e-05,2.01644e-05,1.84968e-05,2.35104e-05,-4.28957e-05
460,8.66805e-06,1.82262e-05,1.36332e-05,1.58119e-05,8.247e-06,-9.69069e-06
461,2.4791e-05,1.51754e-05,9.51962e-06,1.67324e-05,-9.67558e-06,1.24244e-05
462,2.65357e-05,1.43271e-05,9.97696e-06,2.22069e-05,-2.45993e-05,1.43468e-05
463,1.43211e-05,1.44886e-05,1.42841e-05,3.10675e-05,-3.51291e-05,5.4296e-06
464,-5.17639e-06,1.59809e-05,1.94033e-05,4.26976e-05,-4.68007e-05,-4.05555e-07
465,-2.65694e-05,1.8928e-05,2.38693e-05,5.66963e-05,-6.05948e-05,-9.17151e-07
466,-2.47336e-05,2.25589e-05,2.58409e-05,7.25549e-05,-7.70029e-05,1.11287e-05
467,-5.01585e-06,2.58954e-05,2.65629e-05,8.7829e-05,-9.40555e-05,5.46241e-05
468,-1.48936e-06,2.57258e-05,2.70946e-05,9.72877e-05,-9.46266e-05,0.000121938
469,-9.58005e-06,2.26647e-05,2.9657e-05,0.000100594,-7.36102e-05,0.000166409
470,-1.44338e-05,2.07486e-05,3.57104e-05,9.68073e-05,-4.90141e-05,0.000157912
471,-1.7619e-05,2.23135e-05,3.66823e-05,8.69196e-05,-3.96804e-05,0.000106855
472,-2.28072e-05,2.39247e-05,2.74434e-05,7.81033e-05,-4.81889e-05,3.88439e-05
473,-3.59501e-05,1.94637e-05,1.39697e-05,7.23911e-05,-5.92466e-05,-2.4346e-05
474,-4.45235e-05,9.04163e-06,7.11018e-06,6.68385e-05,-5.86824e-05,-6.74257e-05
475,-3.04342e-05,-1.18534e-06,5.83355e-06,6.13603e-05,-5.06653e-05,-8.8947e-05
476,-3.44435e-06,-5.50401e-06,4.39358e-06,5.78923e-05,-4.38766e-05,-9.93067e-05
477,1.64963e-05,-5.26379e-06,3.00154e-06,5.57272e-05,-3.72974e-05,-9.65331e-05
478,2.37144e-05,-6.32419e-06,4.08185e-06,5.477e-05,-2.65266e-05,-7.18383e-05
479,1.70811e-05,-1.17761e-05,8.36943e-06,5.38801e-05,-1.38866e-05,-3.31278e-05
480,1.02958e-05,-1.64672e-05,1.3504e-05,5.10988e-05,-1.90034e-06,-9.09143e-07
481,2.04079e-05,-1.47274e-05,1.75831e-05,4.72518e-05,1.05625e-05,1.32866e-05
482,3.88779e-05,-7.4673e-06,2.21155e-05,4.60062e-05,1.98048e-05,1.38128e-05
483,4.45973e-05,1.26215e-06,3.06812e-05,4.65196e-05,2.13897e-05,1.19646e-05
484,3.37542e-05,8.27463e-06,4.07111e-05,4.66173e-05,1.49399e-05,1.37301e-05
485,1.40845e-05,1.18897e-05,4.67401e-05,4.87294e-05,7.46042e-07,1.65612e-05
486,-1.47421e-06,1.34177e-05,4.60548e-05,5.34493e-05,-1.81164e-05,1.87483e-05
487,2.52063e-06,1.61216e-05,3.98894e-05,5.62615e-05,-3.10489e-05,2.2459e-05
488,1.73449e-05,2.11081e-05,3.33009e-05,5.45686e-05,-2.84016e-05,2.57273e-05
489,1.94766e-05,2.779e-05,3.30781e-05,5.14381e-05,-1.35207e-05,2.48393e-05
490,4.70062e-06,3.30536e-05,3.588e-05,5.06575e-05,-2.48023e-06,2.07563e-05
491,-2.07582e-05,3.26731e-05,3.59674e-05,5.3799e-05,-3.65013e-06,1.95884e-05
492,-4.67036e-05,2.73161e-05,3.32133e-05,5.80026e-05,-1.19204e-05,2.5388e-05
493,-4.48341e-05,2.13254e-05,2.94314e-05,6.24436e-05,-1.69577e-05,3.49677e-05
494,-1.92309e-05,1.78528e-05,2.86077e-05,6.99448e-05,-1.38112e-05,3.85344e-05
495,-4.0486e-06,1.75544e-05,2.80971e-05,7.74896e-05,-7.60692e-06,3.30405e-05
496,3.29881e-06,1.75762e-05,2.64269e-05,7.88994e-05,-2.56141e-06,2.5575e-05
497,1.28521e-05,1.61471e-05,2.94025e-05,7.64137e-05,-2.24979e-06,2.14327e-05
498,1.63883e-05,1.61685e-05,3.20892e-05,7.36819e-05,-5.83415e-06,2.17339e-05
499,9.60346e-06,1.6415e-05,2.826e-05,6.92229e-05,-6.26792e-06,2.27113e-05
500,-7.4818e-06,1.26969e-05,2.14365e-05,6.60985e-05,3.39497e-07,2.02273e-05
501,-1.68612e-05,8.19661e-06,1.65085e-05,6.64278e-05,1.00257e-05,1.55891e-05
502,-3.86423e-06,5.08063e-06,1.25139e-05,6.5139e-05,1.47043e-05,1.1788e-05
503,1.6579e-05,3.16088e-06,7.64859e-06,6.15531e-05,1.49459e-05,1.17799e-05
504,2.27043e-05,3.82049e-06,6.98544e-06,6.03157e-05,1.379e-05,1.46818e-05
505,1.19118e-05,6.39911e-06,1.35499e-05,6.21667e-05,1.12228e-05,1.66481e-05
506,-9.1617e-06,5.21149e-06,2.10132e-05,6.4616e-05,8.88317e-06,1.77917e-05
507,-2.60017e-05,-1.62095e-06,2.24798e-05,6.55654e-05,8.17073e-06,1.94959e-05
508,-2.41764e-05,-6.9802e-06,2.01673e-05,6.37408e-05,7.79097e-06,2.15654e-05
509,-9.76962e-06,-6.74996e-06,1.66955e-05,6.00097e-05,7.4742e-06,2.26275e-05
510,-3.21282e-06,-4.52778e-06,1.23491e-05,5.49722e-05,9.91218e-06,2.22413e-05
511,-1.50092e-05,-3.14761e-06,8.79274e-06,5.042e-05,1.57283e-05,2.23513e-05
512,-4.30679e-05,-2.23824e-06,8.2622e-06,4.82452e-05,2.00461e-05,2.28425e-05
513,-6.90162e-05,-1.31704e-06,9.40913e-06,4.52292e-05,1.81921e-05,2.00257e-05
514,-6.43641e-05,2.27168e-06,8.72339e-06,4.05367e-05,1.26379e-05,1.46148e-05
515,-3.54459e-05,8.31476e-06,6.62149e-06,4.03144e-05,8.01495e-06,1.24146e-05
516,-1.39686e-05,1.5098e-05,6.52304e-06,4.7017e-05,7.04527e-06,1.44913e-05
517,-7.24028e-06,2.1905e-05,7.33611e-06,5.53172e-05,1.1221e-05,1.66443e-05
518,-9.89532e-06,2.56e-05,6.23016e-06,5.90684e-05,1.59179e-05,1.64538e-05
519,-1.67996e-05,2.31226e-05,3.48902e-06,5.48331e-05,1.30774e-05,1.34003e-05
520,-2.95783e-06,1.681e-05,-2.05426e-08,4.49085e-05,-3.63932e-06,8.34945e-06
521,2.82696e-05,1.39146e-05,-1.60986e-06,3.53998e-05,-3.04196e-05,7.30168e-06
522,4.3152e-05,1.62599e-05,9.86879e-07,2.88259e-05,-5.23659e-05,1.17084e-05
523,4.44947e-05,1.64256e-05,8.87949e-06,2.5161e-05,-6.12358e-05,1.65147e-05
524,4.48056e-05,1.12845e-05,2.14885e-05,2.55066e-05,-5.31375e-05,2.01269e-05
525,3.69296e-05,5.29662e-06,3.14339e-05,2.71197e-05,-2.89111e-05,2.16536e-05
526,1.72524e-05,7.53275e-07,3.54467e-05,2.68496e-05,2.17082e-07,1.93614e-05
527,-1.57477e-05,-3.73349e-06,3.71367e-05,2.56661e-05,2.28051e-05,1.41826e-05
528,-4.19601e-05,-7.73122e-06,3.79433e-05,2.53181e-05,3.31433e-05,9.79975e-06
529,-3.90103e-05,-8.53825e-06,3.85257e-05,2.59396e-05,2.61041e-05,8.57004e-06
530,-2.29389e-05,-7.01744e-06,3.93191e-05,2.57707e-05,3.61824e-06,8.38946e-06
531,-2.01902e-05,-4.5851e-06,4.01281e-05,2.65078e-05,-1.99891e-05,7.68425e-06
532,-3.5035e-05,-1.62077e-07,3.87455e-05,3.08683e-05,-2.88924e-05,9.74895e-06
533,-5.86964e-05,4.25134e-06,3.59945e-05,3.75275e-05,-2.35569e-05,1.46334e-05
534,-7.21317e-05,6.98716e-06,3.50248e-05,4.1065e-05,-1.68372e-05,1.6594e-05
535,-5.97467e-05,8.24609e-06,3.51417e-05,3.99394e-05,-1.50017e-05,1.28319e-05
536,-3.2723e-05,7.54358e-06,3.58863e-05,3.85179e-05,-1.72993e-05,8.38771e-06
537,-1.23872e-05,6.58668e-06,3.97829e-05,4.10651e-05,-1.97532e-05,7.11572e-06
538,-4.74117e-06,9.86213e-06,4.55603e-05,4.67369e-05,-1.70467e-05,5.43571e-06
539,-8.07492e-06,1.45006e-05,4.87248e-05,5.26586e-05,-8.08363e-06,1.44626e-06
540,-1.34405e-05,1.31737e-05,4.85232e-05,5.83954e-05,2.41987e-06,1.28035e-06
541,-2.47568e-06,7.28925e-06,4.56778e-05,6.3968e-05,7.13689e-06,1.20053e-05
542,2.23686e-05,4.78843e-06,4.40357e-05,6.83749e-05,-7.73452e-08,2.91587e-05
543,3.68579e-05,9.96586e-06,4.68497e-05,6.85954e-05,-1.74304e-05,4.05018e-05
544,2.84553e-05,1.87087e-05,4.92515e-05,6.43025e-05,-3.58913e-05,3.70333e-05
545,2.34404e-06,2.26251e-05,4.90381e-05,5.8824e-05,-4.76438e-05,2.04331e-05
546,-2.3194e-05,1.92289e-05,4.97445e-05,5.45112e-05,-4.7361e-05,3.11503e-06
547,-1.61449e-05,1.43951e-05,5.02888e-05,5.08155e-05,-3.64109e-05,-6.3877e-06
548,1.50266e-05,1.20264e-05,4.87814e-05,4.85586e-05,-2.76848e-05,-1.0136e-05
549,3.10948e-05,1.2116e-05,4.54709e-05,5.06009e-05,-3.07227e-05,-1.0212e-05
550,3.61052e-05,1.08524e-05,3.89488e-05,5.49152e-05,-4.23206e-05,-6.70908e-06
551,4.18111e-05,7.95161e-06,3.1689e-05,5.58246e-05,-5.32457e-05,-4.90586e-06
552,4.09871e-05,7.95637e-06,2.72925e-05,5.14364e-05,-5.91356e-05,-6.74419e-06
553,2.75065e-05,1.13513e-05,2.70834e-05,4.55048e-05,-5.50113e-05,-6.71612e-06
554,-2.49253e-06,1.19496e-05,2.94102e-05,4.42893e-05,-4.00491e-05,-2.26837e-06
555,-2.77825e-05,7.13276e-06,3.04153e-05,4.79783e-05,-2.31203e-05,5.94409e-06
556,-2.29598e-05,2.34383e-06,2.74549e-05,5.17389e-05,-8.94959e-06,2.49876e-05
557,-3.52869e-06,6.52974e-07,2.21174e-05,5.04228e-05,8.01616e-06,7.48488e-05
558,-1.96488e-06,2.02681e-06,1.83123e-05,4.38329e-05,3.00017e-05,0.000152905
559,-2.3877e-05,4.7159e-06,1.68937e-05,3.79855e-05,4.46566e-05,0.000219363
560,-5.5219e-05,5.44852e-06,1.86e-05,3.91054e-05,4.16689e-05,0.000248683
561,-7.24216e-05,3.29251e-06,1.92444e-05,4.43268e-05,2.57315e-05,0.000241407
562,-5.8162e-05,8.01264e-07,1.47274e-05,4.66644e-05,8.21781e-06,0.000197048
563,-2.49936e-05,-2.67453e-07,1.09397e-05,4.53624e-05,-6.59363e-06,0.000116633
564,-7.45811e-07,-4.0668e-07,1.52883e-05,4.55501e-05,-2.25677e-05,2.62504e-05
565,5.1536e-06,-1.43736e-06,2.22972e-05,4.99961e-05,-4.16233e-05,-3.77377e-05
566,-3.57022e-06,-3.66068e-06,2.26447e-05,5.46363e-05,-5.51975e-05,-7.37844e-05
567,-1.8927e-05,-4.57734e-06,1.66935e-05,5.62112e-05,-5.49184e-05,-0.000111185
568,-2.39549e-05,-3.53026e-06,7.93545e-06,5.49024e-05,-4.2796e-05,-0.000163539
569,-1.35642e-05,-1.4351e-06,1.7998e-06,4.96737e-05,-2.6407e-05,-0.000213215
570,-8.31413e-07,1.80956e-06,4.03818e-06,4.22301e-05,-1.17398e-05,-0.000229984
571,3.77826e-06,6.28601e-06,9.48345e-06,3.76612e-05,-5.1368e-07,-0.000196348
572,-7.68745e-06,1.14673e-05,9.25696e-06,3.53292e-05,7.49411e-06,-0.000127759
573,-2.94146e-05,1.56185e-05,7.04916e-06,3.20026e-05,1.31129e-05,-5.6433e-05
574,-3.22251e-05,1.84288e-05,6.41178e-06,2.50901e-05,1.59318e-05,-3.62104e-07
575,-1.65568e-05,2.00199e-05,5.33786e-06,1.68977e-05,1.09688e-05,3.97216e-05
576,-6.09862e-06,1.98484e-05,7.63171e-06,1.34935e-05,-2.35071e-06,6.27245e-05
577,1.82794e-06,2.29765e-05,1.37046e-05,1.77718e-05,-1.25769e-05,7.32396e-05
578,9.78459e-06,3.29763e-05,1.75552e-05,2.76508e-05,-1.07055e-05,7.27864e-05
579,1.17013e-05,4.27262e-05,1.8136e-05,4.01527e-05,-1.05569e-06,5.16306e-05
580,5.45695e-06,4.63362e-05,1.91668e-05,5.12938e-05,5.92761e-06,7.08018e-06
581,-1.50866e-05,4.38808e-05,2.13961e-05,6.05993e-05,3.26917e-06,-4.40099e-05
582,-3.62271e-05,4.02225e-05,2.32611e-05,6.87414e-05,-7.30202e-06,-6.56281e-05
583,-3.46334e-05,4.21823e-05,2.38856e-05,7.34667e-05,-1.81302e-05,-3.73826e-05
584,-1.34471e-05,4.65346e-05,2.47912e-05,7.32655e-05,-2.34994e-05,1.55985e-05
585,4.10957e-06,4.83221e-05,2.82976e-05,6.84266e-05,-2.24837e-05,4.14956e-05
586,6.31082e-06,4.70863e-05,3.15547e-05,6.41292e-05,-1.84241e-05,1.81352e-05
587,-2.3483e-06,4.28669e-05,3.23343e-05,6.3853e-05,-1.401e-05,-2.93213e-05
588,-6.30018e-06,3.61259e-05,3.34548e-05,6.46347e-05,-9.82734e-06,-6.32328e-05
589,6.59285e-06,2.99385e-05,3.54335e-05,6.26069e-05,-8.28466e-06,-6.77023e-05
590,2.6081e-05,2.60248e-05,3.46618e-05,5.73527e-05,-1.02729e-05,-5.5617e-05
591,3.26342e-05,2.34776e-05,3.29753e-05,5.1237e-05,-1.21507e-05,-5.35646e-05
592,2.1059e-05,2.24857e-05,3.40933e-05,4.70991e-05,-9.35568e-06,-6.88535e-05
593,-2.78204e-06,2.25741e-05,3.63469e-05,4.59752e-05,-4.94259e-06,-7.69152e-05
594,-2.23529e-05,2.07163e-05,3.88556e-05,4.61701e-05,-4.52877e-06,-5.67578e-05
595,-1.62697e-05,1.55133e-05,4.31936e-05,4.71797e-05,-6.55461e-06,-1.93387e-05
596,6.89711e-06,1.11837e-05,4.71793e-05,4.96412e-05,-7.20041e-06,1.1468e-05
597,1.92097e-05,1.15242e-05,4.90641e-05,5.24903e-05,-6.19358e-06,2.73774e-05
598,1.26762e-05,1.44291e-05,4.81881e-05,5.5384e-05,-4.68501e-06,3.68799e-05
599,-4.61318e-06,1.47828e-05,4.7238e-05,5.93085e-05,-2.60679e-06,4.72101e-05
600,-1.76434e-05,1.2179e-05,4.98572e-05,6.34448e-05,-7.53998e-07,5.42074e-05
601,-1.97968e-06,8.74731e-06,5.0537e-05,6.65818e-05,9.22783e-07,5.5548e-05
602,3.00247e-05,6.47313e-06,4.77644e-05,6.87149e-05,3.51963e-06,5.31217e-05
603,4.04287e-05,7.86582e-06,4.70046e-05,6.6958e-05,6.73427e-06,4.96794e-05
604,3.37217e-05,1.17875e-05,4.94584e-05,6.20584e-05,7.83669e-06,4.80825e-05
605,2.4941e-05,1.24497e-05,5.43554e-05,5.62637e-05,5.89904e-06,4.57758e-05
606,1.11286e-05,1.00589e-05,5.78777e-05,5.16657e-05,2.64181e-06,3.67175e-05
607,-9.86613e-06,7.88253e-06,5.46555e-05,5.22607e-05,4.79237e-07,2.50653e-05
608,-3.749e-05,5.07423e-06,4.75385e-05,5.52112e-05,1.3571e-06,2.10797e-05
609,-5.16611e-05,2.99703e-06,4.11286e-05,5.69948e-05,3.17471e-06,2.59689e-05
610,-3.54666e-05,5.12879e-06,3.79078e-05,5.79156e-05,3.05982e-06,3.56727e-05
611,-7.27219e-06,9.25775e-06,3.59475e-05,5.66012e-05,-8.02602e-08,4.24364e-05
612,5.11039e-06,1.06252e-05,3.3559e-05,5.38427e-05,-5.71589e-06,3.69428e-05
613,-3.8618e-06,1.06725e-05,3.16903e-05,5.33003e-05,-9.81488e-06,2.70541e-05
614,-2.61383e-05,1.13887e-05,3.04542e-05,5.47783e-05,-9.89904e-06,2.8683e-05
615,-4.37723e-05,1.08594e-05,2.91085e-05,5.78881e-05,-8.37138e-06,4.33568e-05
616,-3.9852e-05,8.64919e-06,2.58538e-05,6.41233e-05,-7.82659e-06,6.53132e-05
617,-2.22918e-05,6.57657e-06,2.38721e-05,7.27942e-05,-6.63222e-06,9.09304e-05
618,-1.01984e-05,5.56603e-06,2.75474e-05,8.14485e-05,-1.48504e-06,0.000111693
619,-1.06742e-05,5.78221e-06,3.44825e-05,8.65367e-05,6.81215e-06,0.000119608
620,-2.39078e-05,7.59537e-06,3.78144e-05,8.37627e-05,1.18497e-05,0.000125459
621,-4.1216e-05,8.80272e-06,3.51985e-05,7.35754e-05,7.08073e-06,0.000144689
622,-4.29142e-05,7.24574e-06,3.03408e-05,6.31167e-05,-6.82276e-06,0.000168019
623,-3.03739e-05,3.71152e-06,2.84616e-05,5.6779e-05,-2.39356e-05,0.000173986
624,-2.73023e-05,1.5095e-06,2.96463e-05,5.3992e-05,-3.72088e-05,0.000163727
625,-4.06224e-05,4.37128e-06,2.78191e-05,5.32731e-05,-4.02432e-05,0.000164921
626,-6.059e-05,8.68032e-06,1.99056e-05,5.2253e-05,-3.17124e-05,0.00018956
627,-7.49102e-05,8.34552e-06,1.46604e-05,4.93225e-05,-1.64395e-05,0.000194082
628,-5.91357e-05,3.88932e-06,1.9762e-05,4.66364e-05,-4.46221e-06,0.000140421
629,-2.17418e-05,-4.41737e-08,2.42171e-05,4.84478e-05,-2.45888e-06,5.19044e-05
630,-2.36105e-07,1.60704e-06,1.96346e-05,5.58284e-05,-9.16868e-06,-2.47422e-05
631,8.64315e-06,6.7859e-06,1.34949e-05,6.41489e-05,-2.18565e-05,-8.27052e-05
632,1.78465e-05,1.03151e-05,5.07399e-06,6.79509e-05,-3.58762e-05,-0.000125314
633,2.6094e-05,1.32044e-05,-5.82504e-06,6.47377e-05,-4.42349e-05,-0.000112263
634,2.72039e-05,1.51397e-05,-1.08756e-05,5.68105e-05,-3.88115e-05,-2.40696e-05
635,1.23117e-05,1.27493e-05,-8.65464e-06,5.23164e-05,-2.02646e-05,7.45456e-05
636,-2.16408e-06,7.88281e-06,-4.71591e-06,5.76255e-05,6.45287e-07,9.46924e-05
637,3.76008e-06,6.20573e-06,-1.86347e-06,6.7096e-05,1.47805e-05,3.02624e-05
638,2.01003e-05,8.87421e-06,1.35111e-06,6.99125e-05,2.15438e-05,-4.96544e-05
639,2.86776e-05,1.39054e-05,6.07087e-06,6.38106e-05,2.4599e-05,-8.75314e-05
640,2.45086e-05,1.69271e-05,1.31605e-05,5.23307e-05,2.41939e-05,-8.026e-05
641,6.28673e-06,1.59234e-05,1.94405e-05,3.95682e-05,1.94496e-05,-6.29605e-05
642,-1.36184e-05,1.38977e-05,2.46733e-05,2.62478e-05,7.95708e-06,-7.56349e-05
643,-1.69573e-05,1.4577e-05,3.12371e-05,1.08755e-05,-9.78922e-06,-0.000117567
644,-5.42639e-06,1.69026e-05,3.82072e-05,-3.67291e-06,-2.82648e-05,-0.000151045
645,2.60611e-06,1.6872e-05,4.3885e-05,-1.28257e-05,-4.28863e-05,-0.00015182
646,-4.38485e-06,1.33136e-05,4.95359e-05,-1.62698e-05,-4.70264e-05,-0.000131048
647,-2.42537e-05,8.02002e-06,5.46503e-05,-1.46195e-05,-3.29848e-05,-0.000111923
648,-4.02372e-05,4.32372e-06,5.89939e-05,-8.14121e-06,-7.22152e-06,-0.000104281
649,-3.08601e-05,4.69005e-06,6.38103e-05,1.26514e-06,1.14022e-05,-0.000106994
650,-3.30816e-06,8.56987e-06,6.76754e-05,1.04527e-05,1.18925e-05,-0.00011535
651,1.35991e-05,1.31799e-05,7.09757e-05,1.82326e-05,1.89925e-07,-0.000125825
652,8.60779e-06,1.54785e-05,7.13633e-05,2.62594e-05,-7.87756e-06,-0.000130989
653,-1.15356e-05,1.38388e-05,6.41066e-05,3.71306e-05,-6.42729e-06,-0.000123084
654,-3.13653e-05,1.06728e-05,5.47904e-05,5.28631e-05,-3.6175e-06,-9.6936e-05
655,-2.45681e-05,9.05023e-06,4.68907e-05,6.64115e-05,-1.08849e-05,-5.37505e-05
656,2.5749e-06,1.00065e-05,3.66945e-05,7.04188e-05,-3.37881e-05,-7.80484e-06
657,1.71394e-05,1.21695e-05,2.80714e-05,6.81864e-05,-5.68281e-05,2.08034e-05
658,2.12448e-05,1.21566e-05,2.62778e-05,6.33597e-05,-5.77163e-05,2.92047e-05
659,2.95624e-05,8.59555e-06,3.18817e-05,5.85758e-05,-3.26955e-05,2.89874e-05
660,3.8576e-05,5.76224e-06,3.56872e-05,5.68771e-05,8.78396e-06,3.56972e-05
661,3.57957e-05,8.35672e-06,3.26878e-05,5.63468e-05,4.59436e-05,4.51714e-05
662,1.30738e-05,1.35214e-05,2.69136e-05,5.31907e-05,6.01572e-05,4.00981e-05
663,-6.81372e-06,1.5982e-05,2.23941e-05,4.54564e-05,5.86611e-05,2.23211e-05
664,-1.84519e-06,1.81739e-05,1.93992e-05,3.76091e-05,5.71671e-05,4.03867e-06
665,1.35463e-05,2.20447e-05,1.62409e-05,3.65046e-05,5.43137e-05,-9.57097e-06
666,1.59385e-05,2.65588e-05,1.55587e-05,4.05678e-05,4.15934e-05,-1.84379e-05
667,3.81092e-06,2.7759e-05,1.65618e-05,4.39247e-05,2.11622e-05,-1.98321e-05
668,-1.45256e-05,2.18541e-05,1.62307e-05,4.48002e-05,3.26833e-06,-1.17626e-05
669,-2.39351e-05,1.22103e-05,1.42116e-05,4.67613e-05,-8.79252e-06,4.65817e-06
670,-1.35617e-05,5.90152e-06,1.3271e-05,5.1131e-05,-1.79465e-05,2.51476e-05
671,5.79073e-06,5.10371e-06,1.48541e-05,5.63536e-05,-2.16448e-05,4.44563e-05
672,1.44494e-05,6.14699e-06,1.77161e-05,6.13542e-05,-1.75009e-05,5.96627e-05
673,7.1426e-06,7.73168e-06,1.97909e-05,6.42026e-05,-1.27271e-05,7.51727e-05
674,-9.88391e-06,1.02479e-05,1.9956e-05,6.43855e-05,-1.47411e-05,9.54021e-05
675,-2.30386e-05,1.24247e-05,1.83312e-05,6.34349e-05,-2.08717e-05,0.000117044
676,-1.3098e-05,1.30709e-05,1.39245e-05,6.19895e-05,-2.58533e-05,0.00014131
677,1.36623e-05,1.25939e-05,7.45823e-06,5.89477e-05,-3.09071e-05,0.000176303
678,2.89815e-05,8.68439e-06,3.72001e-06,5.55806e-05,-4.08363e-05,0.000207658
679,2.13867e-05,-6.31324e-07,4.50774e-06,5.58356e-05,-5.38063e-05,0.000209216
680,-2.42266e-06,-1.0468e-05,5.20946e-06,6.05677e-05,-5.94771e-05,0.000182623
681,-2.81105e-05,-1.53536e-05,1.59814e-06,6.31248e-05,-5.33523e-05,0.000143898
682,-2.60602e-05,-1.62857e-05,-2.45313e-06,5.9827e-05,-3.86355e-05,9.52956e-05
683,-7.12192e-07,-1.60706e-05,6.24278e-07,5.62038e-05,-1.96519e-05,2.88877e-05
684,8.97658e-06,-1.28806e-05,7.67503e-06,5.70348e-05,-4.43526e-06,-4.09062e-05
685,1.62359e-07,-4.83827e-06,1.19037e-05,6.07589e-05,6.65194e-07,-7.75046e-05
686,-8.86179e-06,1.80033e-06,1.20935e-05,6.41068e-05,-1.26805e-06,-7.32158e-05
687,-1.22773e-05,5.36861e-06,1.00047e-05,6.52218e-05,-4.53319e-06,-5.723e-05
688,-1.50443e-05,9.29224e-06,8.28732e-06,6.36876e-05,-8.00907e-06,-5.20267e-05
689,-2.75633e-05,1.22054e-05,8.47551e-06,6.16816e-05,-9.71753e-06,-5.39888e-05
690,-3.60923e-05,1.1248e-05,7.86825e-06,6.18058e-05,-1.20415e-05,-4.6393e-05
691,-2.28112e-05,8.94163e-06,5.0339e-06,6.64926e-05,-1.67762e-05,-2.07321e-05
692,6.11974e-07,9.11469e-06,6.24813e-06,7.31418e-05,-1.64616e-05,1.46961e-05
693,1.13009e-05,1.0209e-05,1.24161e-05,7.66418e-05,-9.13924e-06,4.43717e-05
694,2.30785e-06,1.15973e-05,1.69069e-05,7.61797e-05,-5.36338e-06,5.64267e-05
695,-1.8676e-05,1.34456e-05,1.8691e-05,7.28299e-05,-1.14454e-05,5.22318e-05
696,-3.132e-05,1.5535e-05,2.12416e-05,6.72216e-05,-2.15816e-05,4.08897e-05
697,-1.94282e-05,1.79042e-05,2.6585e-05,6.1634e-05,-2.73216e-05,3.14249e-05
698,5.55398e-06,1.96242e-05,3.40124e-05,5.77364e-05,-2.37602e-05,2.56478e-05
699,1.98121e-05,1.96961e-05,4.12201e-05,5.49089e-05,-1.07408e-05,2.06031e-05
700,1.35859e-05,1.8689e-05,4.66874e-05,5.28029e-05,9.55415e-06,1.17975e-05
701,-7.02033e-06,1.6225e-05,5.06355e-05,5.16316e-05,3.32196e-05,-5.35098e-06
702,-2.33151e-05,1.17912e-05,5.45333e-05,4.99325e-05,5.15851e-05,-2.81177e-05
703,-1.57747e-05,9.03405e-06,5.79408e-05,4.47536e-05,5.43957e-05,-3.8577e-05
704,6.57079e-06,1.05713e-05,5.86163e-05,3.78245e-05,4.16185e-05,-2.00866e-05
705,2.00162e-05,1.38207e-05,5.70617e-05,3.35586e-05,2.08918e-05,1.23448e-05
706,1.93624e-05,1.66713e-05,5.42328e-05,3.31526e-05,1.34861e-06,3.06544e-05
707,7.10639e-06,1.83978e-05,5.28536e-05,3.54904e-05,-1.0738e-05,2.65493e-05
708,-9.44291e-06,1.68769e-05,5.30811e-05,3.72825e-05,-2.10738e-05,8.91922e-06
709,-3.83228e-06,1.17716e-05,4.80002e-05,3.60662e-05,-3.78041e-05,-6.41983e-06
710,2.07515e-05,7.00552e-06,3.72102e-05,3.19915e-05,-5.78698e-05,-8.38503e-06
711,3.16755e-05,4.62726e-06,2.62302e-05,2.84996e-05,-6.722e-05,-9.36121e-07
712,3.17444e-05,3.40175e-06,1.99274e-05,3.10095e-05,-5.75697e-05,9.51147e-06
713,3.48143e-05,4.11535e-06,1.74861e-05,3.7105e-05,-3.9813e-05,1.87774e-05
714,3.29818e-05,8.08732e-06,1.50521e-05,4.16286e-05,-3.1885e-05,2.36256e-05
715,1.55516e-05,1.29463e-05,1.22537e-05,4.36447e-05,-3.59326e-05,2.48564e-05
716,-1.63356e-05,1.51399e-05,1.03285e-05,4.58778e-05,-3.77506e-05,2.58236e-05
717,-3.81232e-05,1.3697e-05,6.95839e-06,4.84865e-05,-3.14543e-05,2.89247e-05
718,-3.21052e-05,1.10851e-05,3.52092e-07,4.80342e-05,-2.13939e-05,3.31776e-05
719,-1.35899e-05,1.09718e-05,-1.86754e-06,4.48473e-05,-1.24085e-05,3.5129e-05
720,-4.08154e-06,1.47502e-05,1.77031e-06,4.32487e-05,-5.27676e-06,3.09065e-05
721,-7.39882e-06,1.88731e-05,3.86337e-06,4.4906e-05,-3.69408e-06,1.4237e-05
722,-2.13973e-05,1.88938e-05,1.67545e-06,4.61643e-05,-1.17945e-05,-8.42229e-06
723,-3.41284e-05,1.7547e-05,-2.10729e-06,4.5575e-05,-2.35712e-05,-1.86615e-05
724,-2.93331e-05,2.04265e-05,-3.27322e-06,4.55075e-05,-2.81937e-05,-9.18085e-06
725,-1.12716e-05,2.69266e-05,-9.21354e-07,4.74692e-05,-2.0964e-05,1.09928e-05
726,-1.5526e-07,3.19964e-05,3.54292e-06,5.01284e-05,-8.54079e-06,3.10575e-05
727,-5.59374e-06,3.40719e-05,1.06005e-05,5.24714e-05,-3.77225e-06,4.58821e-05
728,-2.36676e-05,3.40142e-05,2.01958e-05,5.47282e-05,-1.17112e-05,5.02832e-05
729,-4.05138e-05,3.11054e-05,2.61847e-05,5.54936e-05,-1.9921e-05,4.15814e-05
730,-3.76807e-05,2.7107e-05,2.45751e-05,5.31076e-05,-1.56071e-05,2.64621e-05
731,-1.87054e-05,2.51859e-05,2.3601e-05,4.8646e-05,-4.00059e-07,1.66984e-05
732,-7.29436e-06,2.5931e-05,2.90512e-05,4.512e-05,1.45604e-05,1.53788e-05
733,-1.4568e-05,2.89503e-05,3.56978e-05,4.58601e-05,1.92282e-05,1.62751e-05
734,-3.47398e-05,3.2186e-05,4.17067e-05,5.17971e-05,1.31813e-05,1.66366e-05
735,-5.11622e-05,3.1825e-05,4.89336e-05,5.78065e-05,5.43679e-06,1.89545e-05
736,-3.67408e-05,2.63053e-05,5.87084e-05,5.92206e-05,6.12093e-06,2.12911e-05
737,-4.4585e-06,1.72488e-05,6.81197e-05,5.85556e-05,1.72797e-05,2.08195e-05
738,5.92184e-06,1.07649e-05,7.35838e-05,5.83087e-05,2.86509e-05,1.80709e-05
739,-7.60969e-07,1.1363e-05,7.81115e-05,5.92424e-05,3.3549e-05,1.55843e-05
740,-3.22517e-06,1.25669e-05,7.7805e-05,6.03816e-05,3.8715e-05,1.29505e-05
741,-8.20214e-07,8.45638e-06,6.8757e-05,6.05605e-05,4.92212e-05,1.10694e-05
742,-2.80204e-06,1.82424e-06,5.38533e-05,6.20915e-05,6.02954e-05,1.10604e-05
743,-1.75901e-05,-4.24273e-06,4.02372e-05,6.45018e-05,6.51223e-05,1.30259e-05
744,-2.91468e-05,-1.02023e-05,3.39417e-05,6.50712e-05,4.77343e-05,1.69337e-05
745,-1.94723e-05,-1.61725e-05,3.06402e-05,6.52772e-05,-8.26652e-07,2.04211e-05
746,1.35479e-06,-1.98719e-05,2.83342e-05,6.68401e-05,-5.80961e-05,2.40237e-05
747,1.26144e-05,-1.84574e-05,3.03094e-05,6.91897e-05,-8.91698e-05,3.2033e-05
748,7.31262e-06,-1.30774e-05,3.69077e-05,7.04848e-05,-7.93824e-05,4.3458e-05
749,-1.27666e-05,-6.95031e-06,4.25273e-05,6.83532e-05,-4.64587e-05,4.8981e-05
750,-3.18094e-05,-1.6625e-06,4.2467e-05,6.33987e-05,-2.65333e-05,4.51594e-05
751,-3.24998e-05,3.2258e-06,3.77566e-05,5.78976e-05,-4.01742e-05,3.31775e-05
752,-2.15651e-05,7.98061e-06,3.22996e-05,5.28967e-05,-7.01608e-05,1.4952e-05
753,-1.60161e-05,1.19212e-05,2.94938e-05,4.93136e-05,-8.79609e-05,-2.60079e-06
754,-2.06816e-05,1.49571e-05,2.99103e-05,4.60996e-05,-8.33451e-05,-1.30762e-05
755,-3.42877e-05,1.67049e-05,3.16323e-05,4.05895e-05,-5.95645e-05,-1.80463e-05
756,-4.77933e-05,1.7889e-05,3.18763e-05,3.45706e-05,-2.20866e-05,-1.9895e-05
757,-4.03051e-05,2.18414e-05,2.9592e-05,3.15014e-05,1.03142e-05,-1.76745e-05
758,-1.41941e-05,2.99033e-05,2.71836e-05,3.05126e-05,1.35047e-05,-1.31122e-05
759,4.50144e-06,4.10398e-05,2.61648e-05,2.93974e-05,-9.55202e-06,-9.00576e-06
760,3.43702e-06,5.278e-05,2.60702e-05,2.92232e-05,-3.25295e-05,-3.86477e-06
761,-1.21869e-05,5.79593e-05,2.80584e-05,3.14514e-05,-3.63795e-05,9.0041e-06
762,-2.96864e-05,5.27734e-05,3.04323e-05,3.63061e-05,-2.07211e-05,2.773e-05
763,-2.64837e-05,4.19312e-05,3.00048e-05,4.48195e-05,-2.12113e-06,4.09453e-05
764,-7.1637e-06,3.08911e-05,2.79213e-05,5.65263e-05,1.02238e-06,4.51672e-05
765,9.11284e-07,1.98747e-05,2.58555e-05,6.71848e-05,-1.16403e-05,4.56464e-05
766,3.7303e-07,7.21501e-06,2.42099e-05,7.35239e-05,-2.27095e-05,4.62847e-05
767,1.99791e-06,-4.11107e-06,2.65853e-05,7.42021e-05,-2.09968e-05,3.95925e-05
768,3.28651e-06,-8.06735e-06,3.38548e-05,6.90692e-05,-8.15365e-06,1.70999e-05
769,5.44639e-07,-8.2358e-06,3.95654e-05,6.53866e-05,6.13442e-06,-1.24222e-05
770,-1.40856e-05,-1.03929e-05,3.7175e-05,6.85948e-05,1.18549e-05,-3.03704e-05
771,-2.43759e-05,-1.32696e-05,3.08279e-05,7.252e-05,1.08148e-05,-2.4947e-05
772,-7.67846e-06,-1.3216e-05,2.80505e-05,6.92487e-05,4.39995e-06,-4.73686e-06
773,2.17579e-05,-1.28251e-05,3.20176e-05,5.81129e-05,-8.21973e-06,1.36281e-05
774,3.59815e-05,-1.62985e-05,4.29673e-05,4.65354e-05,-2.13086e-05,3.03821e-05
775,2.5639e-05,-2.02756e-05,5.39586e-05,4.10547e-05,-2.69543e-05,6.03649e-05
776,-2.05732e-06,-2.04092e-05,5.55785e-05,3.9243e-05,-2.49824e-05,0.000102149
777,-2.43321e-05,-1.5045e-05,4.80262e-05,3.47475e-05,-1.86791e-05,0.000130106
778,-2.19315e-05,-8.43287e-06,3.90307e-05,2.8051e-05,-1.04186e-05,0.000126075
779,-5.35491e-06,-4.79076e-06,3.39459e-05,2.50836e-05,-2.93692e-06,9.57132e-05
780,2.11023e-06,-3.44714e-06,3.40901e-05,2.88016e-05,2.31382e-06,6.10744e-05
781,-4.91447e-06,-1.32747e-06,3.55977e-05,3.53044e-05,3.87984e-06,4.41531e-05
782,-2.05525e-05,2.36736e-06,3.28886e-05,3.86545e-05,2.1339e-06,5.09855e-05
783,-3.47044e-05,5.85254e-06,2.58289e-05,3.80156e-05,1.35509e-06,6.40969e-05
784,-3.04567e-05,8.38942e-06,1.95875e-05,3.41632e-05,2.8115e-06,5.47807e-05
785,-1.09796e-05,1.18199e-05,1.71018e-05,2.86559e-05,3.02461e-06,1.12454e-05
786,2.90935e-06,1.67989e-05,1.84881e-05,2.6484e-05,1.65758e-06,-4.64028e-05
787,2.39434e-06,2.0827e-05,2.20265e-05,2.92383e-05,1.24865e-06,-8.70155e-05
788,-1.64196e-05,2.21614e-05,2.47777e-05,3.37985e-05,3.07261e-06,-9.82692e-05
789,-4.49408e-05,2.12529e-05,2.64679e-05,3.9214e-05,9.19671e-06,-9.7353e-05
790,-4.65464e-05,1.77064e-05,2.59399e-05,4.70785e-05,1.81617e-05,-0.000102082
791,-1.99037e-05,1.08923e-05,2.10544e-05,5.5643e-05,1.77776e-05,-0.000103459
792,-1.45195e-07,7.11166e-06,1.1993e-05,5.91192e-05,3.42781e-06,-9.27313e-05
793,4.92093e-06,8.69851e-06,1.12491e-06,5.95398e-05,-1.12834e-05,-7.1906e-05
794,2.57511e-06,1.00225e-05,-1.99677e-06,6.1306e-05,-1.74791e-05,-5.12984e-05
795,-9.85236e-07,1.0881e-05,2.62266e-06,6.19142e-05,-1.78105e-05,-4.03756e-05
796,-4.56136e-06,1.12745e-05,3.81207e-06,5.98307e-05,-1.73799e-05,-2.20291e-05
797,-1.55966e-05,8.29784e-06,1.71754e-06,5.43361e-05,-1.67391e-05,3.36464e-05
798,-2.18468e-05,4.20018e-06,8.11537e-07,4.86938e-05,-1.23499e-05,0.000116303
799,-2.59296e-06,2.99264e-06,3.17382e-08,4.72935e-05,-7.47302e-06,0.000174567
800,3.01453e-05,2.57829e-06,1.24149e-06,4.89467e-05,-6.29995e-06,0.000179515
801,4.86397e-05,2.25456e-06,1.03703e-05,5.03425e-05,-7.72037e-06,0.000138654
802,4.51733e-05,5.13037e-06,2.16689e-05,4.86366e-05,-8.04062e-06,6.92388e-05
803,2.63953e-05,9.32916e-06,2.56735e-05,4.51939e-05,-5.7436e-06,-1.07171e-05
804,1.16216e-05,1.07688e-05,2.404e-05,4.3072e-05,-3.52584e-06,-7.28231e-05
805,1.52433e-05,1.0008e-05,2.2637e-05,4.37908e-05,-6.46115e-06,-9.93533e-05
806,2.57831e-05,1.02323e-05,2.4002e-05,4.57152e-05,-1.38755e-05,-0.000105491
807,2.49667e-05,1.22498e-05,2.82478e-05,4.81866e-05,-1.75488e-05,-0.00011108
808,1.21387e-05,1.41458e-05,3.36229e-05,5.11308e-05,-1.18088e-05,-0.000113303
809,-6.17819e-06,1.2722e-05,3.56207e-05,5.19104e-05,1.35122e-06,-0.000101399
810,-2.01167e-05,7.14172e-06,3.28525e-05,4.85495e-05,1.48651e-05,-7.51688e-05
811,-1.53129e-05,3.30081e-06,2.95858e-05,4.21516e-05,2.09907e-05,-3.8878e-05
812,3.75474e-07,6.3886e-06,2.87638e-05,3.6338e-05,1.11523e-05,-1.6396e-06
813,6.355e-06,1.07749e-05,2.7919e-05,3.4403e-05,-1.43328e-05,2.82892e-05
814,7.39974e-07,1.08925e-05,2.62384e-05,3.72825e-05,-3.84038e-05,5.19051e-05
815,-1.18799e-05,1.01154e-05,2.40268e-05,4.24467e-05,-4.21217e-05,6.50519e-05
816,-2.57138e-05,1.14806e-05,2.13393e-05,4.90118e-05,-1.9835e-05,5.51348e-05
817,-2.08764e-05,1.14826e-05,1.93275e-05,5.68669e-05,1.63884e-05,3.00781e-05
818,-2.85968e-06,8.69421e-06,1.81573e-05,6.33861e-05,3.66539e-05,1.11686e-05
819,2.17939e-07,6.89642e-06,1.88925e-05,6.8098e-05,2.51002e-05,4.75979e-06
820,-8.35817e-06,7.10413e-06,2.13485e-05,7.22847e-05,2.01609e-06,7.3691e-06
821,-1.97114e-05,7.00194e-06,2.17067e-05,7.3168e-05,-1.10499e-05,1.52057e-05
822,-3.48957e-05,5.26545e-06,1.66977e-05,6.80583e-05,-1.43445e-05,2.66575e-05
823,-4.94196e-05,3.2559e-06,1.12738e-05,6.10803e-05,-1.98456e-05,4.06356e-05
824,-6.38247e-05,4.3294e-06,1.06266e-05,5.72448e-05,-3.25775e-05,5.00862e-05
825,-6.64294e-05,8.00592e-06,1.25446e-05,5.67056e-05,-4.49812e-05,4.93647e-05
826,-4.73935e-05,1.23902e-05,1.37278e-05,5.36858e-05,-5.52583e-05,4.27286e-05
827,-2.47554e-05,1.61566e-05,1.63336e-05,4.51796e-05,-6.65611e-05,3.53982e-05
828,-1.70709e-05,1.72157e-05,2.49176e-05,3.88407e-05,-7.46872e-05,2.98029e-05
829,-2.15458e-05,1.71167e-05,3.53219e-05,4.03216e-05,-7.31462e-05,2.7011e-05
830,-3.04983e-05,1.75122e-05,4.24203e-05,4.31516e-05,-6.45723e-05,2.61192e-05
831,-2.83846e-05,1.88967e-05,4.95345e-05,4.08606e-05,-5.45334e-05,2.64807e-05
832,-3.62483e-06,2.04713e-05,5.96881e-05,3.76877e-05,-4.44614e-05,2.84285e-05
833,3.05921e-05,2.08087e-05,6.8113e-05,3.83604e-05,-3.36612e-05,3.16277e-05
834,5.26874e-05,2.07161e-05,6.85036e-05,4.17899e-05,-2.39888e-05,3.43881e-05
835,5.48237e-05,2.23242e-05,5.92336e-05,4.56518e-05,-1.83019e-05,3.52086e-05
836,4.05713e-05,2.51359e-05,4.46572e-05,4.93016e-05,-1.73848e-05,3.44373e-05
837,2.68425e-05,2.6351e-05,3.2744e-05,5.28526e-05,-2.05813e-05,3.38695e-05
838,3.81082e-05,2.72108e-05,2.55817e-05,5.72069e-05,-2.7103e-05,3.34878e-05
839,6.81136e-05,3.03535e-05,1.83717e-05,6.01357e-05,-3.62811e-05,3.07881e-05
840,8.67353e-05,3.34716e-05,8.73276e-06,6.07189e-05,-4.18613e-05,2.66155e-05
841,8.14269e-05,3.21794e-05,1.93389e-07,6.13542e-05,-3.82535e-05,2.54264e-05
842,5.29226e-05,2.67658e-05,-4.64977e-06,5.99247e-05,-3.07684e-05,2.7478e-05
843,1.25243e-05,2.13424e-05,-3.32099e-06,5.45868e-05,-2.89452e-05,2.87946e-05
844,-4.03696e-06,1.83282e-05,5.08343e-06,4.68887e-05,-3.32727e-05,2.60356e-05
845,7.11555e-06,1.84741e-05,1.40004e-05,4.044e-05,-3.4422e-05,1.96567e-05
846,1.27904e-05,2.02088e-05,1.81065e-05,3.96769e-05,-2.33373e-05,1.59143e-05
847,8.52666e-06,2.10931e-05,2.28278e-05,4.38255e-05,-4.26222e-06,1.88967e-05
848,4.39588e-06,2.20395e-05,2.83535e-05,4.76338e-05,1.23535e-05,3.71387e-05
849,4.31683e-07,2.30282e-05,2.39022e-05,4.67883e-05,2.20684e-05,8.75997e-05
850,-8.0983e-06,2.26567e-05,1.16444e-05,4.46227e-05,2.63616e-05,0.000157863
851,-2.58967e-05,2.02685e-05,3.87798e-07,4.59499e-05,2.90661e-05,0.000203712
852,-3.41861e-05,1.65634e-05,-5.64049e-06,5.02506e-05,3.28195e-05,0.000202746
853,-1.61984e-05,1.54061e-05,-8.77677e-06,5.6384e-05,3.83829e-05,0.000166841
854,1.00496e-05,1.80289e-05,-1.00907e-05,6.05211e-05,4.59152e-05,0.000106647
855,1.95923e-05,2.22954e-05,-6.75273e-06,5.94641e-05,5.54197e-05,2.3901e-05
856,8.31648e-06,2.50546e-05,-2.12776e-06,5.44912e-05,5.94294e-05,-6.34442e-05
857,-1.46594e-05,2.28259e-05,1.09982e-06,5.01226e-05,4.30998e-05,-0.000121173
858,-2.99112e-05,1.54207e-05,4.65518e-06,4.65767e-05,5.13815e-06,-0.000134139
859,-2.21258e-05,8.71691e-06,1.15172e-05,4.14806e-05,-3.41911e-05,-0.000120422
860,-2.74966e-06,8.61099e-06,2.04761e-05,3.5877e-05,-5.04918e-05,-0.000102534
861,4.6629e-06,1.38421e-05,2.71771e-05,3.42133e-05,-3.8785e-05,-8.85963e-05
862,-7.09843e-06,2.11224e-05,2.75765e-05,3.77901e-05,-1.54773e-05,-7.69179e-05
863,-2.88511e-05,2.84407e-05,2.39353e-05,4.3423e-05,-2.71059e-06,-6.12421e-05
864,-4.11642e-05,3.1909e-05,2.22579e-05,5.14557e-05,-1.07651e-05,-3.55646e-05
865,-2.7961e-05,2.71886e-05,2.3745e-05,6.89424e-05,-3.07193e-05,-4.25542e-06
866,-2.92261e-06,1.74565e-05,2.64169e-05,9.54311e-05,-4.23937e-05,1.94208e-05
867,9.18761e-06,1.18395e-05,3.11556e-05,0.000111666,-3.13991e-05,2.68597e-05
868,4.14331e-06,1.30369e-05,3.50922e-05,0.000107789,1.58509e-07,1.90834e-05
869,-1.62345e-05,1.38024e-05,3.6287e-05,9.69735e-05,3.06906e-05,1.86879e-06
870,-4.33748e-05,9.21903e-06,3.90843e-05,8.98595e-05,2.99967e-05,-1.79293e-05
871,-4.47718e-05,4.09017e-06,4.42222e-05,8.53971e-05,-2.33318e-06,-2.89128e-05
872,-2.04422e-05,4.38517e-06,4.8673e-05,7.74895e-05,-3.17996e-05,-2.45554e-05
873,-6.22142e-06,8.73704e-06,4.71416e-05,6.36468e-05,-3.529e-05,-1.78096e-05
874,-4.42997e-06,1.13241e-05,4.35444e-05,5.23085e-05,-2.35756e-05,-5.86328e-07
875,-3.82769e-06,9.921e-06,4.17205e-05,4.55311e-05,-1.06245e-05,6.31848e-05
876,-6.08904e-06,7.14281e-06,3.76912e-05,3.66354e-05,-5.64795e-06,0.000156249
877,-1.62967e-05,3.67586e-06,3.04689e-05,2.65058e-05,-1.61569e-05,0.00021088
878,-3.76415e-05,-5.18046e-07,2.54782e-05,2.02265e-05,-3.56179e-05,0.000190403
879,-5.09561e-05,-3.0148e-06,2.69157e-05,1.87174e-05,-4.87752e-05,0.000108765
880,-3.86246e-05,-3.38648e-06,3.12349e-05,1.88574e-05,-5.10613e-05,3.58114e-06
881,-1.61727e-05,-3.28689e-06,3.85333e-05,1.90281e-05,-5.02619e-05,-7.70898e-05
882,-5.14633e-06,-3.50611e-06,4.84209e-05,2.07949e-05,-5.0458e-05,-0.000107113
883,-7.7937e-06,-3.15252e-06,5.84899e-05,2.37542e-05,-4.8763e-05,-0.000102662
884,-2.04416e-05,-3.622e-06,6.51888e-05,2.44727e-05,-3.48274e-05,-8.5373e-05
885,-3.04447e-05,-5.90383e-06,6.59916e-05,2.21884e-05,-5.64939e-06,-5.99416e-05
886,-2.39931e-05,-6.96642e-06,6.15124e-05,2.05795e-05,2.11329e-05,-3.59724e-05
887,-7.9414e-06,-4.2481e-06,5.46925e-05,2.22745e-05,2.27746e-05,-3.35804e-05
888,1.74253e-06,1.86833e-06,4.91931e-05,2.69394e-05,-5.4456e-06,-5.63822e-05
889,-1.99042e-06,1.05406e-05,4.52655e-05,3.18556e-05,-4.71486e-05,-8.01503e-05
890,-1.95258e-05,1.88446e-05,4.12412e-05,3.41519e-05,-7.66384e-05,-7.99244e-05
891,-3.75525e-05,2.2731e-05,3.66755e-05,3.50973e-05,-7.60649e-05,-6.06411e-05
892,-3.39754e-05,2.27693e-05,3.42404e-05,3.62718e-05,-5.05289e-05,-4.56979e-05
893,-1.26108e-05,2.09436e-05,3.60949e-05,3.62117e-05,-2.12519e-05,-4.40167e-05
894,1.80407e-06,1.90978e-05,4.08948e-05,3.81725e-05,-2.99061e-06,-4.3442e-05
895,-7.06071e-07,2.00698e-05,4.25072e-05,4.54298e-05,8.49406e-06,-3.02029e-05
896,-1.65366e-05,2.20957e-05,3.79084e-05,5.48127e-05,2.49672e-05,-3.63304e-06
897,-3.60567e-05,1.96899e-05,3.05608e-05,6.12279e-05,4.89865e-05,2.77753e-05
898,-3.65763e-05,1.38145e-05,2.52087e-05,6.1755e-05,6.72583e-05,5.32952e-05
899,-2.25301e-05,1.10665e-05,2.07623e-05,5.92269e-05,5.96966e-05,5.91644e-05
900,-1.62701e-05,1.19464e-05,1.67602e-05,5.69346e-05,2.88129e-05,4.88186e-05
901,-1.02014e-05,1.0198e-05,1.62529e-05,5.656e-05,1.79083e-06,4.34952e-05
902,9.25311e-08,5.48676e-06,1.89115e-05,5.8744e-05,-4.53859e-06,4.80996e-05
903,7.03107e-06,1.2235e-06,2.09867e-05,6.23868e-05,4.44199e-06,5.33039e-05
904,2.98543e-06,-1.60503e-06,2.20607e-05,6.51661e-05,1.44543e-05,5.23914e-05
905,-2.08396e-05,-3.00056e-06,2.30031e-05,6.64814e-05,2.15225e-05,4.40303e-05
906,-4.49114e-05,-3.02263e-06,2.29825e-05,6.79553e-05,2.72801e-05,3.13854e-05
907,-4.36703e-05,1.45719e-07,2.10534e-05,6.84494e-05,3.16009e-05,1.70707e-05
908,-3.01915e-05,5.24637e-06,1.94666e-05,6.71342e-05,3.8028e-05,6.8012e-06
909,-2.68563e-05,9.39872e-06,2.24594e-05,6.64529e-05,4.95189e-05,6.05607e-06
910,-3.32064e-05,1.20692e-05,2.58601e-05,6.83834e-05,6.1259e-05,1.2898e-05
911,-4.50463e-05,1.38791e-05,2.47866e-05,7.11938e-05,6.28391e-05,2.08759e-05
912,-5.46191e-05,1.4672e-05,2.05812e-05,7.25505e-05,4.86195e-05,2.58277e-05
913,-5.21559e-05,1.36005e-05,1.6571e-05,7.27381e-05,2.62169e-05,2.90935e-05
914,-4.17012e-05,1.03559e-05,1.49212e-05,7.27793e-05,9.89758e-06,3.19532e-05
915,-3.53115e-05,6.77276e-06,1.741e-05,7.22867e-05,1.87792e-06,3.36133e-05
916,-3.69362e-05,6.25181e-06,2.31131e-05,7.03148e-05,-5.11416e-06,3.39057e-05
917,-4.54619e-05,7.01413e-06,2.79702e-05,6.77228e-05,-1.31801e-05,3.44388e-05
918,-5.09384e-05,4.26104e-06,3.09164e-05,6.71797e-05,-1.99467e-05,3.71749e-05
919,-3.56318e-05,3.73056e-07,3.47622e-05,7.05037e-05,-2.45843e-05,4.16128e-05
920,-7.01833e-06,-7.15494e-09,3.81319e-05,7.45055e-05,-2.4275e-05,4.40115e-05
921,8.26463e-06,1.19583e-06,3.8356e-05,7.49758e-05,-1.51723e-05,4.91749e-05
922,2.11958e-06,1.38162e-06,3.79891e-05,7.29881e-05,-1.16577e-06,7.30386e-05
923,-1.80915e-05,-1.14425e-06,3.88123e-05,7.13289e-05,6.11994e-06,0.000114398
924,-3.83072e-05,-6.29181e-06,4.12053e-05,6.7896e-05,6.76071e-06,0.000142491
925,-2.72258e-05,-9.75711e-06,4.34595e-05,6.15293e-05,1.21474e-05,0.000137374
926,1.81723e-05,-7.57024e-06,4.37956e-05,5.77809e-05,2.64412e-05,0.000109863
927,6.00989e-05,-1.78559e-06,4.50764e-05,5.95632e-05,4.38446e-05,7.24425e-05
928,8.35527e-05,2.2787e-06,4.73397e-05,6.25521e-05,5.34578e-05,1.99344e-05
929,9.13287e-05,4.83433e-06,4.79219e-05,6.08756e-05,4.96623e-05,-3.94682e-05
930,8.86367e-05,1.05024e-05,4.43365e-05,5.34176e-05,4.19018e-05,-7.25173e-05
931,8.20529e-05,1.68594e-05,3.93811e-05,4.58497e-05,4.58507e-05,-7.14881e-05
932,6.75338e-05,1.75296e-05,3.75862e-05,4.45733e-05,6.22617e-05,-5.97915e-05
933,5.57913e-05,1.32899e-05,3.55775e-05,5.37799e-05,7.70405e-05,-5.50174e-05
934,6.10218e-05,8.99091e-06,2.82334e-05,7.13533e-05,7.99411e-05,-5.44016e-05
935,7.09287e-05,7.0988e-06,1.62606e-05,8.49404e-05,6.93117e-05,-4.92658e-05
936,6.97118e-05,8.15276e-06,6.88107e-06,8.45821e-05,4.383e-05,-3.4901e-05
937,5.59632e-05,1.2082e-05,-9.15707e-07,7.18141e-05,6.10041e-06,-1.76125e-05
938,2.98328e-05,1.53066e-05,-1.13745e-05,5.41898e-05,-3.00275e-05,-6.83751e-06
939,4.56219e-06,1.51119e-05,-2.11307e-05,3.66298e-05,-5.27361e-05,3.18998e-06
940,-4.47511e-07,1.43707e-05,-2.37635e-05,1.89733e-05,-6.36191e-05,2.17193e-05
941,9.46373e-06,1.53376e-05,-1.8348e-05,5.57125e-08,-6.77993e-05,4.35964e-05
942,8.78327e-06,1.47334e-05,-1.17111e-05,-1.80698e-05,-6.32688e-05,5.52242e-05
943,-1.14753e-05,1.15265e-05,-8.80393e-06,-3.1632e-05,-4.88786e-05,5.06615e-05
944,-4.19318e-05,8.70986e-06,-7.67478e-06,-3.9927e-05,-3.33322e-05,3.36623e-05
945,-6.80779e-05,7.40506e-06,-5.92191e-06,-4.32213e-05,-2.59657e-05,1.36396e-05
946,-7.46112e-05,8.69905e-06,-5.04266e-06,-3.87251e-05,-2.67481e-05,-1.57796e-06
947,-6.2833e-05,1.2987e-05,-3.96064e-06,-2.58374e-05,-3.30975e-05,-1.03145e-05
948,-5.28967e-05,1.74976e-05,-6.08944e-07,-1.16644e-05,-4.26078e-05,-1.45231e-05
949,-5.76754e-05,2.09275e-05,3.68532e-06,-2.75767e-06,-4.79263e-05,-1.39328e-05
950,-7.38759e-05,2.31255e-05,6.21038e-06,4.21218e-06,-4.46999e-05,-7.63529e-06
951,-8.66183e-05,2.37108e-05,7.27351e-06,1.33648e-05,-3.62356e-05,2.20352e-06
952,-7.02771e-05,2.66353e-05,7.6057e-06,2.08053e-05,-2.78e-05,9.60478e-06
953,-3.37263e-05,3.28556e-05,8.33e-06,2.33736e-05,-2.2302e-05,1.06608e-05
954,-1.07647e-05,3.58549e-05,9.68499e-06,2.55695e-05,-2.21241e-05,9.84424e-06
955,1.40464e-06,3.40155e-05,6.6476e-06,3.40308e-05,-2.37927e-05,1.27596e-05
956,1.26674e-05,3.15888e-05,1.42496e-06,4.56782e-05,-2.57542e-05,1.61389e-05
957,1.89951e-05,3.06607e-05,4.11766e-06,5.51633e-05,-3.07792e-05,2.09767e-05
958,1.657e-05,3.16892e-05,1.4105e-05,6.02894e-05,-3.68144e-05,3.97587e-05
959,-3.55594e-06,3.18858e-05,2.52088e-05,5.83423e-05,-4.3733e-05,8.51455e-05
960,-2.28529e-05,3.03171e-05,3.65199e-05,5.28544e-05,-4.86946e-05,0.000145683
961,-1.28154e-05,2.94044e-05,4.81084e-05,5.00937e-05,-4.74531e-05,0.000184612
962,1.48297e-05,2.77906e-05,5.93317e-05,5.22541e-05,-4.47822e-05,0.000185996
963,2.87904e-05,2.45919e-05,7.08188e-05,5.69213e-05,-5.13129e-05,0.000162574
964,1.89247e-05,2.15385e-05,7.70792e-05,6.11533e-05,-6.51594e-05,0.000122887
965,-6.03574e-06,1.70889e-05,7.44e-05,6.20154e-05,-7.21878e-05,6.1311e-05
966,-2.32858e-05,9.14594e-06,7.06449e-05,5.98254e-05,-6.30029e-05,-1.58863e-05
967,-1.48972e-05,2.41729e-06,7.32032e-05,5.87969e-05,-3.66606e-05,-7.38876e-05
968,7.63619e-06,2.53057e-06,8.00062e-05,6.01933e-05,-1.29731e-06,-8.58082e-05
969,1.93374e-05,8.15955e-06,8.35314e-05,6.22022e-05,2.57701e-05,-7.04832e-05
970,1.29479e-05,1.44347e-05,8.07602e-05,6.4471e-05,3.00293e-05,-6.56244e-05
971,-5.0318e-06,1.8893e-05,7.47235e-05,6.76575e-05,1.29651e-05,-8.07525e-05
972,-2.17777e-05,2.08999e-05,6.9459e-05,7.12946e-05,-1.05444e-05,-9.87434e-05
973,-1.75414e-05,2.14536e-05,6.33822e-05,7.34611e-05,-2.31882e-05,-0.000106133
974,3.00676e-06,2.08341e-05,5.52469e-05,7.34513e-05,-1.56017e-05,-0.000100299
975,1.45356e-05,1.79539e-05,4.82303e-05,7.37311e-05,7.2276e-06,-8.01257e-05
976,1.0649e-05,1.42632e-05,4.43566e-05,7.51796e-05,2.88705e-05,-5.39279e-05
977,-6.08954e-06,1.14571e-05,4.29259e-05,7.5676e-05,3.56974e-05,-3.45635e-05
978,-2.86882e-05,9.67704e-06,4.10847e-05,7.30068e-05,2.81901e-05,-1.89001e-05
979,-2.90276e-05,8.15043e-06,3.52271e-05,7.33733e-05,1.66856e-05,5.79304e-06
980,-8.04382e-06,8.49156e-06,2.61855e-05,8.26095e-05,8.09259e-06,5.21716e-05
981,4.25979e-06,1.18185e-05,2.21019e-05,9.12363e-05,5.78303e-06,0.00011234
982,7.74326e-06,1.33015e-05,2.62137e-05,9.32992e-05,6.73771e-06,0.000153217
983,9.92297e-06,1.07522e-05,2.96578e-05,9.41549e-05,2.68886e-06,0.000149722
984,7.85165e-06,9.70274e-06,2.81521e-05,9.35063e-05,-1.05609e-05,0.000102189
985,-2.98521e-07,1.19416e-05,2.57418e-05,8.55761e-05,-2.98059e-05,2.98321e-05
986,-1.95938e-05,1.25764e-05,2.41022e-05,7.18495e-05,-4.11237e-05,-3.97107e-05
987,-3.55466e-05,1.21193e-05,1.97657e-05,5.93378e-05,-3.21605e-05,-8.19018e-05
988,-2.72057e-05,1.37564e-05,1.27732e-05,4.90538e-05,-1.21181e-05,-9.54622e-05
989,-5.00513e-06,1.50413e-05,9.43775e-06,3.87623e-05,-3.19332e-06,-8.93366e-05
990,7.07257e-06,1.46903e-05,1.19897e-05,2.90653e-05,-1.46834e-05,-5.49375e-05
991,2.72712e-06,1.40291e-05,1.47244e-05,2.22632e-05,-3.47194e-05,1.25501e-05
992,-1.31968e-05,1.24226e-05,1.24374e-05,1.90011e-05,-4.53968e-05,8.4403e-05
993,-2.45163e-05,1.06917e-05,8.24104e-06,1.80368e-05,-3.93593e-05,0.000117024
994,-1.68219e-05,1.07451e-05,7.16746e-06,1.77895e-05,-2.13071e-05,9.44254e-05
995,1.31985e-06,1.1412e-05,8.50238e-06,1.83963e-05,-1.7069e-06,4.34686e-05
996,1.00285e-05,1.22572e-05,7.21645e-06,2.19165e-05,1.19153e-05,1.94028e-06
997,2.39386e-06,1.35811e-05,5.23263e-06,2.99563e-05,1.63503e-05,-1.32785e-05
998,-1.44277e-05,1.35796e-05,7.11211e-06,3.90926e-05,1.35618e-05,-5.8512e-06
999,-2.4245e-05,1.06774e-05,1.06073e-05,4.49588e-05,9.75632e-06,1.08307e-05
1000,-1.27059e-05,6.32496e-06,1.16739e-05,4.89311e-05,6.45501e-06,1.84032e-05
1001,8.51808e-06,4.62863e-06,1.07898e-05,5.2816e-05,-1.45897e-06,3.05185e-06
1002,1.54252e-05,7.12856e-06,1.09441e-05,5.37244e-05,-1.0755e-05,-3.3496e-05
1003,4.33072e-06,9.37924e-06,1.22674e-05,4.97793e-05,-1.11498e-05,-7.32285e-05
1004,-1.69042e-05,5.77989e-06,1.36357e-05,4.68346e-05,-2.00527e-06,-0.000100034
1005,-3.72725e-05,-2.83494e-06,1.71695e-05,4.6828e-05,7.56046e-06,-0.000113302
1006,-3.18016e-05,-7.20459e-06,2.27198e-05,4.70565e-05,8.89736e-06,-0.000101973
1007,-6.90373e-06,-4.05556e-07,2.80118e-05,4.72526e-05,3.39252e-06,-5.43258e-05
1008,8.08818e-06,1.00386e-05,3.24251e-05,4.67128e-05,-3.29285e-06,3.57439e-06
1009,1.69747e-05,1.44955e-05,3.38497e-05,4.57979e-05,-8.65143e-06,3.56175e-05
1010,2.47399e-05,1.13443e-05,3.26325e-05,4.56171e-05,-9.43096e-06,3.6766e-05
1011,2.38946e-05,4.18975e-06,3.13936e-05,4.76523e-05,-5.58317e-06,2.3938e-05
1012,1.29445e-05,-2.08905e-06,2.9265e-05,5.04812e-05,-4.09033e-06,1.45823e-05
1013,-7.87054e-06,-6.70998e-06,2.56559e-05,5.26708e-05,-9.88027e-06,1.53293e-05
1014,-2.28695e-05,-9.38129e-06,2.30026e-05,5.54741e-05,-2.21222e-05,3.24838e-05
1015,-1.46918e-05,-8.69421e-06,2.33466e-05,5.74366e-05,-3.47075e-05,7.38185e-05
1016,7.28108e-06,-3.00212e-06,2.64916e-05,5.75011e-05,-3.56284e-05,0.000124146
1017,2.02182e-05,6.17498e-06,2.8826e-05,5.74762e-05,-1.88239e-05,0.000155593
1018,1.46221e-05,1.5826e-05,2.89624e-05,5.80577e-05,5.14057e-06,0.000156238
1019,-7.10321e-06,2.3156e-05,2.74663e-05,5.71432e-05,1.60427e-05,0.000122677
1020,-2.40622e-05,2.58115e-05,2.48046e-05,5.25691e-05,2.46661e-06,5.42663e-05
1021,-1.6347e-05,2.23408e-05,2.11529e-05,4.50852e-05,-2.69648e-05,-2.72084e-05
1022,4.78768e-06,1.35409e-05,1.9457e-05,3.84306e-05,-4.95024e-05,-8.12623e-05
1023,1.50296e-05,4.78989e-06,2.32366e-05,3.62531e-05,-4.6772e-05,-8.6369e-05
1024,7.35467e-06,1.54981e-06,3.09872e-05,3.9286e-05,-2.36254e-05,-5.6435e-05
1025,-1.18521e-05,2.36679e-06,3.87984e-05,4.48142e-05,-2.51052e-06,-2.22309e-05
1026,-2.84913e-05,1.17489e-06,4.27877e-05,4.83559e-05,4.28746e-06,-6.00582e-06
1027,-2.38885e-05,-2.15872e-06,3.9345e-05,4.93744e-05,4.27984e-06,-1.00165e-05
1028,-2.99739e-06,-4.55126e-06,2.99672e-05,5.19486e-05,4.83109e-06,-1.90194e-05
1029,1.05299e-05,-2.54869e-06,2.31946e-05,5.69383e-05,1.9336e-06,-1.62341e-05
1030,6.48639e-06,5.30413e-06,2.41679e-05,6.16378e-05,-8.58389e-06,-2.86034e-06
1031,-1.1886e-05,1.40619e-05,2.84244e-05,6.36206e-05,-2.33752e-05,8.62194e-06
1032,-3.0902e-05,1.68904e-05,2.98493e-05,6.08508e-05,-3.22354e-05,1.44594e-05
1033,-2.26746e-05,1.4963e-05,2.67053e-05,5.36405e-05,-3.14463e-05,1.99398e-05
1034,7.77891e-06,1.227e-05,2.02637e-05,4.63345e-05,-3.29625e-05,2.22394e-05
1035,2.20427e-05,8.53613e-06,1.9171e-05,4.22308e-05,-4.20958e-05,1.81585e-05
1036,1.87509e-05,3.63154e-06,2.69952e-05,4.07663e-05,-5.07836e-05,2.8224e-05
1037,1.51823e-05,1.3518e-06,3.69767e-05,4.11298e-05,-4.78265e-05,7.76976e-05
1038,1.22414e-05,5.58223e-06,4.10193e-05,4.48755e-05,-3.05583e-05,0.000164782
1039,5.65918e-06,1.22277e-05,3.52887e-05,5.29413e-05,-1.10043e-05,0.000253713
1040,-9.70023e-06,1.3799e-05,2.82381e-05,5.93421e-05,-6.50281e-07,0.00031654
1041,-1.34638e-05,1.07338e-05,2.55732e-05,5.95286e-05,-6.16681e-07,0.000345516
1042,5.78071e-06,1.02303e-05,2.20728e-05,5.83456e-05,-5.83937e-06,0.000315849
1043,2.57825e-05,1.28959e-05,1.78932e-05,5.92289e-05,-1.38258e-05,0.000214838
1044,2.73972e-05,1.46148e-05,1.70865e-05,6.07055e-05,-2.12676e-05,6.71419e-05
1045,1.28462e-05,1.47631e-05,1.45199e-05,6.0976e-05,-1.90775e-05,-8.19537e-05
1046,-1.17162e-05,1.25592e-05,6.27593e-06,5.89868e-05,-2.66062e-06,-0.000193857
1047,-3.21118e-05,8.6517e-06,-1.16444e-06,5.43157e-05,1.96251e-05,-0.000252947
1048,-3.03972e-05,6.93313e-06,-1.49504e-06,4.93909e-05,3.56528e-05,-0.000270902
1049,-1.38452e-05,6.78927e-06,4.07191e-06,4.7099e-05,4.30716e-05,-0.00026796
1050,-3.7641e-06,6.55118e-06,1.17325e-05,4.8107e-05,4.64219e-05,-0.000244765
1051,-8.70393e-06,8.39318e-06,1.79441e-05,5.19176e-05,4.36653e-05,-0.000188413
1052,-2.51544e-05,1.14173e-05,1.90426e-05,5.48242e-05,3.05375e-05,-0.000103666
1053,-4.1544e-05,1.16325e-05,1.53025e-05,5.37749e-05,1.28843e-05,-2.3977e-05
1054,-3.89937e-05,9.38717e-06,1.00323e-05,5.20356e-05,3.13178e-07,1.93042e-05
1055,-2.10656e-05,8.10021e-06,6.96649e-06,5.19141e-05,-6.76561e-06,2.60609e-05
1056,-7.73943e-06,9.79315e-06,9.74953e-06,5.11776e-05,-1.54446e-05,1.52747e-05
1057,-5.79089e-06,1.30428e-05,1.77489e-05,5.02404e-05,-2.68695e-05,-6.50173e-06
1058,-1.61571e-05,1.5201e-05,2.64866e-05,5.04802e-05,-4.19522e-05,-3.5162e-05
1059,-3.29335e-05,1.54708e-05,3.36614e-05,4.9961e-05,-6.36428e-05,-5.21745e-05
1060,-2.85201e-05,1.6811e-05,3.75162e-05,4.7045e-05,-7.92024e-05,-4.66025e-05
1061,-5.87197e-06,2.012e-05,3.66495e-05,4.37017e-05,-7.46767e-05,-2.88107e-05
1062,3.41232e-06,2.04412e-05,3.1214e-05,4.10744e-05,-4.65022e-05,-8.07941e-06
1063,3.80504e-06,1.81811e-05,2.53789e-05,4.00956e-05,-2.32541e-06,2.45065e-05
1064,6.1461e-06,1.88937e-05,2.29034e-05,4.18821e-05,2.56473e-05,8.23364e-05
1065,4.53776e-06,2.14589e-05,2.33437e-05,4.75342e-05,1.52012e-05,0.000160457
1066,-5.56668e-06,2.34202e-05,2.60644e-05,5.4539e-05,-1.88317e-05,0.000229209
1067,-2.6414e-05,2.64595e-05,2.93637e-05,5.85564e-05,-4.93001e-05,0.000253317
1068,-3.90733e-05,2.88938e-05,3.02649e-05,5.85836e-05,-5.67302e-05,0.000227331
1069,-2.37158e-05,2.78904e-05,2.98094e-05,5.81185e-05,-3.90478e-05,0.000164307
1070,3.85778e-06,2.36028e-05,3.16135e-05,6.16436e-05,-1.28718e-05,9.25058e-05
1071,1.73191e-05,1.99794e-05,3.58433e-05,6.65746e-05,7.21901e-07,4.98356e-05
1072,1.1363e-05,1.88281e-05,4.01335e-05,6.86891e-05,-5.08298e-06,3.65917e-05
1073,-4.89879e-06,1.91104e-05,4.26655e-05,6.81864e-05,-1.88401e-05,1.32415e-05
1074,-1.4608e-05,1.67653e-05,4.54633e-05,6.6677e-05,-2.46646e-05,-4.34809e-05
1075,-5.34757e-06,1.07071e-05,4.97078e-05,6.51999e-05,-1.81101e-05,-0.000106667
1076,1.36097e-05,5.96814e-06,5.26502e-05,6.57535e-05,-6.31888e-06,-0.000145573
1077,2.06448e-05,6.91746e-06,4.85672e-05,6.68969e-05,1.10638e-06,-0.000168313
1078,9.83588e-06,1.06411e-05,3.45086e-05,6.56033e-05,2.23717e-06,-0.000194076
1079,-9.70013e-06,1.04448e-05,1.62027e-05,6.35449e-05,4.20267e-06,-0.000210724
1080,-2.35428e-05,4.29914e-06,4.18319e-06,6.44948e-05,1.12327e-05,-0.00018332
1081,-1.65902e-05,-2.88397e-06,2.12877e-06,6.5443e-05,1.79543e-05,-9.95155e-05
1082,3.78183e-06,-3.13676e-06,5.65407e-06,6.06666e-05,1.60003e-05,-6.02056e-07
1083,1.38979e-05,3.86395e-06,1.21044e-05,5.15324e-05,2.76554e-06,5.33268e-05
1084,6.94624e-06,1.14107e-05,2.06346e-05,4.28815e-05,-1.82054e-05,4.7639e-05
1085,-1.04732e-05,1.32775e-05,2.90456e-05,3.74359e-05,-3.88687e-05,2.02619e-05
1086,-2.93221e-05,1.0419e-05,3.80018e-05,3.65336e-05,-4.77499e-05,9.56048e-06
1087,-2.71313e-05,7.77214e-06,5.13118e-05,4.17688e-05,-3.65938e-05,2.10999e-05
1088,-7.54007e-06,8.49073e-06,6.9383e-05,5.19706e-05,-1.09873e-05,3.54241e-05
1089,3.68747e-07,9.66822e-06,8.37728e-05,5.89908e-05,6.49901e-06,3.80594e-05
1090,2.88171e-06,8.55594e-06,9.1859e-05,5.96113e-05,-2.31333e-06,3.74e-05
1091,1.19672e-05,8.33017e-06,9.63687e-05,5.91249e-05,-2.36837e-05,4.12519e-05
1092,1.73872e-05,1.02509e-05,9.50478e-05,6.08697e-05,-3.3055e-05,4.73007e-05
1093,1.02959e-05,1.30148e-05,8.85683e-05,6.19872e-05,-2.56655e-05,4.90698e-05
1094,-8.96834e-06,1.44951e-05,7.71541e-05,5.97228e-05,-1.21042e-05,4.56186e-05
1095,-2.10968e-05,1.23117e-05,6.61305e-05,5.80493e-05,-1.59769e-06,4.36857e-05
1096,-1.10252e-05,9.13179e-06,5.86045e-05,5.5358e-05,5.36712e-06,4.39241e-05
1097,7.9135e-06,8.27875e-06,5.35002e-05,5.00164e-05,1.02427e-05,4.1095e-05
1098,1.70173e-05,1.18135e-05,4.89079e-05,4.6965e-05,1.49125e-05,3.44481e-05
1099,1.27217e-05,1.64823e-05,4.48945e-05,4.92516e-05,1.96143e-05,3.19304e-05
1100,-3.29167e-06,1.58749e-05,4.29299e-05,5.22833e-05,2.14558e-05,3.46302e-05
1101,-1.74652e-05,1.00633e-05,3.72459e-05,5.24709e-05,1.84613e-05,3.51778e-05
1102,-1.35818e-05,7.42309e-06,2.78673e-05,5.03303e-05,1.269e-05,3.11193e-05
1103,2.43697e-06,1.12185e-05,2.41677e-05,4.76385e-05,7.97163e-06,2.48805e-05
1104,1.0016e-05,1.54772e-05,2.87826e-05,4.75064e-05,4.97259e-06,1.8621e-05
1105,1.28234e-06,1.59072e-05,3.45893e-05,5.07465e-05,1.98372e-06,1.52021e-05
1106,-1.91296e-05,1.3175e-05,3.61573e-05,5.32986e-05,4.87909e-07,1.75076e-05
1107,-3.77497e-05,1.08727e-05,3.38566e-05,5.00656e-05,2.96798e-06,2.6614e-05
1108,-3.52339e-05,1.22192e-05,2.95969e-05,4.30539e-05,4.71616e-06,4.55832e-05
1109,-1.86258e-05,1.64205e-05,2.47479e-05,3.76395e-05,1.09872e-06,7.65107e-05
1110,-1.30279e-05,2.00197e-05,2.40906e-05,3.49556e-05,-3.48383e-06,0.000120496
1111,-2.31228e-05,2.20551e-05,2.6864e-05,3.34453e-05,-5.36048e-06,0.000194572
1112,-4.41134e-05,2.0391e-05,2.70283e-05,3.31183e-05,-6.71663e-06,0.000313509
1113,-6.79766e-05,1.44573e-05,2.56674e-05,3.14137e-05,-9.54362e-06,0.000418666
1114,-6.61961e-05,7.57548e-06,2.51747e-05,2.55577e-05,-1.14783e-05,0.000426751
1115,-3.94956e-05,3.77319e-06,2.19342e-05,1.87736e-05,-6.69928e-06,0.000357797
1116,-2.31401e-05,2.08363e-06,1.65061e-05,1.95857e-05,2.77622e-06,0.00027761
1117,-1.86733e-05,7.94938e-07,1.55189e-05,2.86973e-05,9.85744e-06,0.000167387
1118,-1.12455e-05,-5.07777e-07,1.99837e-05,3.96382e-05,1.36362e-05,5.23542e-07
1119,2.58931e-07,-1.61894e-06,2.45783e-05,4.73468e-05,1.39711e-05,-0.000166419
1120,9.96897e-06,2.41483e-07,2.82336e-05,5.0585e-05,9.41356e-06,-0.000275776
1121,8.57778e-06,3.95693e-06,2.84213e-05,5.08691e-05,1.51102e-06,-0.000331163
1122,9.53427e-06,5.10051e-06,2.26563e-05,5.10034e-05,-6.06213e-06,-0.000356752
1123,2.97151e-05,2.67095e-06,1.61512e-05,5.18103e-05,-1.26623e-05,-0.000357952
1124,5.50695e-05,7.17347e-07,1.17824e-05,5.14748e-05,-1.9778e-05,-0.000336377
1125,6.26067e-05,3.6857e-06,1.03627e-05,5.11319e-05,-2.3948e-05,-0.000289325
1126,5.01937e-05,1.08442e-05,8.10361e-06,5.20834e-05,-2.15213e-05,-0.000213686
1127,2.61893e-05,1.6068e-05,-6.8516e-07,5.44954e-05,-1.34316e-05,-0.000121684
1128,8.07193e-06,1.53854e-05,-1.22104e-05,5.77211e-05,-5.73343e-06,-4.18969e-05
1129,1.15202e-05,1.31424e-05,-2.02904e-05,6.05523e-05,-4.42664e-06,5.32016e-06
1130,2.68039e-05,1.43761e-05,-2.45465e-05,6.19845e-05,-9.15654e-06,2.7135e-05
1131,3.17252e-05,1.83851e-05,-2.69869e-05,6.22446e-05,-1.57164e-05,4.98523e-05
1132,2.02817e-05,2.18635e-05,-3.04317e-05,6.24973e-05,-1.60935e-05,9.27028e-05
1133,-1.04319e-06,2.32086e-05,-3.42629e-05,6.40429e-05,-6.81478e-06,0.00014408
1134,-2.03557e-05,2.32037e-05,-3.30899e-05,6.511e-05,9.89099e-07,0.000177469
1135,-2.24628e-05,2.32143e-05,-2.90644e-05,6.13498e-05,-4.09713e-06,0.000178831
1136,-9.96392e-06,2.10363e-05,-2.79893e-05,5.24141e-05,-2.07487e-05,0.000147031
1137,1.70133e-06,1.74934e-05,-2.72101e-05,4.22913e-05,-3.61088e-05,8.9603e-05
1138,5.53405e-06,1.63746e-05,-2.3222e-05,3.6134e-05,-3.24082e-05,2.9599e-05
1139,-2.51065e-06,1.44483e-05,-1.76035e-05,3.78691e-05,-9.0991e-06,-1.51678e-05
1140,-1.91309e-05,9.11068e-06,-1.24277e-05,4.36374e-05,1.22484e-05,-4.70213e-05
1141,-1.63562e-05,5.93703e-06,-5.60869e-06,4.58238e-05,1.11445e-05,-7.41244e-05
1142,5.47134e-06,9.16336e-06,1.01463e-06,4.66308e-05,-8.33627e-06,-9.08975e-05
1143,1.00217e-05,1.37425e-05,4.88425e-06,5.12286e-05,-2.49165e-05,-8.87195e-05
1144,-3.72855e-06,1.67381e-05,1.13714e-05,5.63678e-05,-2.85743e-05,-7.34611e-05
1145,-1.79092e-05,1.918e-05,2.07772e-05,5.69864e-05,-2.58862e-05,-6.0472e-05
1146,-2.54908e-05,2.17136e-05,2.68756e-05,5.27502e-05,-2.7267e-05,-4.81608e-05
1147,-2.99375e-05,2.6258e-05,3.02775e-05,4.89024e-05,-3.03203e-05,-1.63437e-05
1148,-4.52157e-05,2.98752e-05,3.39662e-05,4.70021e-05,-2.65786e-05,4.4855e-05
1149,-5.98544e-05,2.82243e-05,3.75218e-05,4.31636e-05,-1.73156e-05,0.0001127
1150,-5.40649e-05,2.3392e-05,3.86913e-05,3.62565e-05,-1.05382e-05,0.000147581
1151,-3.64366e-05,1.97353e-05,3.70618e-05,2.98434e-05,-1.51403e-05,0.000142449
1152,-2.55188e-05,1.97474e-05,3.8026e-05,2.82401e-05,-2.4592e-05,0.000121244
1153,-2.56997e-05,2.04024e-05,3.88662e-05,3.21866e-05,-2.60723e-05,9.21131e-05
1154,-3.75746e-05,1.68641e-05,3.43057e-05,3.97063e-05,-1.99228e-05,4.46947e-05
1155,-4.95568e-05,1.11681e-05,2.64261e-05,4.70015e-05,-1.46384e-05,-1.43695e-05
1156,-4.37505e-05,8.77285e-06,2.13635e-05,5.2146e-05,-1.65384e-05,-6.03607e-05
1157,-2.38553e-05,9.38237e-06,2.07545e-05,5.40231e-05,-2.46533e-05,-8.04524e-05
1158,-7.31413e-06,9.63781e-06,2.17671e-05,5.44526e-05,-3.21796e-05,-8.4507e-05
1159,-2.47987e-06,7.52153e-06,2.32652e-05,5.54648e-05,-3.2657e-05,-8.85552e-05
1160,-1.05016e-05,3.33772e-06,2.39573e-05,5.46464e-05,-2.52451e-05,-9.45877e-05
1161,-2.38862e-05,-1.04803e-06,2.38549e-05,4.98242e-05,-1.38003e-05,-8.67855e-05
1162,-2.34312e-05,-3.55473e-06,2.29069e-05,4.42245e-05,-4.85261e-06,-5.36193e-05
1163,-9.4911e-06,-2.65909e-06,2.22633e-05,4.09103e-05,-3.13414e-06,-5.81885e-06
1164,-2.23513e-06,4.5483e-07,2.3062e-05,3.97939e-05,-6.17885e-06,3.3515e-05
1165,-8.45085e-06,3.15004e-06,2.4473e-05,3.85704e-05,-4.71545e-06,4.73149e-05
1166,-2.37202e-05,4.48988e-06,2.61048e-05,3.65469e-05,1.15721e-06,3.33035e-05
1167,-3.95917e-05,5.32961e-06,3.05573e-05,3.58243e-05,3.01478e-06,1.02882e-05
1168,-3.17688e-05,7.55245e-06,3.73902e-05,3.56808e-05,-1.54729e-06,2.6193e-06
1169,-2.40964e-06,1.19305e-05,4.09276e-05,3.71359e-05,-1.24659e-05,1.12849e-05
1170,1.60495e-05,1.5496e-05,4.33039e-05,4.29114e-05,-2.49538e-05,2.57435e-05
1171,2.12603e-05,1.49526e-05,4.91486e-05,5.29563e-05,-3.3328e-05,4.53741e-05
1172,2.21638e-05,1.28949e-05,5.66424e-05,6.11604e-05,-3.83866e-05,6.35017e-05
1173,1.88974e-05,1.38439e-05,6.44025e-05,6.48772e-05,-4.82364e-05,7.13747e-05
1174,8.60365e-06,1.67551e-05,6.95289e-05,6.6167e-05,-7.22069e-05,7.54487e-05
1175,-1.59203e-05,1.90678e-05,7.36641e-05,6.43285e-05,-9.70996e-05,8.47764e-05
1176,-3.87859e-05,1.85596e-05,7.95927e-05,5.89336e-05,-9.48487e-05,0.000101876
1177,-4.14426e-05,1.63192e-05,8.64707e-05,5.23211e-05,-5.56354e-05,0.000126292
1178,-3.23562e-05,1.42829e-05,9.08155e-05,4.82631e-05,4.40508e-06,0.000148682
1179,-2.69036e-05,1.18713e-05,9.07172e-05,4.98599e-05,5.64449e-05,0.00015308
1180,-2.9098e-05,1.03537e-05,8.45239e-05,5.5273e-05,6.95241e-05,0.000129429
1181,-4.01895e-05,1.13645e-05,7.35257e-05,6.00436e-05,3.7877e-05,8.20601e-05
1182,-4.77462e-05,1.43993e-05,6.48086e-05,6.32342e-05,-8.24644e-06,3.04909e-05
1183,-3.59222e-05,1.76256e-05,5.79079e-05,6.65571e-05,-3.564e-05,-5.56845e-06
1184,-1.21365e-05,1.87574e-05,4.74995e-05,6.99509e-05,-3.61475e-05,-2.59917e-05
1185,3.09478e-06,1.69541e-05,3.6447e-05,7.10757e-05,-2.40619e-05,-4.88989e-05
1186,4.32977e-06,1.23135e-05,3.20383e-05,7.00568e-05,-1.75479e-05,-8.14868e-05
1187,-1.32918e-06,5.17034e-06,3.39833e-05,6.88088e-05,-2.60131e-05,-0.000104977
1188,-3.08007e-06,-1.95931e-06,3.81733e-05,6.7093e-05,-4.66421e-05,-0.000100981
1189,1.19633e-05,-3.61108e-06,4.02971e-05,6.50467e-05,-7.06272e-05,-7.49742e-05
1190,3.7292e-05,7.4776e-07,3.95849e-05,6.31177e-05,-8.71879e-05,-2.85745e-05
1191,5.12428e-05,4.89538e-06,3.94585e-05,5.68568e-05,-8.38182e-05,6.41856e-05
1192,4.54072e-05,4.15867e-06,3.85202e-05,4.51951e-05,-5.90649e-05,0.000217839
1193,2.69642e-05,-5.67261e-07,3.12857e-05,3.65091e-05,-3.04307e-05,0.000383831
1194,8.31121e-06,-3.58637e-06,2.08201e-05,3.79771e-05,-1.18988e-05,0.000475127
1195,6.84048e-06,-8.00132e-07,1.31663e-05,4.79687e-05,-1.75555e-06,0.000444075
1196,1.20941e-05,5.95165e-06,1.07833e-05,5.67959e-05,7.85512e-06,0.000301882
1197,7.57563e-07,1.0492e-05,9.25606e-06,5.68873e-05,1.35388e-05,9.01722e-05
1198,-1.35381e-05,1.23e-05,7.30208e-06,5.29853e-05,9.49933e-06,-0.000132573
1199,-1.60058e-05,1.5459e-05,1.22743e-05,5.12737e-05,6.74024e-06,-0.000289176
1200,-1.40426e-05,1.99742e-05,2.1269e-05,4.89245e-05,1.0385e-05,-0.000344176
1201,-1.80598e-05,2.44785e-05,2.50533e-05,4.21645e-05,1.21611e-05,-0.000339811
1202,-3.84428e-05,2.5382e-05,2.54717e-05,3.33421e-05,7.65312e-06,-0.000320076
1203,-5.79701e-05,2.22494e-05,2.80779e-05,2.42585e-05,-9.28163e-07,-0.000286737
1204,-5.20827e-05,1.93023e-05,3.09763e-05,1.67515e-05,-6.07146e-06,-0.000224632
1205,-2.96308e-05,1.71625e-05,3.21189e-05,1.48376e-05,-3.61022e-06,-0.00014185
1206,-1.22198e-05,1.54956e-05,3.3031e-05,1.74291e-05,2.24405e-06,-6.3746e-05
1207,-8.00242e-06,1.50382e-05,3.39652e-05,2.01744e-05,4.73437e-06,-8.785e-06
1208,-1.77323e-05,1.4701e-05,3.18934e-05,2.23715e-05,4.543e-06,1.94077e-05
1209,-2.69555e-05,1.21988e-05,2.69405e-05,2.6972e-05,6.06681e-06,2.7664e-05
1210,-1.78118e-05,8.61025e-06,2.24932e-05,3.56331e-05,8.81072e-06,2.21873e-05
1211,3.35471e-06,6.69837e-06,2.0524e-05,4.58959e-05,1.03416e-05,2.07075e-06
1212,1.51371e-05,9.29006e-06,2.0977e-05,5.37359e-05,1.07252e-05,-2.91977e-05
1213,8.7691e-06,1.53436e-05,2.31203e-05,5.58342e-05,1.08056e-05,-5.37211e-05
1214,-1.05749e-05,1.96566e-05,2.53122e-05,5.25863e-05,8.36757e-06,-5.5775e-05
1215,-2.73882e-05,1.89237e-05,2.67727e-05,4.88317e-05,5.18426e-06,-3.47977e-05
1216,-1.92168e-05,1.48506e-05,2.86408e-05,4.67835e-05,5.80538e-06,-2.32061e-06
1217,1.09826e-05,9.05984e-06,3.01982e-05,4.62572e-05,7.22083e-06,2.48559e-05
1218,3.51717e-05,3.09831e-06,2.94289e-05,4.96098e-05,3.43028e-06,3.37759e-05
1219,3.76789e-05,2.20178e-07,2.5983e-05,5.60335e-05,-1.75316e-06,3.12007e-05
1220,2.17582e-05,-2.89612e-07,2.1385e-05,6.04727e-05,-1.75009e-06,3.19719e-05
1221,1.14127e-06,-6.18563e-07,1.76043e-05,6.09872e-05,3.00716e-06,4.12516e-05
1222,3.9301e-06,1.71647e-06,1.39293e-05,5.94735e-05,1.04181e-05,5.80835e-05
1223,2.4771e-05,1.10228e-05,1.06664e-05,5.75397e-05,1.69202e-05,7.53866e-05
1224,2.78626e-05,2.29873e-05,7.21731e-06,5.71185e-05,1.97964e-05,8.02387e-05
1225,1.6063e-05,2.84045e-05,4.10285e-06,6.00291e-05,1.87979e-05,7.19225e-05
1226,7.38596e-06,2.6146e-05,1.80387e-06,6.2872e-05,1.32946e-05,5.30099e-05
1227,2.45605e-06,2.29207e-05,2.16483e-08,6.49573e-05,8.60168e-06,3.24665e-05
1228,-2.56033e-06,1.81747e-05,2.07893e-06,6.87646e-05,5.4797e-06,2.32156e-05
1229,-1.66124e-05,8.91254e-06,4.46098e-06,7.36296e-05,-6.74807e-06,2.39011e-05
1230,-2.94043e-05,-2.81026e-07,4.60169e-06,7.91514e-05,-2.97504e-05,2.79071e-05
1231,-2.10917e-05,-4.35694e-06,3.77302e-06,8.38216e-05,-4.74075e-05,2.97955e-05
1232,-8.16976e-08,-3.07853e-06,5.38605e-06,8.4444e-05,-4.67305e-05,2.87202e-05
1233,1.43715e-05,6.64499e-07,1.05376e-05,8.17226e-05,-3.18608e-05,3.01714e-05
1234,1.52653e-05,4.05547e-06,1.53231e-05,7.95022e-05,-1.67588e-05,3.98567e-05
1235,1.70292e-06,4.26199e-06,1.67014e-05,7.88283e-05,-1.07142e-05,5.31647e-05
1236,-1.43823e-05,2.03361e-06,1.66037e-05,7.86764e-05,-1.2796e-05,6.4913e-05
1237,-1.69771e-05,6.74882e-07,1.9859e-05,7.81274e-05,-1.56823e-05,7.28673e-05
1238,-6.62098e-06,1.45876e-06,2.77927e-05,7.55789e-05,-1.30713e-05,7.98474e-05
1239,1.05307e-07,3.28199e-06,3.82605e-05,6.99078e-05,-5.73172e-06,9.45128e-05
1240,-5.44539e-06,4.71037e-06,4.7844e-05,6.4157e-05,3.174e-06,0.000119763
1241,-1.91535e-05,5.99493e-06,5.40745e-05,6.06729e-05,1.0106e-05,0.000141329
1242,-2.78648e-05,7.95754e-06,5.56208e-05,5.76863e-05,1.0525e-05,0.000140536
1243,-1.67095e-05,1.06931e-05,5.43259e-05,5.55424e-05,2.52013e-06,0.000113554
1244,6.3592e-06,1.35233e-05,5.26882e-05,5.53723e-05,-1.05567e-05,6.88081e-05
1245,1.96107e-05,1.58666e-05,5.06382e-05,5.49846e-05,-2.0529e-05,1.79618e-05
1246,1.60586e-05,1.73916e-05,4.2376e-05,5.11529e-05,-1.79726e-05,-2.90742e-05
1247,-4.1413e-07,1.756e-05,2.77177e-05,4.56073e-05,-3.417e-06,-6.21307e-05
1248,-1.85587e-05,1.53459e-05,1.52429e-05,4.18652e-05,1.24119e-05,-7.43095e-05
1249,-1.20914e-05,1.18581e-05,8.95782e-06,3.75155e-05,1.77304e-05,-7.52145e-05
1250,1.39648e-05,8.40343e-06,9.14472e-06,3.26754e-05,1.04152e-05,-8.22002e-05
1251,2.48648e-05,7.02192e-06,1.32882e-05,3.12106e-05,9.88841e-07,-9.0422e-05
1252,2.21767e-05,8.78145e-06,1.6022e-05,3.14467e-05,1.61912e-06,-8.06574e-05
1253,1.98052e-05,1.12192e-05,1.47166e-05,3.07193e-05,1.18045e-05,-4.54868e-05
1254,1.56286e-05,1.53992e-05,1.17958e-05,3.04952e-05,2.67044e-05,2.69577e-06
1255,7.62829e-06,2.04922e-05,1.03045e-05,3.15823e-05,4.94805e-05,4.40536e-05
1256,-1.16363e-05,2.15032e-05,8.81478e-06,3.52669e-05,7.38282e-05,6.33998e-05
1257,-3.09347e-05,1.78186e-05,5.60989e-06,4.10607e-05,8.02304e-05,5.83693e-05
1258,-3.0503e-05,1.26583e-05,4.54935e-08,4.66439e-05,5.90676e-05,4.25589e-05
1259,-1.77396e-05,8.719e-06,-1.10589e-06,5.10692e-05,2.13933e-05,3.0188e-05
1260,-1.23215e-05,8.7296e-06,6.21517e-06,5.29272e-05,-1.12571e-05,2.9205e-05
1261,-1.89993e-05,1.19356e-05,1.47437e-05,5.27463e-05,-2.46944e-05,3.72474e-05
1262,-3.46513e-05,1.30032e-05,1.94872e-05,5.04131e-05,-2.01635e-05,3.77536e-05
1263,-4.41749e-05,1.03151e-05,2.20608e-05,4.54538e-05,-1.02264e-05,2.31715e-05
1264,-3.09459e-05,7.21497e-06,2.3405e-05,3.86435e-05,-7.46146e-06,6.30002e-06
1265,-2.10547e-06,5.5356e-06,2.32297e-05,3.18122e-05,-8.59943e-06,-2.60792e-07
1266,1.87256e-05,4.69193e-06,2.37976e-05,2.67747e-05,-3.93451e-06,2.08302e-06
1267,1.85571e-05,3.42996e-06,2.54304e-05,2.4126e-05,2.36668e-06,5.96005e-06
1268,5.39564e-07,4.05675e-07,2.58151e-05,2.21622e-05,4.05641e-08,6.06869e-06
1269,-1.86128e-05,-3.24327e-06,2.47692e-05,2.04526e-05,-1.14618e-05,2.62929e-06
1270,-1.58225e-05,-4.70632e-06,2.62598e-05,2.07238e-05,-2.77206e-05,8.66259e-06
1271,5.34736e-06,-4.11175e-06,3.04304e-05,2.31194e-05,-4.19258e-05,3.59914e-05
1272,1.92679e-05,-1.93448e-06,3.19735e-05,2.63647e-05,-4.43451e-05,7.40751e-05
1273,1.38125e-05,3.48729e-06,2.78178e-05,2.89442e-05,-3.05895e-05,0.000115885
1274,-6.60027e-06,8.26174e-06,2.13431e-05,3.17568e-05,-1.31005e-05,0.00017472
1275,-2.85735e-05,6.88842e-06,1.67974e-05,3.67433e-05,-1.79711e-05,0.000242902
1276,-2.66211e-05,3.16434e-06,1.3307e-05,4.43529e-05,-5.33425e-05,0.000272996
1277,-5.99624e-06,2.49324e-06,9.25244e-06,5.21156e-05,-9.53331e-05,0.00022222
1278,4.85736e-06,1.94836e-06,5.91337e-06,5.93776e-05,-0.000108454,0.000106133
1279,7.00244e-06,-2.13054e-06,3.68608e-06,6.70895e-05,-7.65799e-05,-2.52225e-05
1280,7.46698e-06,-6.04937e-06,2.90449e-06,6.95312e-05,-1.22472e-05,-0.000133691
1281,4.38042e-06,-3.41084e-06,4.83707e-06,6.60706e-05,4.95911e-05,-0.000204476
1282,-4.49517e-06,5.13e-06,9.73119e-06,6.23561e-05,6.93087e-05,-0.000244771
1283,-2.27604e-05,1.22889e-05,1.46669e-05,5.95206e-05,4.28882e-05,-0.000256408
1284,-3.43643e-05,1.4963e-05,1.68362e-05,5.61696e-05,4.48287e-06,-0.000229925
1285,-1.98386e-05,1.72828e-05,1.51247e-05,5.15878e-05,-1.3969e-05,-0.00016879
1286,8.40902e-06,2.03177e-05,1.18994e-05,4.77918e-05,-5.45611e-06,-8.99268e-05
1287,2.55059e-05,2.2925e-05,1.20509e-05,4.75702e-05,1.75169e-05,-3.32365e-06
1288,2.33945e-05,2.71407e-05,1.60537e-05,5.12582e-05,3.39886e-05,8.64892e-05
1289,7.54618e-06,2.99135e-05,1.82875e-05,5.35629e-05,3.38542e-05,0.000156125
1290,-2.13435e-06,2.95469e-05,1.49831e-05,5.07013e-05,2.30563e-05,0.000178294
1291,7.81584e-06,3.08165e-05,1.19775e-05,4.55917e-05,1.1599e-05,0.000159205
1292,2.44671e-05,3.55785e-05,1.77492e-05,4.36693e-05,6.05136e-06,0.000134103
1293,2.83793e-05,4.14248e-05,2.92046e-05,4.61678e-05,7.43185e-06,0.000124815
1294,1.75689e-05,4.62302e-05,3.77057e-05,5.37748e-05,1.18465e-05,0.00010911
1295,-1.11029e-06,4.66918e-05,4.47834e-05,6.51015e-05,1.29777e-05,5.99556e-05
1296,-1.44699e-05,4.08567e-05,5.18722e-05,7.23378e-05,1.07469e-05,-8.70368e-07
1297,-4.69482e-06,3.22984e-05,5.11472e-05,7.07104e-05,7.66118e-06,-4.33839e-05
1298,1.92757e-05,2.29034e-05,4.40954e-05,6.54614e-05,6.51034e-07,-8.91572e-05
1299,2.95003e-05,1.38601e-05,4.3976e-05,6.29293e-05,-9.76579e-06,-0.000160799
1300,1.86124e-05,1.02216e-05,5.2575e-05,6.14254e-05,-1.575e-05,-0.000216359
1301,-5.56736e-06,1.05127e-05,5.94331e-05,5.61001e-05,-1.79509e-05,-0.000205306
1302,-3.13194e-05,9.56988e-06,5.78506e-05,4.85326e-05,-1.96049e-05,-0.000144596
1303,-3.40606e-05,9.34017e-06,5.13921e-05,4.41217e-05,-1.3598e-05,-8.49819e-05
1304,-1.58038e-05,9.75415e-06,4.17833e-05,4.3852e-05,4.28136e-07,-4.90767e-05
1305,-6.95627e-06,8.65607e-06,2.98562e-05,4.63072e-05,6.59088e-06,-3.01856e-05
1306,-9.71659e-06,7.77881e-06,2.1613e-05,4.88809e-05,1.24128e-06,-1.34529e-05
1307,-1.7257e-05,9.515e-06,2.18495e-05,4.92543e-05,1.31371e-06,5.8137e-06
1308,-2.7932e-05,1.37646e-05,2.73237e-05,4.83505e-05,1.75882e-05,1.78458e-05
1309,-3.82764e-05,1.74672e-05,3.04946e-05,4.97213e-05,3.69709e-05,9.17355e-06
1310,-5.40079e-05,1.76646e-05,3.20781e-05,5.35186e-05,3.62727e-05,-1.84867e-05
1311,-6.15622e-05,1.5192e-05,3.36067e-05,5.70466e-05,9.49442e-06,-4.40239e-05
1312,-4.19106e-05,1.2602e-05,3.61895e-05,5.77684e-05,-2.83657e-05,-4.70053e-05
1313,-7.73214e-06,1.03851e-05,4.49197e-05,5.50774e-05,-5.65924e-05,-2.35389e-05
1314,1.1942e-05,8.22094e-06,5.90817e-05,4.9264e-05,-6.86636e-05,8.73893e-06
1315,6.44818e-06,6.48492e-06,7.22056e-05,4.37662e-05,-7.3644e-05,3.2088e-05
1316,-1.65482e-05,5.09527e-06,8.0703e-05,4.07443e-05,-8.01488e-05,4.28797e-05
1317,-3.32885e-05,4.24597e-06,8.46547e-05,3.91882e-05,-8.54822e-05,4.91516e-05
1318,-2.54549e-05,5.28535e-06,8.49395e-05,3.76707e-05,-8.34572e-05,5.69299e-05
1319,-2.56932e-06,9.00936e-06,8.23252e-05,3.54733e-05,-7.19526e-05,6.19225e-05
1320,1.35662e-05,1.4237e-05,7.90093e-05,3.45407e-05,-5.44691e-05,5.99079e-05
1321,1.35472e-05,1.72742e-05,7.82892e-05,3.78849e-05,-4.15297e-05,5.51068e-05
1322,3.92076e-07,1.3618e-05,7.90614e-05,4.64272e-05,-4.20217e-05,5.80419e-05
1323,-1.12998e-05,3.9116e-06,7.66594e-05,5.43568e-05,-4.95421e-05,7.90981e-05
1324,-1.91191e-06,-2.46364e-06,6.89231e-05,5.57226e-05,-4.92165e-05,0.000120812
1325,2.07743e-05,3.88042e-07,5.78804e-05,5.18857e-05,-3.63905e-05,0.000166892
1326,3.18741e-05,7.06883e-06,4.68533e-05,4.80763e-05,-1.95488e-05,0.00019197
1327,2.40635e-05,1.07679e-05,3.79953e-05,4.79989e-05,-7.88225e-06,0.000188076
1328,9.93255e-07,9.94529e-06,3.05741e-05,5.13196e-05,-1.78709e-06,0.000163233
1329,-2.48349e-05,5.86049e-06,2.3337e-05,5.41814e-05,-1.08589e-06,0.000116113
1330,-2.57047e-05,2.7262e-06,1.76762e-05,5.45731e-05,-6.51057e-06,4.86324e-05
1331,-8.7058e-06,3.76685e-06,1.69676e-05,5.50409e-05,-1.5008e-05,-9.73694e-06
1332,-5.28116e-06,6.9333e-06,2.18813e-05,5.74789e-05,-1.89618e-05,-3.3103e-05
1333,-1.05002e-05,9.94973e-06,2.68894e-05,5.85219e-05,-1.66576e-05,-4.48794e-05
1334,-1.21333e-05,1.29524e-05,2.93836e-05,5.84651e-05,-1.9102e-05,-7.62935e-05
1335,-1.3292e-05,1.47117e-05,3.06898e-05,5.772e-05,-2.92814e-05,-0.000115238
1336,-1.86375e-05,1.35344e-05,2.95818e-05,5.59913e-05,-4.19982e-05,-0.000129374
1337,-3.52113e-05,1.02325e-05,2.45626e-05,5.49873e-05,-5.42871e-05,-0.000110099
1338,-4.8797e-05,6.7046e-06,1.67224e-05,5.54207e-05,-6.23877e-05,-7.12439e-05
1339,-4.24251e-05,4.69572e-06,9.94716e-06,5.71768e-05,-6.50978e-05,-2.52565e-05
1340,-3.1376e-05,4.37566e-06,9.68263e-06,5.69349e-05,-6.0269e-05,1.6729e-05
1341,-3.80304e-05,5.75036e-06,1.48094e-05,5.52858e-05,-4.6472e-05,4.30124e-05
1342,-5.93711e-05,6.68582e-06,1.72479e-05,5.54991e-05,-3.13378e-05,4.63697e-05
1343,-8.19051e-05,6.41492e-06,1.5816e-05,5.70789e-05,-2.17843e-05,3.11847e-05
1344,-8.79336e-05,6.07083e-06,1.46612e-05,5.80118e-05,-1.6846e-05,1.12607e-05
1345,-6.52327e-05,5.15235e-06,1.55021e-05,5.70489e-05,-1.82291e-05,1.77914e-06
1346,-2.67106e-05,3.27996e-06,1.88673e-05,5.37929e-05,-2.69126e-05,6.96054e-06
1347,3.28537e-06,2.04675e-06,2.42397e-05,5.04725e-05,-3.49207e-05,2.08959e-05
1348,1.50628e-05,3.80553e-06,2.8187e-05,5.0145e-05,-3.34416e-05,3.48762e-05
1349,1.15377e-05,8.01038e-06,2.87655e-05,5.30938e-05,-2.22816e-05,3.90359e-05
1350,4.9264e-06,1.18613e-05,2.76791e-05,5.57122e-05,-6.56587e-06,3.1816e-05
1351,1.27606e-05,1.45266e-05,2.54473e-05,5.4721e-05,6.24226e-06,3.24896e-05
1352,2.91272e-05,1.61645e-05,2.30824e-05,5.14709e-05,9.69297e-06,6.29719e-05
1353,3.46291e-05,1.38254e-05,2.11027e-05,4.96574e-05,4.52144e-06,0.000110156
1354,2.57326e-05,8.31947e-06,1.38916e-05,4.98435e-05,-4.62879e-06,0.000130974
1355,6.84928e-06,4.61319e-06,1.02605e-07,4.98506e-05,-1.5456e-05,0.000104213
1356,-9.00315e-06,4.42876e-06,-1.29402e-05,4.97191e-05,-2.30808e-05,4.71688e-05
1357,5.9796e-06,6.88553e-06,-2.48762e-05,5.08999e-05,-2.01771e-05,-1.53663e-05
1358,4.2906e-05,1.04391e-05,-3.86487e-05,5.47875e-05,-9.12716e-06,-5.95552e-05
1359,6.24375e-05,1.29176e-05,-4.80091e-05,5.55449e-05,1.39727e-06,-6.61942e-05
1360,6.25551e-05,1.54846e-05,-4.67304e-05,5.03234e-05,6.73335e-06,-5.60064e-05
1361,5.44546e-05,1.80718e-05,-3.47681e-05,4.64811e-05,5.67305e-06,-5.26989e-05
1362,4.01476e-05,1.69839e-05,-1.54049e-05,4.54507e-05,1.60646e-06,-3.91459e-05
1363,2.36743e-05,1.32578e-05,2.6005e-06,4.64364e-05,-1.60309e-06,-1.23055e-05
1364,2.89774e-06,9.5807e-06,1.29287e-05,4.6681e-05,-1.0086e-05,6.88683e-06
1365,-6.77843e-06,7.72704e-06,1.77245e-05,4.4845e-05,-2.62711e-05,1.38032e-05
1366,9.62192e-06,9.37343e-06,2.33483e-05,4.37796e-05,-3.69394e-05,1.90688e-05
1367,3.54726e-05,1.14706e-05,3.10927e-05,4.28356e-05,-2.84339e-05,2.41316e-05
1368,4.49253e-05,1.15132e-05,3.53331e-05,3.96397e-05,-1.22322e-06,2.88184e-05
1369,3.3676e-05,1.27717e-05,3.23377e-05,3.51312e-05,2.97095e-05,3.44019e-05
1370,8.89099e-06,1.54468e-05,2.56376e-05,3.3465e-05,4.34568e-05,4.28398e-05
1371,-1.27501e-05,1.56977e-05,2.05985e-05,3.65562e-05,3.16938e-05,6.45421e-05
1372,-1.28281e-05,1.40814e-05,1.95899e-05,4.2855e-05,5.11955e-06,0.000109283
1373,2.43325e-06,1.34492e-05,2.31293e-05,4.76848e-05,-1.85981e-05,0.000162197
1374,9.1929e-06,1.56977e-05,2.88604e-05,4.93533e-05,-2.66628e-05,0.000188175
1375,-1.5342e-06,1.85131e-05,3.29072e-05,4.91346e-05,-1.41737e-05,0.000171957
1376,-2.24151e-05,1.70305e-05,3.27682e-05,4.8408e-05,1.1688e-05,0.000126459
1377,-4.05955e-05,1.08084e-05,2.95645e-05,4.82975e-05,3.31715e-05,6.55795e-05
1378,-3.98902e-05,5.2241e-06,2.53511e-05,5.02738e-05,4.1438e-05,-8.19852e-06
1379,-2.52919e-05,4.68951e-06,2.08969e-05,5.3143e-05,4.19405e-05,-8.05738e-05
1380,-1.62611e-05,1.01198e-05,1.93335e-05,5.5337e-05,4.06072e-05,-0.000118901
1381,-1.97426e-05,1.82087e-05,2.39894e-05,5.7013e-05,3.86585e-05,-0.00011235
1382,-3.67456e-05,2.30318e-05,2.74739e-05,5.77493e-05,3.6462e-05,-9.12475e-05
1383,-5.89261e-05,2.38183e-05,2.35929e-05,5.48551e-05,3.65639e-05,-8.30008e-05
1384,-5.48241e-05,2.17091e-05,1.84046e-05,4.83003e-05,3.95533e-05,-8.30117e-05
1385,-2.50952e-05,1.72264e-05,1.75966e-05,4.32772e-05,3.72058e-05,-7.25432e-05
1386,-6.68567e-06,1.29413e-05,2.05524e-05,4.15723e-05,1.84804e-05,-4.70389e-05
1387,-5.17085e-06,1.05976e-05,2.3084e-05,4.28327e-05,-1.75053e-05,-1.62722e-05
1388,-7.65566e-06,9.6618e-06,2.60532e-05,4.49581e-05,-5.56236e-05,8.06881e-08
1389,-9.08028e-06,9.23915e-06,3.15869e-05,4.38371e-05,-7.18886e-05,-7.38172e-06
1390,-1.19231e-05,9.89469e-06,3.68809e-05,3.97112e-05,-5.77241e-05,-1.51542e-05
1391,-2.8297e-05,1.1273e-05,3.9627e-05,3.72358e-05,-3.24681e-05,1.3781e-06
1392,-4.57969e-05,1.20826e-05,3.92114e-05,3.63898e-05,-1.41122e-05,3.89828e-05
1393,-4.1584e-05,1.37532e-05,3.54187e-05,3.60955e-05,-1.45185e-06,8.00209e-05
1394,-2.26289e-05,1.52568e-05,3.11639e-05,3.65867e-05,1.01695e-05,0.000109748
1395,-1.03639e-05,1.63608e-05,3.26041e-05,4.03191e-05,1.83892e-05,0.000115311
1396,-1.27952e-05,1.81595e-05,3.65665e-05,4.76199e-05,1.98174e-05,8.9746e-05
1397,-2.90425e-05,1.92817e-05,3.63562e-05,5.34798e-05,1.57045e-05,4.42547e-05
1398,-4.4287e-05,1.70489e-05,3.34324e-05,5.52434e-05,1.15234e-05,8.7092e-07
1399,-3.89872e-05,1.32039e-05,3.29987e-05,5.32909e-05,1.11264e-05,-2.55855e-05
1400,-1.86526e-05,1.25418e-05,3.54296e-05,5.10651e-05,1.29727e-05,-3.59615e-05
1401,-6.34561e-06,1.7142e-05,3.63661e-05,5.06131e-05,1.41849e-05,-4.14597e-05
1402,-1.02287e-05,2.30312e-05,3.40215e-05,5.20874e-05,1.15131e-05,-5.19121e-05
1403,-2.38667e-05,2.34929e-05,3.01585e-05,5.48248e-05,5.21565e-07,-6.28999e-05
1404,-3.46046e-05,1.76494e-05,2.59935e-05,5.65614e-05,-1.7671e-05,-5.92484e-05
1405,-2.52251e-05,1.13664e-05,2.16561e-05,5.54157e-05,-3.25045e-05,-3.7548e-05
1406,-2.43415e-06,9.77578e-06,1.97233e-05,5.42664e-05,-3.52684e-05,-1.24425e-05
1407,1.15373e-05,1.21154e-05,2.22373e-05,5.63296e-05,-2.37692e-05,2.72337e-06
1408,9.6862e-06,1.4638e-05,2.60029e-05,5.91737e-05,-2.44989e-06,8.87563e-06
1409,-4.96241e-06,1.34799e-05,2.42686e-05,6.00739e-05,1.37054e-05,1.36033e-05
1410,-2.31323e-05,8.59769e-06,1.78211e-05,5.88269e-05,1.2068e-05,2.06712e-05
1411,-2.04664e-05,4.47027e-06,1.50956e-05,5.75614e-05,-1.56122e-06,2.46824e-05
1412,2.11322e-06,5.1908e-06,1.89815e-05,5.98176e-05,-1.28834e-05,2.36537e-05
1413,1.41469e-05,7.93862e-06,2.28585e-05,6.33018e-05,-1.44256e-05,2.40641e-05
1414,1.20518e-05,8.99517e-06,2.71174e-05,6.31819e-05,-9.15525e-06,2.81581e-05
1415,8.21958e-06,7.72599e-06,3.92397e-05,6.20952e-05,-2.18036e-06,3.18893e-05
1416,6.70932e-06,7.71095e-06,5.46806e-05,6.39787e-05,3.41597e-06,3.42545e-05
1417,2.13867e-06,1.0181e-05,6.35109e-05,6.69025e-05,6.8079e-06,3.7524e-05
1418,-1.38636e-05,9.97294e-06,6.58144e-05,6.66207e-05,9.34937e-06,4.08249e-05
1419,-2.27036e-05,4.88075e-06,6.4015e-05,6.4404e-05,9.02204e-06,4.05371e-05
1420,-8.29399e-06,-3.90249e-07,5.89966e-05,6.67452e-05,5.53194e-06,3.56335e-05
1421,1.169e-05,-1.77155e-07,5.38151e-05,7.33827e-05,4.32934e-07,2.5881e-05
1422,1.78065e-05,5.37012e-06,5.12824e-05,7.83319e-05,-4.02634e-06,1.33842e-05
1423,1.19322e-05,1.05559e-05,5.17889e-05,8.04008e-05,-7.42775e-06,1.07522e-05
1424,-1.65122e-06,1.01809e-05,5.09718e-05,8.07917e-05,-9.85485e-06,3.97952e-05
1425,-1.35392e-05,6.19357e-06,4.7185e-05,8.00632e-05,-6.77768e-06,0.000106247
1426,-1.03156e-05,2.84742e-06,4.22571e-05,7.82304e-05,5.91315e-07,0.000179665
1427,2.30662e-06,1.43013e-06,3.90062e-05,7.54615e-05,1.53694e-06,0.00022339
1428,6.94577e-06,2.46785e-06,3.80294e-05,7.09383e-05,-6.71624e-06,0.000229578
1429,-1.44964e-06,6.77728e-06,3.57882e-05,6.38281e-05,-1.26528e-05,0.000198739
1430,-1.9515e-05,1.24398e-05,3.06009e-05,5.70276e-05,-9.91508e-06,0.000123104
1431,-3.68e-05,1.61574e-05,2.49282e-05,5.22824e-05,-4.5903e-06,2.08682e-05
1432,-3.373e-05,1.6873e-05,2.17001e-05,4.56235e-05,-4.77468e-06,-6.09257e-05
1433,-1.12856e-05,1.48621e-05,2.10964e-05,3.73556e-05,-1.4949e-05,-0.000100836
1434,7.27437e-06,1.23025e-05,2.41227e-05,3.4047e-05,-3.26653e-05,-0.000114523
1435,9.84734e-06,1.1414e-05,3.14843e-05,3.52384e-05,-5.12881e-05,-0.000110508
1436,-2.8412e-06,1.07353e-05,3.70515e-05,3.4447e-05,-6.99531e-05,-8.90962e-05
1437,-2.19344e-05,7.27741e-06,3.59041e-05,2.98466e-05,-8.25415e-05,-6.16964e-05
1438,-1.88054e-05,2.81898e-06,3.4154e-05,2.51197e-05,-7.41049e-05,-4.34321e-05
1439,6.53495e-06,8.43669e-07,3.61394e-05,2.31857e-05,-4.9528e-05,-4.12575e-05
1440,1.95344e-05,2.49216e-06,3.63499e-05,2.33403e-05,-3.11142e-05,-5.62129e-05
1441,1.70199e-05,6.59429e-06,3.46968e-05,2.37872e-05,-2.44642e-05,-8.98896e-05
1442,1.43929e-05,8.3119e-06,3.60043e-05,2.42049e-05,-2.13058e-05,-0.000125704
1443,1.62965e-05,8.51104e-06,3.59636e-05,2.60133e-05,-1.65281e-05,-0.000126808
1444,1.60403e-05,1.12901e-05,3.20542e-05,2.91632e-05,-9.44206e-06,-9.26785e-05
1445,1.33347e-06,1.52138e-05,2.78571e-05,3.12492e-05,-9.48107e-07,-6.8207e-05
1446,-1.1984e-05,1.70907e-05,2.5555e-05,3.20434e-05,5.0663e-06,-7.79919e-05
1447,-2.06706e-06,1.74555e-05,2.56957e-05,3.30191e-05,6.5599e-06,-9.98147e-05
1448,1.73383e-05,1.95313e-05,2.74385e-05,3.57501e-05,8.94476e-06,-0.000100267
1449,2.31666e-05,2.49598e-05,2.62197e-05,4.22436e-05,1.54463e-05,-7.57495e-05
1450,1.33631e-05,3.01591e-05,1.95415e-05,4.93209e-05,2.21069e-05,-5.38886e-05
1451,-5.80479e-06,2.90403e-05,1.3166e-05,5.04785e-05,2.24436e-05,-5.88239e-05
1452,-1.94888e-05,2.38321e-05,1.12957e-05,4.76757e-05,1.71948e-05,-6.72513e-05
1453,-1.2956e-05,2.11866e-05,9.52852e-06,4.89957e-05,1.48667e-05,-2.63388e-05
1454,6.70866e-06,2.11198e-05,4.00503e-06,5.72902e-05,2.46238e-05,8.32283e-05
1455,1.62764e-05,1.92418e-05,-1.1727e-06,6.76654e-05,4.2283e-05,0.000219287
1456,6.98776e-06,1.61267e-05,-2.16312e-06,7.49226e-05,4.76855e-05,0.000317097
1457,-1.33576e-05,1.38663e-05,1.24803e-07,7.89499e-05,2.84176e-05,0.000345236
1458,-3.04963e-05,1.11519e-05,2.38208e-06,8.1478e-05,6.54723e-07,0.000312441
1459,-2.59324e-05,8.66631e-06,3.38999e-06,8.35755e-05,-1.12563e-05,0.000233752
1460,-4.48086e-06,7.0435e-06,5.71191e-06,8.39207e-05,-4.72711e-06,0.000118651
1461,6.67787e-06,5.29487e-06,7.76634e-06,7.81007e-05,5.02056e-06,-2.62358e-06
1462,-1.1248e-06,2.57289e-06,5.16316e-06,6.48021e-05,7.40761e-06,-8.3772e-05
1463,-2.02412e-05,-5.51805e-07,2.08244e-07,4.92178e-05,7.40309e-06,-0.000109782
1464,-3.99278e-05,4.47835e-08,-1.55231e-06,3.80134e-05,1.54699e-05,-0.0001091
1465,-3.39011e-05,6.00835e-06,2.84542e-07,3.2767e-05,3.67689e-05,-0.00010521
1466,-9.71135e-06,1.27852e-05,9.95627e-07,2.86319e-05,6.24879e-05,-9.3157e-05
1467,-3.06863e-06,1.54623e-05,4.6176e-06,2.45823e-05,7.00775e-05,-5.44627e-05
1468,-6.5596e-06,1.38605e-05,1.51118e-05,2.6803e-05,4.82604e-05,1.33783e-05
1469,-4.63184e-06,1.02112e-05,2.42208e-05,3.58129e-05,9.37188e-06,9.06127e-05
1470,-1.64364e-06,8.66809e-06,2.84904e-05,4.37501e-05,-2.88795e-05,0.000142667
1471,-3.69642e-06,1.0571e-05,3.04426e-05,4.76335e-05,-5.58393e-05,0.000145536
1472,-1.99723e-05,1.18031e-05,3.3898e-05,4.94934e-05,-6.9733e-05,0.00011045
1473,-3.55044e-05,1.08476e-05,3.99643e-05,4.99177e-05,-7.51136e-05,6.10614e-05
1474,-2.8939e-05,1.01648e-05,4.29676e-05,4.7727e-05,-7.69645e-05,6.20632e-06
1475,-1.13324e-05,1.09606e-05,4.11226e-05,4.10546e-05,-7.53117e-05,-6.39954e-05
1476,-3.78424e-06,1.39191e-05,3.9787e-05,3.23668e-05,-6.6928e-05,-0.000137963
1477,-9.38232e-06,1.86561e-05,4.00083e-05,2.731e-05,-5.19889e-05,-0.000172183
1478,-2.42411e-05,2.02659e-05,3.71475e-05,2.85554e-05,-3.81746e-05,-0.000147711
1479,-3.40893e-05,1.78116e-05,3.00065e-05,3.28773e-05,-3.01515e-05,-9.94547e-05
1480,-2.5092e-05,1.51082e-05,2.12007e-05,3.63162e-05,-2.74662e-05,-7.23515e-05
1481,-6.41666e-06,1.40784e-05,1.46762e-05,3.69437e-05,-2.95251e-05,-7.15462e-05
1482,3.39524e-06,1.4275e-05,1.11216e-05,3.64473e-05,-3.665e-05,-6.93164e-05
1483,-2.82936e-07,1.56751e-05,8.14925e-06,3.60535e-05,-4.75565e-05,-4.30599e-05
1484,-1.43515e-05,1.71003e-05,5.57104e-06,3.44138e-05,-5.4625e-05,1.96288e-06
1485,-2.74411e-05,1.66724e-05,4.54789e-06,3.2012e-05,-4.56878e-05,3.98156e-05
1486,-1.96059e-05,1.51022e-05,4.00062e-06,3.21672e-05,-1.47202e-05,5.28236e-05
1487,2.88109e-06,1.39913e-05,2.50555e-06,3.58438e-05,2.75007e-05,4.97209e-05
1488,1.40398e-05,1.3699e-05,-1.63561e-09,4.13123e-05,5.20411e-05,4.52293e-05
1489,7.51243e-06,1.44432e-05,-4.79144e-06,4.91145e-05,3.87044e-05,4.45046e-05
1490,-1.01287e-05,1.44312e-05,-9.98124e-06,5.77827e-05,5.79894e-06,5.11391e-05
1491,-2.95505e-05,1.05881e-05,-1.37828e-05,6.06784e-05,-1.80016e-05,5.52727e-05
1492,-2.47981e-05,5.24693e-06,-1.8375e-05,5.77873e-05,-2.87656e-05,4.04342e-05
1493,2.58032e-06,2.00994e-06,-2.26057e-05,5.66799e-05,-3.31257e-05,3.30534e-05
1494,1.73097e-05,1.63155e-06,-1.7822e-05,5.52107e-05,-2.78787e-05,8.13786e-05
1495,1.64056e-05,4.05465e-06,-1.83994e-06,4.95684e-05,-1.62025e-05,0.000158861
1496,1.34284e-05,7.21322e-06,1.07857e-05,4.23005e-05,-6.64764e-06,0.000195048
1497,9.47138e-06,8.40878e-06,1.36745e-05,3.65564e-05,-1.37762e-06,0.000182248
1498,2.92136e-06,8.14572e-06,1.70521e-05,3.35424e-05,1.21028e-06,0.000151145
1499,-1.31603e-05,6.73655e-06,2.78252e-05,3.26763e-05,3.19249e-06,0.000111844
1500,-2.46003e-05,4.94863e-06,4.0852e-05,3.28586e-05,4.61102e-06,5.72479e-05
1501,-1.39435e-05,3.14626e-06,4.82883e-05,3.51413e-05,7.10734e-06,-1.23315e-05
1502,5.77439e-06,1.40557e-06,4.87915e-05,4.0529e-05,1.32296e-05,-8.91608e-05
1503,1.52579e-05,2.42042e-06,4.7232e-05,4.55098e-05,2.50245e-05,-0.000156583
1504,9.83006e-06,5.93247e-06,4.83549e-05,4.73412e-05,3.93427e-05,-0.000185755
1505,-8.24194e-06,9.52578e-06,5.06334e-05,4.81179e-05,4.6188e-05,-0.000165537
1506,-2.31159e-05,1.22175e-05,4.89974e-05,4.85917e-05,4.00845e-05,-0.00011309
1507,-1.74069e-05,1.48812e-05,4.20721e-05,4.58206e-05,2.59771e-05,-4.90906e-05
1508,1.8035e-06,1.7721e-05,3.73973e-05,3.90153e-05,1.00151e-05,8.72844e-06
1509,1.25742e-05,2.07375e-05,3.85061e-05,3.17764e-05,-7.12083e-06,3.92233e-05
1510,5.75092e-06,2.47566e-05,3.96273e-05,2.68847e-05,-2.58532e-05,3.54995e-05
1511,-1.21736e-05,2.74153e-05,3.66869e-05,2.48958e-05,-4.31006e-05,1.51368e-05
1512,-2.52226e-05,2.48002e-05,3.29511e-05,2.68929e-05,-5.46703e-05,9.48324e-07
1513,-1.51659e-05,1.8005e-05,3.22181e-05,3.3522e-05,-5.86631e-05,1.17305e-06
1514,1.05706e-05,1.23535e-05,3.35451e-05,4.14974e-05,-5.86197e-05,1.32745e-05
1515,2.56915e-05,1.16484e-05,3.55734e-05,4.72572e-05,-6.37393e-05,3.00622e-05
1516,2.42228e-05,1.40445e-05,4.03537e-05,5.38113e-05,-7.60589e-05,4.12057e-05
1517,1.29595e-05,1.45038e-05,4.57016e-05,6.22967e-05,-8.01315e-05,4.03232e-05
1518,-3.58716e-06,1.2062e-05,4.63815e-05,6.8869e-05,-5.83977e-05,3.1029e-05
1519,-3.84933e-06,1.12148e-05,4.64336e-05,7.29016e-05,-1.2565e-05,2.56651e-05
1520,1.03822e-05,1.36142e-05,5.26612e-05,7.50465e-05,3.33737e-05,2.88404e-05
1521,1.12671e-05,1.46544e-05,5.90633e-05,7.66821e-05,4.90379e-05,2.58808e-05
1522,6.86315e-06,1.34175e-05,5.57427e-05,8.14637e-05,3.42288e-05,1.55926e-05
1523,9.19678e-06,1.21471e-05,4.65433e-05,8.62571e-05,8.64945e-06,1.85891e-05
1524,1.12057e-05,1.19545e-05,4.14479e-05,8.39442e-05,-1.58384e-05,5.80194e-05
1525,7.43247e-06,1.20691e-05,4.35127e-05,7.83665e-05,-3.29553e-05,0.000129256
1526,-7.97343e-06,9.80105e-06,4.60418e-05,7.66457e-05,-3.97936e-05,0.000185462
1527,-2.00853e-05,3.35406e-06,4.19967e-05,7.69363e-05,-3.34299e-05,0.000195161
1528,-1.16481e-05,-2.74543e-06,3.4392e-05,7.70296e-05,-1.80221e-05,0.000170022
1529,7.43958e-06,-2.54502e-06,3.22608e-05,7.72501e-05,-6.6909e-07,0.000131248
1530,1.87818e-05,2.39306e-06,3.32626e-05,7.75124e-05,1.31707e-05,8.20009e-05
1531,1.79609e-05,7.11794e-06,2.86575e-05,7.73004e-05,2.42699e-05,2.38002e-05
1532,6.72701e-06,7.9079e-06,1.95248e-05,7.80902e-05,3.54483e-05,-2.05926e-05
1533,-3.90512e-06,4.99866e-06,1.30753e-05,7.99812e-05,4.44988e-05,-3.05323e-05
1534,-3.80607e-07,2.16284e-06,1.11299e-05,7.81144e-05,4.06083e-05,-2.09632e-05
1535,1.07044e-05,3.2386e-06,1.06865e-05,7.05852e-05,1.81314e-05,-2.52498e-05
1536,1.16682e-05,8.55131e-06,1.25187e-05,6.32668e-05,-8.77328e-06,-5.07364e-05
1537,-4.31497e-06,1.3542e-05,1.80368e-05,6.09241e-05,-1.73306e-05,-7.24073e-05
1538,-3.34823e-05,1.50166e-05,2.34931e-05,6.2072e-05,-2.41692e-06,-6.58341e-05
1539,-5.96194e-05,1.42925e-05,2.66058e-05,6.51257e-05,9.22036e-06,-3.21667e-05
1540,-5.88521e-05,1.21065e-05,2.86538e-05,7.00578e-05,-1.14174e-05,6.45267e-06
1541,-3.84219e-05,8.97942e-06,3.02082e-05,7.45953e-05,-5.77799e-05,3.08649e-05
1542,-3.08925e-05,7.62116e-06,3.10056e-05,7.61404e-05,-9.65687e-05,3.94007e-05
1543,-4.39869e-05,9.89488e-06,3.00931e-05,7.38579e-05,-0.000104989,4.15903e-05
1544,-6.41754e-05,1.29464e-05,2.94649e-05,6.92296e-05,-8.15487e-05,4.67073e-05
1545,-8.11856e-05,1.14649e-05,3.01094e-05,6.52765e-05,-4.14117e-05,5.6178e-05
1546,-7.38901e-05,6.47282e-06,3.18069e-05,6.31327e-05,-4.37191e-06,6.07348e-05
1547,-4.70147e-05,3.5462e-06,3.64468e-05,6.23793e-05,1.60506e-05,4.66046e-05
1548,-3.28047e-05,3.3984e-06,4.23488e-05,6.25845e-05,1.90853e-05,1.48644e-05
