Time_Index,DELTOID_Affected,DELTOID_NonAffected,BICEPS_Affected,BICEPS_NonAffected,FOREARM_Affected,FOREARM_NonAffected
1,2.21565e-05,1.68725e-05,1.93699e-05,5.42301e-05,-8.93362e-06,1.70482e-05
2,2.1379e-05,1.52146e-05,2.38853e-05,5.64793e-05,-5.79848e-06,1.7235e-05
3,7.99046e-06,1.422e-05,2.4456e-05,5.69021e-05,-3.72701e-06,1.38047e-05
4,-1.26924e-05,1.23407e-05,2.24384e-05,5.23254e-05,-2.97723e-06,9.48907e-06
5,-2.21436e-05,8.17196e-06,2.09023e-05,4.8927e-05,-2.41038e-06,8.21033e-06
6,-1.00132e-05,3.66639e-06,2.09692e-05,5.04027e-05,-3.03501e-06,1.05172e-05
7,8.14454e-06,1.20959e-06,2.19233e-05,5.42794e-05,-4.81864e-06,1.52769e-05
8,1.30807e-05,2.08703e-06,2.34127e-05,5.56093e-05,-6.88041e-06,1.96412e-05
9,1.2354e-06,5.02312e-06,2.33586e-05,5.44115e-05,-8.56946e-06,1.86915e-05
10,-2.07808e-05,7.27152e-06,2.42453e-05,5.19829e-05,-8.85044e-06,1.18068e-05
11,-2.77256e-05,6.6905e-06,2.71472e-05,5.13731e-05,-8.22381e-06,7.50494e-06
12,-1.0217e-05,6.12779e-06,2.86749e-05,5.49264e-05,-8.61648e-06,7.6883e-06
13,8.54631e-06,6.06298e-06,2.77607e-05,5.95471e-05,-9.92423e-06,6.983e-06
14,1.09373e-05,6.19595e-06,2.90691e-05,6.20411e-05,-1.07749e-05,3.41995e-06
15,-1.48507e-06,5.19065e-06,3.36879e-05,6.2015e-05,-1.13854e-05,1.34625e-06
16,-2.89413e-05,4.18105e-06,3.66124e-05,5.99008e-05,-1.23447e-05,2.46775e-06
17,-4.52582e-05,4.55072e-06,3.72312e-05,5.98129e-05,-9.88493e-06,4.13684e-06
18,-2.67391e-05,5.79422e-06,3.62274e-05,5.87208e-05,-6.66099e-06,8.54806e-06
19,-4.87106e-06,8.59059e-06,3.43118e-05,5.17891e-05,-8.14615e-06,1.03895e-05
20,4.65997e-06,9.38052e-06,3.21723e-05,4.7735e-05,-9.13537e-06,8.84503e-06
21,1.30941e-05,7.92908e-06,3.14548e-05,4.79486e-05,-5.7327e-06,8.82168e-06
22,1.40989e-05,5.85443e-06,3.07792e-05,4.90317e-05,-3.10189e-06,1.08891e-05
23,9.58574e-06,4.28303e-06,2.69262e-05,5.06443e-05,-5.52449e-06,1.22309e-05
24,-6.8247e-06,4.76403e-06,2.41411e-05,5.3151e-05,-9.53155e-06,9.94378e-06
25,-2.80785e-05,4.36624e-06,2.51165e-05,5.69262e-05,-1.04415e-05,4.93126e-06
26,-3.09237e-05,3.73601e-06,2.63474e-05,5.8098e-05,-1.09316e-05,3.852e-06
27,-1.30643e-05,5.36864e-06,2.3724e-05,5.87666e-05,-1.38638e-05,9.4346e-06
28,1.63462e-07,8.85431e-06,2.01239e-05,6.11958e-05,-1.53006e-05,1.52325e-05
29,-1.2445e-06,9.41043e-06,1.84993e-05,6.41807e-05,-1.14542e-05,1.4748e-05
30,-1.70159e-05,7.73547e-06,1.83577e-05,6.54015e-05,-3.38746e-06,9.19217e-06
31,-3.54772e-05,4.65717e-06,2.15145e-05,6.44654e-05,3.82367e-06,6.62164e-06
32,-3.59387e-05,2.2617e-06,2.48743e-05,6.17278e-05,5.83966e-06,1.01248e-05
33,-1.70282e-05,9.11403e-07,2.40647e-05,5.66944e-05,3.61179e-06,1.69998e-05
34,-3.12943e-07,6.64894e-07,2.14818e-05,5.27802e-05,2.6604e-06,2.1045e-05
35,-1.65493e-06,2.33593e-06,2.22589e-05,5.21609e-05,4.01772e-06,2.11448e-05
36,-1.81295e-05,5.61572e-06,2.62121e-05,5.23648e-05,6.06165e-06,1.71974e-05
37,-4.09759e-05,9.02591e-06,3.04988e-05,5.14796e-05,8.0421e-06,1.08705e-05
38,-4.83284e-05,1.07541e-05,3.18166e-05,5.09566e-05,7.39088e-06,7.36107e-06
39,-3.06943e-05,1.29388e-05,3.15954e-05,4.9193e-05,6.39859e-06,9.5906e-06
40,-7.60921e-06,1.40416e-05,3.17828e-05,4.74696e-05,7.48942e-06,1.46009e-05
41,8.15795e-07,1.48169e-05,3.1092e-05,4.9676e-05,7.5588e-06,1.82286e-05
42,-6.18316e-06,1.78065e-05,2.9493e-05,5.21881e-05,5.4484e-06,1.83857e-05
43,-2.94816e-05,2.19397e-05,2.8667e-05,4.96288e-05,-3.19665e-08,1.59312e-05
44,-4.29143e-05,2.31139e-05,3.01714e-05,4.43499e-05,-5.15911e-06,1.55903e-05
45,-2.09406e-05,1.87781e-05,3.37606e-05,4.22296e-05,-5.97845e-06,1.84704e-05
46,3.145e-06,1.37071e-05,3.73242e-05,4.3446e-05,-6.06097e-06,2.33136e-05
47,6.35986e-06,1.50859e-05,3.7507e-05,4.26719e-05,-8.4082e-06,2.73776e-05
48,3.70029e-06,1.95637e-05,3.46461e-05,4.15215e-05,-1.07869e-05,2.77711e-05
49,-8.42271e-07,2.30792e-05,3.21362e-05,4.22009e-05,-1.24803e-05,2.54603e-05
50,-1.1984e-06,2.37493e-05,3.3489e-05,4.20442e-05,-1.57133e-05,2.52983e-05
51,-1.14974e-05,2.26605e-05,3.52704e-05,3.8148e-05,-1.47106e-05,2.63733e-05
52,-3.03538e-05,1.92883e-05,3.47064e-05,3.51168e-05,-9.34929e-06,2.56485e-05
53,-3.00257e-05,1.7322e-05,3.44844e-05,3.65437e-05,-6.28578e-06,2.48739e-05
54,-6.20528e-06,1.77207e-05,3.37031e-05,3.81654e-05,-6.31969e-06,2.53585e-05
55,1.28118e-05,1.8205e-05,3.05013e-05,3.85901e-05,-5.98167e-06,2.76318e-05
56,1.59164e-05,2.01726e-05,2.83381e-05,4.1941e-05,-5.76375e-06,2.87758e-05
57,6.25786e-06,2.23895e-05,3.04107e-05,4.77117e-05,-6.12443e-06,2.62603e-05
58,-8.06794e-06,2.13958e-05,3.32956e-05,4.95706e-05,-6.79247e-06,2.22684e-05
59,-1.0259e-05,1.59615e-05,3.49888e-05,4.86121e-05,-6.66867e-06,1.90811e-05
60,2.90862e-06,9.22773e-06,3.47782e-05,4.92573e-05,-6.21377e-06,1.62499e-05
61,1.52367e-05,6.24313e-06,3.10941e-05,5.15145e-05,-7.62109e-06,1.54306e-05
62,1.46802e-05,8.9764e-06,2.52688e-05,5.1461e-05,-1.01736e-05,1.70481e-05
63,1.44782e-06,1.28842e-05,2.05454e-05,4.98821e-05,-1.08657e-05,1.65702e-05
64,-2.16124e-05,1.39311e-05,1.75651e-05,4.8956e-05,-1.04109e-05,1.35075e-05
65,-2.96919e-05,1.25722e-05,1.51799e-05,5.02376e-05,-1.16094e-05,1.24203e-05
66,-1.20327e-05,1.2445e-05,1.36168e-05,5.48178e-05,-1.39952e-05,1.26445e-05
67,1.06238e-05,1.41138e-05,1.55814e-05,6.06485e-05,-1.96554e-05,1.14064e-05
68,1.71182e-05,1.6037e-05,1.80517e-05,6.36048e-05,-2.48742e-05,8.95894e-06
69,6.49321e-06,1.51086e-05,1.71714e-05,6.28244e-05,-2.40489e-05,6.54566e-06
70,-2.11216e-05,9.70353e-06,1.795e-05,6.31187e-05,-2.06658e-05,8.32468e-06
71,-3.72242e-05,4.86669e-06,2.06844e-05,6.69754e-05,-1.72579e-05,1.44196e-05
72,-1.55489e-05,5.13134e-06,2.27955e-05,6.67838e-05,-1.4093e-05,1.93018e-05
73,6.0207e-06,9.68378e-06,2.37624e-05,6.03011e-05,-1.40075e-05,1.78417e-05
74,9.12362e-06,1.09875e-05,2.35654e-05,5.72659e-05,-1.24645e-05,1.59256e-05
75,9.35717e-06,7.27251e-06,2.23539e-05,5.88227e-05,-1.06383e-05,1.56719e-05
76,9.25015e-06,4.71449e-06,2.04127e-05,5.94423e-05,-1.20461e-05,1.37931e-05
77,1.08817e-05,4.17844e-06,1.81309e-05,5.97887e-05,-1.2792e-05,1.05695e-05
78,-4.40283e-06,6.68363e-06,1.42591e-05,6.01561e-05,-1.26917e-05,8.96766e-06
79,-2.92312e-05,7.62871e-06,1.35602e-05,5.65903e-05,-1.37624e-05,1.03637e-05
80,-3.21502e-05,6.62878e-06,1.60142e-05,4.97032e-05,-1.60384e-05,1.11494e-05
81,-1.05387e-05,6.07534e-06,1.55792e-05,4.32526e-05,-1.99963e-05,1.09343e-05
82,5.91009e-06,8.33565e-06,1.42103e-05,4.07871e-05,-2.17092e-05,1.03853e-05
83,6.99381e-06,1.4244e-05,1.68396e-05,4.25032e-05,-1.89907e-05,9.53973e-06
84,-4.53082e-06,1.98755e-05,2.16456e-05,4.45674e-05,-1.57043e-05,6.29243e-06
85,-2.18738e-05,2.04754e-05,2.3874e-05,4.66059e-05,-1.45988e-05,4.18957e-06
86,-2.52253e-05,1.81063e-05,2.36309e-05,4.82114e-05,-1.28374e-05,7.19723e-06
87,-9.82001e-06,1.60726e-05,2.24268e-05,4.57861e-05,-7.44674e-06,1.23766e-05
88,6.29669e-06,1.53874e-05,2.56979e-05,4.144e-05,-3.91808e-06,1.40404e-05
89,7.86281e-06,1.76462e-05,3.35004e-05,4.11261e-05,-5.69567e-06,1.13512e-05
90,-6.25351e-06,2.10517e-05,3.63022e-05,4.46932e-05,-9.55681e-06,7.84954e-06
91,-2.9473e-05,2.22381e-05,3.10601e-05,4.84071e-05,-1.00916e-05,6.75061e-06
92,-3.5642e-05,1.972e-05,2.77604e-05,5.0466e-05,-7.70057e-06,7.8437e-06
93,-1.65339e-05,1.60501e-05,3.10078e-05,5.08245e-05,-8.04699e-06,8.65688e-06
94,4.41929e-06,1.41675e-05,3.49719e-05,5.12845e-05,-1.10743e-05,7.79834e-06
95,5.90646e-06,1.1666e-05,3.70319e-05,5.1501e-05,-1.33202e-05,6.33659e-06
96,-1.00151e-05,7.39043e-06,3.93956e-05,5.01929e-05,-1.34334e-05,5.7619e-06
97,-3.7448e-05,6.00724e-06,4.21685e-05,4.87304e-05,-1.17902e-05,9.63571e-06
98,-4.93854e-05,6.14106e-06,4.21847e-05,4.70644e-05,-1.26825e-05,1.64758e-05
99,-2.65447e-05,8.05352e-06,3.97847e-05,4.93432e-05,-1.61107e-05,1.76176e-05
100,-3.95466e-06,9.71438e-06,3.81305e-05,5.18161e-05,-1.54853e-05,1.65729e-05
101,6.77936e-07,7.51422e-06,4.03379e-05,4.99893e-05,-1.01673e-05,1.69643e-05
102,1.97016e-06,3.32506e-06,4.24238e-05,4.90774e-05,-6.05943e-06,1.64503e-05
103,4.05199e-06,2.39614e-06,4.38198e-05,4.98912e-05,-2.5947e-06,1.49454e-05
104,7.76552e-06,5.30067e-06,4.46174e-05,5.48453e-05,-1.8652e-06,1.35893e-05
105,3.22836e-07,9.98026e-06,4.19278e-05,5.95188e-05,-7.13214e-06,1.14836e-05
106,-1.6824e-05,1.31875e-05,4.03121e-05,6.00548e-05,-1.36789e-05,1.09494e-05
107,-2.38083e-05,1.58576e-05,3.85264e-05,5.81331e-05,-1.4897e-05,1.38631e-05
108,-1.22206e-05,1.67337e-05,3.40023e-05,5.59236e-05,-1.3002e-05,1.59973e-05
109,1.51611e-06,1.47825e-05,2.99402e-05,5.31743e-05,-1.29102e-05,1.6574e-05
110,6.50902e-06,1.24986e-05,2.77357e-05,5.05451e-05,-1.22208e-05,1.55627e-05
111,-2.88621e-06,1.07394e-05,2.53155e-05,4.76283e-05,-1.04019e-05,1.31989e-05
112,-2.20289e-05,7.33908e-06,2.273e-05,4.38348e-05,-8.16395e-06,1.1896e-05
113,-2.89243e-05,2.84853e-06,2.1183e-05,4.11516e-05,-7.06565e-06,1.27272e-05
114,-1.68601e-05,2.80871e-06,2.09291e-05,4.027e-05,-7.05226e-06,1.54942e-05
115,-3.49335e-06,6.07662e-06,2.11432e-05,4.13934e-05,-8.48661e-06,1.75148e-05
116,-1.26767e-07,8.16167e-06,2.10331e-05,4.30264e-05,-9.38398e-06,1.64975e-05
117,-5.74608e-06,7.43808e-06,2.096e-05,4.55657e-05,-6.36148e-06,1.32286e-05
118,-2.08895e-05,6.34804e-06,2.10722e-05,4.50952e-05,-1.6497e-06,9.02018e-06
119,-2.73875e-05,6.5388e-06,2.18614e-05,4.17475e-05,-2.09908e-06,8.04004e-06
120,-1.04227e-05,6.13274e-06,2.46477e-05,3.95022e-05,-8.32982e-06,1.12896e-05
121,1.21819e-05,4.7709e-06,2.85172e-05,3.82132e-05,-1.33126e-05,1.23909e-05
122,1.94132e-05,5.14035e-06,3.08158e-05,3.82888e-05,-1.31669e-05,1.01736e-05
123,1.22974e-05,5.2469e-06,2.99018e-05,4.12998e-05,-1.1467e-05,7.64615e-06
124,-1.07807e-05,2.98457e-06,3.03615e-05,4.20535e-05,-1.0024e-05,3.32299e-06
125,-2.51614e-05,4.41181e-07,3.59213e-05,4.0198e-05,-5.45033e-06,-1.3243e-06
126,-7.17319e-06,1.45861e-06,4.20517e-05,3.89016e-05,-2.1994e-06,4.27214e-06
127,1.19959e-05,3.71329e-06,4.44349e-05,3.75068e-05,-4.81732e-06,1.32212e-05
128,1.51437e-05,5.47806e-06,3.97977e-05,3.60535e-05,-1.0227e-05,1.26728e-05
129,1.669e-05,7.49145e-06,3.27772e-05,3.75451e-05,-1.42343e-05,9.45285e-06
130,1.94962e-05,1.00907e-05,3.08021e-05,4.10564e-05,-1.4214e-05,8.74443e-06
131,2.28988e-05,1.25758e-05,3.42012e-05,4.39562e-05,-1.11618e-05,1.17116e-05
132,1.33012e-05,1.48532e-05,3.65145e-05,4.86522e-05,-7.50549e-06,1.43095e-05
133,-6.46246e-06,1.3648e-05,3.63038e-05,5.50067e-05,-5.1134e-06,1.35246e-05
134,-1.01105e-05,1.18651e-05,3.3566e-05,6.07478e-05,-3.87794e-06,1.13261e-05
135,4.1026e-06,1.22104e-05,3.04158e-05,6.06908e-05,-3.52577e-06,1.13398e-05
136,1.65246e-05,1.37896e-05,2.85072e-05,5.77111e-05,-5.66364e-06,1.19047e-05
137,2.079e-05,1.78308e-05,2.80282e-05,5.69718e-05,-7.8737e-06,1.10987e-05
138,1.17126e-05,2.15302e-05,2.83714e-05,5.89395e-05,-7.486e-06,1.00889e-05
139,-7.36657e-06,2.11796e-05,2.69982e-05,6.18106e-05,-6.22774e-06,9.54139e-06
140,-1.69078e-05,1.81456e-05,2.51381e-05,6.44326e-05,-6.36626e-06,1.03778e-05
141,-5.52448e-06,1.70043e-05,2.35075e-05,6.50773e-05,-7.59562e-06,1.24972e-05
142,1.23989e-05,1.95019e-05,2.06153e-05,6.08486e-05,-8.64036e-06,1.50475e-05
143,1.95204e-05,2.50122e-05,1.77194e-05,5.34615e-05,-9.38808e-06,1.50534e-05
144,9.18888e-06,2.74889e-05,1.62302e-05,4.85335e-05,-9.81255e-06,1.34485e-05
145,-1.37082e-05,2.5927e-05,1.57872e-05,4.85137e-05,-9.63196e-06,1.28445e-05
146,-2.27566e-05,2.38836e-05,1.72392e-05,5.06475e-05,-8.05182e-06,1.43698e-05
147,-7.0974e-06,2.10333e-05,1.87151e-05,5.30122e-05,-5.84234e-06,1.64801e-05
148,9.49941e-06,1.76456e-05,2.17375e-05,5.30202e-05,-5.9129e-06,1.83144e-05
149,9.99635e-06,1.78668e-05,2.73103e-05,5.0404e-05,-6.64349e-06,1.93644e-05
150,-2.01117e-06,1.9333e-05,3.18054e-05,4.75534e-05,-7.95725e-06,2.10972e-05
151,-2.62741e-05,1.8115e-05,3.03262e-05,5.0212e-05,-8.27555e-06,1.95626e-05
152,-3.93708e-05,1.54611e-05,2.80601e-05,5.74611e-05,-3.99885e-06,1.48104e-05
153,-2.44001e-05,1.5319e-05,3.09707e-05,6.21366e-05,3.66625e-07,1.116e-05
154,-1.09522e-05,1.57626e-05,3.32334e-05,6.43719e-05,1.86471e-06,9.17378e-06
155,-1.01764e-05,1.55013e-05,2.8774e-05,6.60491e-05,-1.32532e-06,1.48559e-05
156,-8.04149e-06,1.59107e-05,2.44065e-05,6.49184e-05,-3.46261e-06,2.40007e-05
157,-4.81002e-06,1.48284e-05,2.55381e-05,6.00007e-05,-3.30889e-06,3.0075e-05
158,-1.6758e-06,1.37748e-05,2.83067e-05,5.58911e-05,-4.33765e-06,3.30218e-05
159,-1.29679e-05,1.16794e-05,2.9556e-05,5.55822e-05,-2.40194e-06,3.04772e-05
160,-3.47747e-05,6.3065e-06,3.21539e-05,5.66674e-05,1.45222e-06,2.31604e-05
161,-3.65687e-05,2.75998e-06,3.60993e-05,5.52137e-05,4.42399e-06,1.63288e-05
162,-1.15306e-05,2.42748e-06,3.59004e-05,5.16843e-05,2.50348e-06,1.65328e-05
163,1.24177e-05,4.7733e-06,3.25324e-05,4.99939e-05,-1.30378e-06,2.19455e-05
164,1.88543e-05,7.65884e-06,3.01096e-05,5.21511e-05,-2.58493e-06,2.44584e-05
165,4.98711e-06,7.20583e-06,2.92677e-05,5.56541e-05,-1.9325e-06,2.16115e-05
166,-1.78452e-05,5.54817e-06,2.94701e-05,5.67026e-05,-2.75384e-06,1.83685e-05
167,-2.50498e-05,7.60758e-06,3.13237e-05,5.4685e-05,-5.4427e-06,1.88755e-05
168,-9.75535e-06,1.15024e-05,3.40399e-05,5.09549e-05,-7.21942e-06,2.10905e-05
169,9.77331e-06,1.28135e-05,3.55011e-05,4.77123e-05,-7.16867e-06,2.22214e-05
170,1.6576e-05,1.09292e-05,3.5264e-05,4.67187e-05,-8.11759e-06,2.30943e-05
171,6.95758e-06,5.8827e-06,3.26114e-05,4.72539e-05,-1.06896e-05,2.31758e-05
172,-1.58479e-05,-6.50952e-07,2.91874e-05,4.5782e-05,-1.06758e-05,2.31211e-05
173,-2.76743e-05,-4.19267e-06,2.80736e-05,4.35003e-05,-8.90528e-06,2.55237e-05
174,-1.50128e-05,3.60677e-07,2.84941e-05,4.16575e-05,-7.06413e-06,2.6531e-05
175,6.59394e-07,1.00181e-05,2.73274e-05,3.92491e-05,-5.83674e-06,2.41289e-05
176,3.68802e-06,1.91321e-05,2.64453e-05,4.05536e-05,-5.08035e-06,1.84671e-05
177,-3.7343e-06,2.29191e-05,2.72697e-05,4.74858e-05,-3.15461e-06,1.17329e-05
178,-2.61249e-05,2.07525e-05,2.50036e-05,5.34167e-05,-2.26368e-06,8.49048e-06
179,-3.78789e-05,1.60338e-05,2.40838e-05,4.84866e-05,-6.63954e-06,1.13205e-05
180,-1.54756e-05,1.06963e-05,2.66156e-05,3.91472e-05,-1.37888e-05,1.91186e-05
181,3.17447e-06,7.43488e-06,2.68861e-05,3.92397e-05,-1.92629e-05,2.13635e-05
182,4.97466e-07,6.59677e-06,2.53431e-05,4.6534e-05,-2.04657e-05,1.77495e-05
183,-3.95162e-06,5.85401e-06,2.24889e-05,5.47838e-05,-1.94903e-05,1.55484e-05
184,-1.40418e-06,7.71242e-06,2.08553e-05,5.43611e-05,-1.73376e-05,1.46585e-05
185,6.872e-06,9.92734e-06,2.41752e-05,4.84557e-05,-1.29725e-05,1.63321e-05
186,-1.97988e-06,1.05086e-05,2.94915e-05,4.44493e-05,-8.97962e-06,1.81827e-05
187,-2.34575e-05,1.06122e-05,3.36955e-05,4.0931e-05,-8.758e-06,1.68022e-05
188,-2.62616e-05,1.03445e-05,3.47462e-05,4.08602e-05,-1.10738e-05,1.58192e-05
189,-5.80941e-06,1.21949e-05,3.42978e-05,4.39813e-05,-1.23539e-05,1.56421e-05
190,1.17022e-05,1.41691e-05,3.05725e-05,4.90702e-05,-1.10886e-05,1.55725e-05
191,1.5424e-05,1.42504e-05,2.5916e-05,5.22273e-05,-1.04304e-05,1.65817e-05
192,3.31913e-06,1.22287e-05,2.36542e-05,5.30419e-05,-1.12041e-05,1.69198e-05
193,-1.70374e-05,8.89592e-06,2.4598e-05,5.03007e-05,-9.07295e-06,1.35638e-05
194,-2.30739e-05,7.29879e-06,2.57608e-05,4.41487e-05,-3.57948e-06,7.22975e-06
195,-7.21081e-06,9.47066e-06,2.50027e-05,3.99353e-05,1.5061e-06,4.59309e-06
196,1.1874e-05,1.34153e-05,2.34304e-05,4.23098e-05,2.43791e-06,7.0984e-06
197,1.71181e-05,1.51926e-05,2.30592e-05,4.76309e-05,-8.65296e-08,9.52462e-06
198,5.43724e-06,1.39274e-05,2.41123e-05,4.93252e-05,-1.12965e-06,9.72372e-06
199,-1.78191e-05,1.03474e-05,2.30588e-05,4.75807e-05,2.43503e-06,1.02055e-05
200,-2.73568e-05,8.1021e-06,2.13178e-05,4.65267e-05,6.62327e-06,1.17472e-05
201,-1.04916e-05,8.90126e-06,2.02894e-05,4.67152e-05,6.81785e-06,1.23012e-05
202,1.0007e-05,1.07966e-05,1.95542e-05,4.81613e-05,2.30353e-06,9.4888e-06
203,1.35427e-05,1.46907e-05,1.83129e-05,5.32145e-05,-2.53958e-06,8.335e-06
204,2.1636e-06,1.89173e-05,1.70497e-05,5.78792e-05,-2.2787e-06,1.2523e-05
205,-2.34785e-05,1.79829e-05,1.59585e-05,5.76334e-05,1.65006e-06,1.59796e-05
206,-3.52491e-05,1.57925e-05,1.79827e-05,5.39202e-05,2.54375e-06,1.48617e-05
207,-1.1263e-05,1.59106e-05,1.86308e-05,5.48262e-05,-2.74072e-06,1.34721e-05
208,1.08325e-05,1.46718e-05,1.78247e-05,5.71741e-05,-9.25239e-06,1.22392e-05
209,1.04639e-05,1.27253e-05,1.80902e-05,5.6374e-05,-1.0544e-05,9.63603e-06
210,6.24529e-06,1.07973e-05,1.92605e-05,5.55541e-05,-1.09582e-05,8.3443e-06
211,3.76166e-06,1.1533e-05,2.08033e-05,5.23064e-05,-1.49059e-05,6.71453e-06
212,5.0016e-06,1.63986e-05,1.94135e-05,4.70823e-05,-1.52663e-05,6.81344e-06
213,-5.2612e-06,2.1965e-05,1.49538e-05,4.47729e-05,-1.15974e-05,8.53393e-06
214,-2.47076e-05,2.37298e-05,1.29254e-05,4.56807e-05,-1.26753e-05,9.54104e-06
215,-2.66298e-05,2.2895e-05,1.5424e-05,4.83309e-05,-1.77781e-05,1.28657e-05
216,-7.43402e-06,1.94211e-05,1.83807e-05,4.99549e-05,-2.04956e-05,1.64211e-05
217,1.00947e-05,1.57176e-05,2.13946e-05,4.96665e-05,-1.88117e-05,1.50628e-05
218,1.54271e-05,1.46035e-05,2.36533e-05,5.04393e-05,-1.67496e-05,1.01046e-05
219,4.73855e-06,1.29309e-05,2.44428e-05,5.20742e-05,-1.76563e-05,8.02693e-06
220,-1.61937e-05,9.81743e-06,2.45085e-05,5.11197e-05,-1.73611e-05,1.02564e-05
221,-2.51378e-05,7.43468e-06,2.4253e-05,4.9789e-05,-1.26227e-05,1.41374e-05
222,-1.20289e-05,6.75402e-06,2.20429e-05,5.16829e-05,-6.59946e-06,1.77512e-05
223,7.49249e-06,6.62742e-06,1.85851e-05,5.52819e-05,-3.36569e-06,1.93978e-05
224,1.50182e-05,8.04708e-06,1.83307e-05,5.66709e-05,-5.28399e-06,1.78809e-05
225,7.48542e-06,7.61174e-06,1.9856e-05,5.57963e-05,-1.16281e-05,1.32593e-05
226,-1.18629e-05,2.27182e-06,1.91162e-05,5.45711e-05,-1.5487e-05,8.48111e-06
227,-2.06356e-05,-2.99888e-06,1.84361e-05,5.24233e-05,-1.39548e-05,8.78157e-06
228,-5.85772e-06,-2.50416e-06,1.94836e-05,4.85391e-05,-1.24874e-05,1.56417e-05
229,1.22227e-05,2.1695e-06,2.08421e-05,4.77539e-05,-1.48097e-05,2.0866e-05
230,1.53692e-05,6.57944e-06,2.3714e-05,5.42111e-05,-1.84151e-05,1.91968e-05
231,4.78982e-06,9.05774e-06,2.70899e-05,6.02585e-05,-2.15826e-05,1.59907e-05
232,-1.95217e-05,7.77673e-06,2.79666e-05,6.26682e-05,-2.4778e-05,1.62455e-05
233,-2.98344e-05,4.1424e-06,2.88815e-05,6.18653e-05,-2.63646e-05,1.76676e-05
234,-8.3306e-06,5.70586e-06,2.98765e-05,5.81117e-05,-2.5494e-05,1.62262e-05
235,1.03892e-05,1.01864e-05,2.80701e-05,5.39489e-05,-2.35449e-05,1.30965e-05
236,1.25722e-05,1.14423e-05,2.42593e-05,4.92577e-05,-2.21458e-05,1.18174e-05
237,1.22007e-05,1.15524e-05,2.4367e-05,4.87299e-05,-2.04008e-05,1.22756e-05
238,1.00006e-05,1.53676e-05,2.98876e-05,4.94105e-05,-2.19303e-05,1.32959e-05
239,8.64824e-06,2.19519e-05,3.36383e-05,4.97998e-05,-2.59497e-05,1.42467e-05
240,-3.33425e-06,2.3525e-05,3.45225e-05,5.25871e-05,-2.62711e-05,1.31836e-05
241,-2.54537e-05,1.86116e-05,3.57318e-05,5.29882e-05,-2.62226e-05,1.29683e-05
242,-3.0827e-05,1.29611e-05,3.60595e-05,5.07638e-05,-2.69313e-05,1.4785e-05
243,-1.14889e-05,9.12575e-06,3.39742e-05,4.68924e-05,-2.45451e-05,1.49926e-05
244,6.0386e-06,7.97642e-06,3.29931e-05,4.4702e-05,-2.04525e-05,1.33234e-05
245,7.92047e-06,1.03674e-05,3.36948e-05,4.37916e-05,-1.77146e-05,1.18514e-05
246,-6.94934e-06,1.40342e-05,3.51815e-05,4.57359e-05,-1.69432e-05,1.03098e-05
247,-3.0405e-05,1.42935e-05,3.71719e-05,5.03387e-05,-1.76995e-05,8.44138e-06
248,-3.89348e-05,1.11225e-05,3.70175e-05,5.51153e-05,-1.65737e-05,9.54325e-06
249,-2.60683e-05,9.25484e-06,3.48122e-05,5.55103e-05,-1.40584e-05,1.41363e-05
250,-8.35423e-06,9.77626e-06,3.46015e-05,5.07626e-05,-1.38636e-05,1.85465e-05
251,-1.15567e-06,9.94066e-06,3.6517e-05,4.59787e-05,-1.56223e-05,1.87861e-05
252,-9.96203e-06,1.06451e-05,3.52753e-05,4.46735e-05,-1.63355e-05,1.53818e-05
253,-3.35474e-05,1.32835e-05,3.31724e-05,4.60251e-05,-1.56829e-05,1.27742e-05
254,-4.48331e-05,1.58287e-05,3.40888e-05,4.53227e-05,-1.6356e-05,1.31628e-05
255,-2.76591e-05,1.65866e-05,3.61277e-05,4.30943e-05,-1.83565e-05,1.53755e-05
256,-7.48318e-06,1.5623e-05,3.78725e-05,4.44006e-05,-1.70857e-05,1.83133e-05
257,-7.19818e-06,1.57494e-05,3.80326e-05,4.94072e-05,-1.38342e-05,2.06794e-05
258,-2.18535e-05,1.56509e-05,3.72625e-05,5.09943e-05,-1.17319e-05,2.36141e-05
259,-4.86815e-05,1.18173e-05,3.74313e-05,4.85957e-05,-1.0472e-05,2.49544e-05
260,-6.14194e-05,7.49045e-06,3.88216e-05,4.7506e-05,-1.07206e-05,2.13149e-05
261,-3.64251e-05,7.55281e-06,4.15444e-05,4.99087e-05,-1.17665e-05,1.81238e-05
262,-1.24967e-05,1.45232e-05,3.73271e-05,5.09644e-05,-1.39629e-05,1.82725e-05
263,-9.14366e-06,2.20194e-05,2.99388e-05,4.88353e-05,-1.42818e-05,1.66203e-05
264,-8.30598e-06,2.30199e-05,2.67343e-05,4.68965e-05,-1.05446e-05,1.39139e-05
265,-8.7848e-06,2.25637e-05,2.7251e-05,4.67621e-05,-4.67507e-06,1.61623e-05
266,-5.63545e-06,2.1439e-05,2.99277e-05,4.38574e-05,-1.13133e-06,1.82314e-05
267,-1.24349e-05,2.03801e-05,3.11942e-05,3.79732e-05,-1.42018e-06,1.63081e-05
268,-3.19662e-05,1.70985e-05,3.08567e-05,3.33372e-05,-1.06978e-06,1.09193e-05
269,-3.75966e-05,1.32703e-05,3.01026e-05,3.49091e-05,3.18349e-06,5.50619e-06
270,-2.1548e-05,1.2417e-05,3.03587e-05,4.07048e-05,8.18632e-06,5.114e-06
271,-3.79829e-06,1.28633e-05,2.84488e-05,4.43857e-05,7.6403e-06,6.76538e-06
272,7.1029e-07,1.37246e-05,2.67579e-05,4.48147e-05,3.17559e-06,7.06364e-06
273,-1.11235e-05,1.40562e-05,2.70104e-05,4.46213e-05,1.19871e-06,4.97216e-06
274,-2.93074e-05,1.38332e-05,2.96343e-05,4.51103e-05,1.15337e-06,3.47851e-06
275,-3.32521e-05,1.44683e-05,3.09882e-05,4.58944e-05,4.18076e-07,4.88613e-06
276,-1.71059e-05,1.61368e-05,3.01664e-05,4.71315e-05,-2.16386e-06,6.81231e-06
277,1.19937e-06,1.59252e-05,2.90069e-05,4.77103e-05,-6.67172e-06,6.76666e-06
278,6.41569e-06,1.40513e-05,2.77769e-05,4.83748e-05,-1.15269e-05,5.24778e-06
279,-2.10219e-06,1.27246e-05,2.69021e-05,4.9879e-05,-1.51389e-05,3.18548e-06
280,-2.18339e-05,9.94572e-06,2.71758e-05,5.14526e-05,-1.59536e-05,4.70487e-06
281,-3.4942e-05,4.80495e-06,2.81529e-05,5.01201e-05,-1.33774e-05,1.36384e-05
282,-2.47906e-05,4.23542e-06,2.86465e-05,4.68019e-05,-9.2563e-06,2.26774e-05
283,-4.77931e-06,9.33728e-06,2.71204e-05,4.52313e-05,-4.56314e-06,2.37636e-05
284,2.1177e-06,1.34011e-05,2.24912e-05,4.69404e-05,-7.76514e-07,2.05413e-05
285,-5.23128e-06,1.12227e-05,2.15631e-05,4.79185e-05,-6.03793e-07,1.90077e-05
286,-2.76482e-05,4.84718e-06,2.56245e-05,4.6646e-05,-3.50459e-06,1.71472e-05
287,-4.06894e-05,8.52634e-07,2.76584e-05,4.76131e-05,-6.40815e-06,1.49911e-05
288,-1.79118e-05,3.62825e-06,2.75813e-05,5.15402e-05,-4.14754e-06,1.47656e-05
289,4.22169e-06,5.1206e-06,2.8563e-05,5.11402e-05,-1.03483e-06,1.3536e-05
290,7.50603e-06,1.76147e-06,2.69895e-05,4.82977e-05,1.18252e-06,1.24651e-05
291,1.0607e-05,-4.13721e-07,2.46277e-05,4.81613e-05,3.38886e-06,1.20479e-05
292,1.26784e-05,3.15369e-06,2.2866e-05,4.85595e-05,-8.12001e-07,1.03234e-05
293,1.4395e-05,1.19779e-05,2.23163e-05,4.74548e-05,-8.52406e-06,9.10683e-06
294,3.82798e-06,1.76888e-05,2.23437e-05,4.55233e-05,-1.15985e-05,1.09293e-05
295,-1.78339e-05,1.61045e-05,2.30813e-05,4.76024e-05,-7.79597e-06,1.52028e-05
296,-2.16241e-05,1.30368e-05,2.22268e-05,5.02088e-05,-4.70017e-06,1.664e-05
297,-2.04296e-06,1.33769e-05,1.99146e-05,5.02777e-05,-8.98816e-06,1.57362e-05
298,1.33746e-05,1.5383e-05,2.1695e-05,4.77413e-05,-1.49772e-05,1.45185e-05
299,1.15158e-05,1.52563e-05,2.46221e-05,4.64178e-05,-1.55658e-05,1.47052e-05
300,-5.79581e-06,1.32265e-05,2.25313e-05,4.83936e-05,-1.19097e-05,1.57329e-05
301,-2.55651e-05,9.83559e-06,2.02571e-05,5.07057e-05,-8.38406e-06,1.27904e-05
302,-2.61966e-05,7.18418e-06,2.48812e-05,5.07475e-05,-6.97517e-06,7.14997e-06
303,-4.83149e-06,8.23017e-06,3.18113e-05,5.01004e-05,-7.02291e-06,3.2877e-06
304,1.46462e-05,1.22648e-05,3.38109e-05,5.07456e-05,-7.58018e-06,1.43809e-06
305,1.41559e-05,1.56179e-05,3.2412e-05,5.04916e-05,-1.02782e-05,7.1359e-07
306,-2.65776e-06,1.4729e-05,3.23665e-05,4.90546e-05,-1.59522e-05,1.66431e-06
307,-2.53822e-05,1.16894e-05,3.54698e-05,4.68786e-05,-2.06439e-05,3.53126e-06
308,-3.14876e-05,1.10021e-05,4.1555e-05,4.46178e-05,-1.90776e-05,6.00798e-06
309,-1.23703e-05,1.31235e-05,4.53646e-05,4.30864e-05,-1.47915e-05,7.57321e-06
310,7.36453e-06,1.33098e-05,4.22968e-05,4.45361e-05,-1.44589e-05,8.05605e-06
311,4.81494e-06,1.08626e-05,3.53281e-05,4.72133e-05,-1.51673e-05,9.89668e-06
312,-1.48253e-05,9.7363e-06,3.0196e-05,4.80031e-05,-1.18565e-05,1.15215e-05
313,-4.21939e-05,1.03827e-05,2.5898e-05,4.71509e-05,-7.7852e-06,8.68621e-06
314,-5.38853e-05,1.03664e-05,2.47059e-05,4.78042e-05,-5.99475e-06,5.34463e-06
315,-3.10847e-05,9.15151e-06,2.73061e-05,4.91129e-05,-7.68365e-06,4.02228e-06
316,-9.35111e-06,9.78232e-06,2.95194e-05,5.04019e-05,-1.19436e-05,4.04908e-06
317,-5.39011e-06,1.30862e-05,2.87094e-05,5.1468e-05,-1.21341e-05,8.35182e-06
318,-1.42285e-06,1.42128e-05,2.69059e-05,5.40007e-05,-1.06621e-05,1.3641e-05
319,1.78483e-06,1.22544e-05,2.65566e-05,5.52359e-05,-1.17994e-05,1.56147e-05
320,2.82864e-06,1.30096e-05,2.46202e-05,5.27639e-05,-1.2464e-05,1.4015e-05
321,-1.05874e-05,1.79385e-05,1.97942e-05,5.43469e-05,-1.03529e-05,1.42573e-05
322,-2.79335e-05,2.03922e-05,1.61231e-05,6.07664e-05,-8.27581e-06,1.60002e-05
323,-2.4733e-05,1.91816e-05,1.59394e-05,6.36381e-05,-8.53039e-06,1.55815e-05
324,-3.66632e-06,1.41583e-05,1.52163e-05,6.05879e-05,-8.85251e-06,1.41633e-05
325,1.05505e-05,9.66574e-06,1.57398e-05,5.66412e-05,-7.42978e-06,1.22762e-05
326,1.05345e-05,8.47479e-06,1.91103e-05,5.58981e-05,-5.51232e-06,1.22913e-05
327,-3.75671e-06,8.56998e-06,1.8617e-05,5.7869e-05,-5.21371e-06,1.21375e-05
328,-2.13907e-05,7.45725e-06,1.55632e-05,5.97378e-05,-6.30759e-06,1.03886e-05
329,-1.94826e-05,6.08027e-06,1.54848e-05,6.06298e-05,-7.91255e-06,9.80685e-06
330,1.54937e-06,5.25388e-06,1.5675e-05,6.01508e-05,-8.47723e-06,1.14113e-05
331,1.65443e-05,4.59519e-06,1.26143e-05,6.07175e-05,-7.85854e-06,1.32288e-05
332,1.40718e-05,6.16758e-06,1.15427e-05,6.19103e-05,-8.25251e-06,1.41119e-05
333,1.89085e-06,1.05264e-05,1.67293e-05,6.14571e-05,-9.71766e-06,1.38936e-05
334,-1.5478e-05,1.32208e-05,2.41494e-05,5.88036e-05,-1.00508e-05,1.28975e-05
335,-2.15938e-05,1.24115e-05,2.84581e-05,5.53921e-05,-8.90858e-06,1.42881e-05
336,-7.44765e-06,1.36521e-05,2.72214e-05,5.28803e-05,-7.12064e-06,1.87954e-05
337,8.58144e-06,1.63105e-05,2.15922e-05,5.10835e-05,-4.80461e-06,2.23191e-05
338,1.20721e-05,1.61828e-05,1.73545e-05,5.10561e-05,-2.99065e-06,2.20087e-05
339,7.97905e-06,1.5408e-05,1.63484e-05,5.25284e-05,-3.63413e-06,1.74592e-05
340,-1.072e-05,1.71501e-05,1.90833e-05,5.30264e-05,-7.49535e-06,1.13787e-05
341,-1.8579e-05,1.58444e-05,2.59466e-05,5.3299e-05,-8.97641e-06,9.62784e-06
342,6.82987e-06,1.29718e-05,2.90645e-05,5.44438e-05,-8.23394e-06,1.34912e-05
343,2.46653e-05,1.17707e-05,2.73835e-05,5.55538e-05,-7.56221e-06,1.59951e-05
344,2.1753e-05,1.2058e-05,2.69735e-05,5.40684e-05,-4.42782e-06,1.55047e-05
345,1.91078e-05,1.06852e-05,3.02991e-05,5.22779e-05,-3.6512e-06,1.36682e-05
346,1.67838e-05,9.30951e-06,3.45486e-05,5.38832e-05,-7.05245e-06,9.48975e-06
347,1.78872e-05,9.13317e-06,3.59508e-05,5.47762e-05,-1.07787e-05,8.66103e-06
348,8.58507e-06,8.01433e-06,3.58298e-05,5.14291e-05,-1.18514e-05,1.35976e-05
349,-9.56604e-06,5.10702e-06,3.71361e-05,4.77753e-05,-1.21056e-05,1.85778e-05
350,-1.10058e-05,2.4365e-06,3.80777e-05,4.69786e-05,-1.18919e-05,1.94456e-05
351,7.29107e-06,4.89407e-06,3.54982e-05,4.78122e-05,-1.10615e-05,1.96782e-05
352,2.28673e-05,1.14615e-05,3.15342e-05,4.86773e-05,-8.99164e-06,2.15965e-05
353,2.57856e-05,1.73183e-05,3.0665e-05,5.07557e-05,-6.85311e-06,2.27422e-05
354,1.43451e-05,1.84417e-05,3.07093e-05,5.48093e-05,-7.1547e-06,2.0648e-05
355,-4.81035e-06,1.51459e-05,2.96046e-05,5.62746e-05,-8.89167e-06,1.58253e-05
356,-7.428e-06,1.13271e-05,2.81461e-05,5.36269e-05,-1.03815e-05,1.0424e-05
357,1.04614e-05,9.08331e-06,2.79654e-05,4.82704e-05,-1.2335e-05,8.51059e-06
358,2.55425e-05,8.19811e-06,3.00799e-05,4.49526e-05,-1.60634e-05,1.13561e-05
359,2.45123e-05,1.05137e-05,3.20658e-05,4.51507e-05,-1.8562e-05,1.42909e-05
360,1.3339e-05,1.33777e-05,3.09975e-05,4.54165e-05,-1.69076e-05,1.52452e-05
361,-2.57597e-06,1.25474e-05,2.84397e-05,4.39141e-05,-1.1114e-05,1.66663e-05
362,-7.97978e-06,1.00748e-05,2.80956e-05,4.31419e-05,-6.63553e-06,2.04585e-05
363,5.07895e-06,9.80584e-06,2.66843e-05,4.42469e-05,-7.46648e-06,2.42352e-05
364,2.04376e-05,9.57249e-06,2.30094e-05,4.3977e-05,-1.07463e-05,2.5632e-05
365,2.58538e-05,6.16268e-06,2.14832e-05,4.30312e-05,-1.03327e-05,2.46764e-05
366,2.08676e-05,6.4313e-06,1.95189e-05,4.48292e-05,-7.62965e-06,2.02517e-05
367,-1.41188e-06,1.07742e-05,1.7101e-05,4.79861e-05,-5.69896e-06,1.46871e-05
368,-1.35899e-05,1.31953e-05,1.84214e-05,5.0299e-05,-5.5597e-06,1.466e-05
369,4.327e-06,1.34667e-05,2.38105e-05,4.95184e-05,-6.31263e-06,1.84392e-05
370,1.76372e-05,1.13704e-05,2.66606e-05,4.50419e-05,-6.36522e-06,2.02973e-05
371,1.59524e-05,1.06247e-05,2.36023e-05,4.23549e-05,-6.86424e-06,2.2345e-05
372,1.58225e-05,1.33302e-05,2.14383e-05,4.42849e-05,-6.17519e-06,2.40616e-05
373,1.61077e-05,1.65857e-05,1.89985e-05,4.70319e-05,-2.30791e-06,2.29363e-05
374,1.70048e-05,1.73749e-05,1.63976e-05,4.61194e-05,4.93807e-07,2.20984e-05
375,7.01217e-06,1.7499e-05,1.7647e-05,4.4876e-05,-1.9111e-06,2.18066e-05
376,-1.42012e-05,1.66426e-05,2.38173e-05,4.81402e-05,-3.72423e-06,2.33627e-05
377,-1.94133e-05,1.65197e-05,2.81798e-05,5.3056e-05,-2.11313e-06,2.45186e-05
378,-3.4559e-06,1.7628e-05,2.56297e-05,5.33268e-05,-1.46701e-06,2.44198e-05
379,9.0612e-06,1.89206e-05,2.07273e-05,4.95123e-05,-1.97829e-06,2.28016e-05
380,1.13625e-05,1.8796e-05,1.83413e-05,4.7772e-05,-2.47757e-06,1.88712e-05
381,7.13485e-07,1.99115e-05,1.69736e-05,5.0346e-05,-2.38499e-06,1.64463e-05
382,-1.94161e-05,2.34094e-05,1.61352e-05,5.27183e-05,-2.04446e-06,1.64253e-05
383,-2.84575e-05,2.57283e-05,1.76679e-05,5.26143e-05,-1.77507e-06,1.7765e-05
384,-1.69756e-05,2.50424e-05,1.99806e-05,5.11607e-05,-1.2702e-06,1.79013e-05
385,-1.79979e-06,2.22647e-05,2.05729e-05,5.09506e-05,-4.12274e-07,1.6853e-05
386,1.0991e-06,1.90475e-05,1.92191e-05,5.13907e-05,1.57618e-06,1.52949e-05
387,-9.18278e-06,1.56738e-05,1.905e-05,4.99778e-05,3.59716e-06,1.34825e-05
388,-2.91692e-05,1.4691e-05,2.16384e-05,4.83777e-05,4.4843e-06,1.194e-05
389,-3.73691e-05,1.60078e-05,2.5777e-05,4.88213e-05,5.18816e-06,1.16575e-05
390,-2.15954e-05,1.80325e-05,3.01271e-05,5.04481e-05,6.73973e-06,1.1318e-05
391,-9.91038e-07,1.73875e-05,3.33359e-05,5.27969e-05,8.83987e-06,1.00523e-05
392,4.70773e-06,1.60137e-05,3.26652e-05,5.32431e-05,8.23316e-06,7.53969e-06
393,-2.30359e-06,1.56304e-05,3.13115e-05,5.28172e-05,2.66848e-06,6.04962e-06
394,-2.45951e-05,1.47029e-05,3.09791e-05,5.4834e-05,-2.34329e-06,4.15408e-06
395,-3.97662e-05,1.01409e-05,3.47444e-05,5.33633e-05,-3.12835e-06,4.08781e-06
396,-2.66189e-05,6.39489e-06,3.87038e-05,5.03542e-05,-6.20731e-07,1.1501e-05
397,-1.38026e-05,5.31655e-06,3.4628e-05,5.22386e-05,3.91725e-06,1.62849e-05
398,-1.17737e-05,3.04101e-06,2.88141e-05,5.49587e-05,5.98483e-06,1.45455e-05
399,-8.029e-06,3.15494e-06,2.54198e-05,5.53276e-05,3.61425e-06,1.18002e-05
400,-5.33872e-06,5.19413e-06,2.39828e-05,5.54241e-05,-1.11208e-06,1.10598e-05
401,-5.30672e-06,5.20641e-06,2.34938e-05,5.45265e-05,-7.14399e-06,1.15461e-05
402,-1.73988e-05,3.0521e-06,2.1889e-05,5.3625e-05,-1.07991e-05,9.93037e-06
403,-3.85603e-05,4.7339e-07,2.25133e-05,5.41693e-05,-1.12897e-05,8.6738e-06
404,-4.2841e-05,-4.63466e-08,2.37199e-05,5.4356e-05,-1.03656e-05,1.11873e-05
405,-2.72355e-05,-5.44883e-07,2.33935e-05,5.35037e-05,-1.04306e-05,1.26465e-05
406,-1.19751e-05,-3.35687e-07,2.34076e-05,5.32613e-05,-1.1092e-05,1.1733e-05
407,-5.42655e-06,3.20841e-06,2.46608e-05,5.39631e-05,-1.01054e-05,1.08728e-05
408,-1.36952e-05,9.40739e-06,2.65359e-05,5.40964e-05,-9.05379e-06,1.01143e-05
409,-3.15053e-05,1.47151e-05,2.98859e-05,5.3171e-05,-9.11788e-06,9.00885e-06
410,-3.69513e-05,1.63951e-05,3.62908e-05,5.28778e-05,-1.01887e-05,8.5614e-06
411,-2.0959e-05,1.52298e-05,4.10161e-05,5.30112e-05,-1.18709e-05,1.14236e-05
412,-3.31286e-06,1.4939e-05,4.20225e-05,5.21014e-05,-1.3866e-05,1.52617e-05
413,-5.84109e-07,1.85049e-05,4.12972e-05,4.94728e-05,-1.49769e-05,1.55776e-05
414,-1.17629e-05,2.35656e-05,4.10932e-05,4.75188e-05,-1.48114e-05,1.18617e-05
415,-3.08778e-05,2.5603e-05,3.96015e-05,4.83144e-05,-1.15792e-05,9.76874e-06
416,-3.86104e-05,2.04609e-05,3.74579e-05,4.99241e-05,-6.8217e-06,1.06026e-05
417,-2.26026e-05,1.1644e-05,3.65018e-05,5.10367e-05,-4.59731e-06,9.33703e-06
418,-3.35579e-06,7.57809e-06,3.43415e-05,5.33126e-05,-5.87781e-06,4.79152e-06
419,-1.1439e-06,1.17397e-05,3.26525e-05,5.73288e-05,-9.20618e-06,2.76499e-06
420,-1.12877e-05,1.83604e-05,3.57817e-05,5.93344e-05,-1.3937e-05,8.10181e-06
421,-3.20334e-05,1.71244e-05,4.0096e-05,5.51042e-05,-1.83433e-05,1.34113e-05
422,-4.33362e-05,8.63468e-06,4.09342e-05,4.78461e-05,-1.74009e-05,1.50311e-05
423,-2.2392e-05,5.88751e-06,4.01716e-05,4.41046e-05,-1.88004e-05,1.53632e-05
424,-9.49507e-07,1.02294e-05,3.56678e-05,4.3321e-05,-2.55196e-05,9.5011e-06
425,3.70603e-06,1.28426e-05,3.17086e-05,4.26265e-05,-2.53307e-05,7.25518e-06
426,9.3566e-06,1.32114e-05,3.50093e-05,4.5165e-05,-1.96363e-05,1.47565e-05
427,1.39548e-05,1.41797e-05,4.03004e-05,4.96183e-05,-1.72551e-05,2.00557e-05
428,1.36786e-05,1.56509e-05,4.11221e-05,4.97089e-05,-1.72492e-05,1.9158e-05
429,-4.26718e-07,1.39357e-05,4.00995e-05,4.9356e-05,-1.54333e-05,1.26774e-05
430,-2.08125e-05,8.28721e-06,4.0438e-05,5.07037e-05,-1.4451e-05,7.09666e-06
431,-2.17145e-05,4.82522e-06,4.01926e-05,5.25889e-05,-1.6655e-05,8.46835e-06
432,-3.29261e-06,5.93615e-06,3.86154e-05,5.40061e-05,-1.90794e-05,1.43898e-05
433,8.68765e-06,9.15074e-06,3.60124e-05,5.50043e-05,-1.87538e-05,1.9248e-05
434,8.58118e-06,1.08366e-05,3.3947e-05,5.67312e-05,-1.74106e-05,1.80225e-05
435,-3.53678e-06,8.89158e-06,3.28261e-05,5.84182e-05,-1.67052e-05,1.38563e-05
436,-2.18147e-05,2.69758e-06,3.23214e-05,5.75275e-05,-1.64519e-05,1.07781e-05
437,-2.52772e-05,6.37984e-07,3.18132e-05,5.62877e-05,-1.53571e-05,1.00699e-05
438,-6.01021e-06,4.868e-06,3.066e-05,5.71109e-05,-1.29582e-05,1.14967e-05
439,1.39541e-05,8.413e-06,2.92266e-05,5.77499e-05,-1.0434e-05,1.3459e-05
440,1.76832e-05,9.4632e-06,2.911e-05,5.71205e-05,-5.98172e-06,1.36425e-05
441,6.39697e-06,1.28282e-05,3.02113e-05,5.59983e-05,-4.34404e-07,1.37008e-05
442,-1.51335e-05,1.75104e-05,3.33582e-05,5.51761e-05,2.07973e-07,1.54154e-05
443,-2.42395e-05,1.86062e-05,3.61159e-05,5.35353e-05,-7.07809e-06,1.71506e-05
444,-9.50973e-06,1.71038e-05,3.3012e-05,5.10026e-05,-1.46324e-05,2.04504e-05
445,9.48107e-06,1.48334e-05,2.79414e-05,4.96983e-05,-1.47323e-05,2.33752e-05
446,1.29169e-05,1.21534e-05,2.79847e-05,4.94154e-05,-9.84374e-06,2.29384e-05
447,1.30007e-06,9.93837e-06,2.98656e-05,4.69656e-05,-9.87742e-06,2.01301e-05
448,-2.41288e-05,8.01821e-06,2.81746e-05,4.43654e-05,-1.56681e-05,1.75563e-05
449,-3.56222e-05,7.38063e-06,3.00358e-05,4.05601e-05,-1.70676e-05,1.7842e-05
450,-1.07822e-05,1.10518e-05,3.56298e-05,3.72248e-05,-1.27002e-05,1.64806e-05
451,8.66937e-06,1.26543e-05,3.6059e-05,3.72026e-05,-1.22199e-05,1.22229e-05
452,8.58122e-06,1.10372e-05,3.46149e-05,4.05919e-05,-1.59125e-05,1.13493e-05
453,1.0231e-05,7.55717e-06,3.81416e-05,4.59208e-05,-1.56653e-05,1.42198e-05
454,1.28343e-05,7.13472e-06,4.21892e-05,4.73457e-05,-1.14661e-05,1.58282e-05
455,1.30777e-05,1.04345e-05,4.26342e-05,4.76712e-05,-9.22335e-06,1.7278e-05
456,1.88816e-07,9.29294e-06,3.76639e-05,4.88964e-05,-1.21912e-05,2.14735e-05
457,-1.80717e-05,6.47689e-06,2.95433e-05,4.94685e-05,-1.71408e-05,2.15115e-05
458,-1.79146e-05,7.31268e-06,2.62234e-05,5.02566e-05,-1.81262e-05,1.75636e-05
459,2.10732e-07,1.06956e-05,2.72817e-05,5.116e-05,-1.38114e-05,1.62596e-05
460,1.21975e-05,1.49362e-05,2.72908e-05,5.0881e-05,-9.83842e-06,1.87516e-05
461,1.2912e-05,1.75313e-05,2.65795e-05,4.94315e-05,-9.71452e-06,1.86366e-05
462,1.9592e-06,1.75555e-05,2.59688e-05,4.73566e-05,-1.21035e-05,1.38061e-05
463,-1.42481e-05,1.54884e-05,2.36377e-05,4.44063e-05,-1.30752e-05,1.00977e-05
464,-1.95929e-05,1.44334e-05,2.1431e-05,4.43189e-05,-1.00423e-05,1.20959e-05
465,-7.71553e-06,1.56812e-05,2.04313e-05,4.81375e-05,-5.08803e-06,1.59422e-05
466,7.36069e-06,1.65327e-05,1.9765e-05,5.16195e-05,-3.41116e-06,1.75327e-05
467,1.25602e-05,1.51885e-05,2.16054e-05,5.10256e-05,-5.43706e-06,1.77014e-05
468,5.54739e-06,1.24793e-05,2.49828e-05,4.89852e-05,-6.22633e-06,1.66711e-05
469,-1.22704e-05,9.00458e-06,2.60469e-05,4.99008e-05,-2.97855e-06,1.56551e-05
470,-2.33525e-05,5.08719e-06,2.58103e-05,5.19391e-05,9.64439e-07,1.43544e-05
471,-1.55531e-05,4.41418e-06,2.48246e-05,4.96925e-05,7.4035e-07,1.27044e-05
472,-1.05703e-06,8.05271e-06,2.15616e-05,4.28928e-05,-2.19784e-06,1.37463e-05
473,4.23062e-06,1.37904e-05,1.88804e-05,3.72554e-05,-7.86067e-06,1.75262e-05
474,-2.99033e-06,1.66513e-05,1.6477e-05,3.80226e-05,-1.63869e-05,1.79889e-05
475,-2.38532e-05,1.24778e-05,1.55507e-05,4.33638e-05,-1.96735e-05,1.32229e-05
476,-3.27869e-05,5.50073e-06,1.68058e-05,4.59092e-05,-1.74836e-05,1.08828e-05
477,-1.50266e-05,2.85397e-06,1.92361e-05,4.58985e-05,-1.42611e-05,1.59505e-05
478,-1.95235e-06,5.43195e-06,2.02921e-05,4.72957e-05,-1.23815e-05,1.89451e-05
479,-1.55594e-06,9.49625e-06,1.44797e-05,4.79876e-05,-1.54374e-05,1.5688e-05
480,1.2347e-06,1.29426e-05,9.13554e-06,5.11334e-05,-1.93236e-05,9.65954e-06
481,4.97474e-06,1.44669e-05,8.98936e-06,5.56377e-05,-1.96751e-05,6.69223e-06
482,8.23993e-06,1.32398e-05,1.19885e-05,5.57554e-05,-1.54297e-05,6.32171e-06
483,-2.68083e-06,1.14273e-05,1.32441e-05,5.40095e-05,-1.04043e-05,5.32881e-06
484,-2.23888e-05,9.39584e-06,1.32014e-05,5.1114e-05,-7.30591e-06,6.63477e-06
485,-2.41124e-05,8.09649e-06,1.43902e-05,4.95566e-05,-5.53018e-06,8.95945e-06
486,-4.11139e-06,6.85873e-06,1.76116e-05,4.88866e-05,-3.87408e-06,9.32093e-06
487,1.11024e-05,6.92509e-06,2.03605e-05,4.81633e-05,-4.03771e-06,8.89613e-06
488,9.05547e-06,9.92562e-06,2.20783e-05,4.94293e-05,-6.21626e-06,1.0307e-05
489,-7.19475e-06,1.32662e-05,2.3615e-05,5.01535e-05,-7.40884e-06,1.20293e-05
490,-2.51712e-05,1.44189e-05,2.37258e-05,4.78512e-05,-7.8348e-06,1.17783e-05
491,-2.74873e-05,1.6649e-05,2.39191e-05,4.64443e-05,-8.41523e-06,1.00646e-05
492,-1.24015e-05,2.06176e-05,2.28461e-05,4.81544e-05,-9.765e-06,9.15967e-06
493,2.0913e-06,2.45098e-05,2.0213e-05,4.8912e-05,-1.21702e-05,9.37282e-06
494,3.92902e-06,2.65289e-05,1.70443e-05,4.71217e-05,-1.33764e-05,1.14849e-05
495,-5.88141e-06,2.48257e-05,1.59349e-05,4.56678e-05,-1.13552e-05,1.58726e-05
496,-2.4421e-05,2.10959e-05,1.6265e-05,4.67155e-05,-8.67425e-06,1.88677e-05
497,-3.22645e-05,1.8896e-05,1.79034e-05,4.83064e-05,-7.70896e-06,1.82373e-05
498,-1.55512e-05,1.91036e-05,1.83675e-05,5.02062e-05,-7.21597e-06,1.6911e-05
499,6.60384e-06,1.81892e-05,1.83337e-05,5.32731e-05,-4.33884e-06,1.79616e-05
500,1.12326e-05,1.67772e-05,2.10867e-05,5.70117e-05,-1.44999e-06,2.01184e-05
501,1.32681e-06,1.55134e-05,2.53387e-05,5.9645e-05,-2.7503e-06,1.87235e-05
502,-2.17307e-05,1.35121e-05,2.76441e-05,5.84406e-05,-5.91981e-06,1.5535e-05
503,-3.4005e-05,9.90061e-06,2.84131e-05,5.37816e-05,-5.88727e-06,1.50639e-05
504,-1.19179e-05,5.72926e-06,2.52483e-05,4.80188e-05,-2.0385e-06,1.56549e-05
505,9.77346e-06,4.13771e-06,1.80651e-05,4.67461e-05,1.32398e-06,1.38384e-05
506,1.25208e-05,7.63874e-06,1.64328e-05,4.93442e-05,3.25435e-06,1.47447e-05
507,1.13275e-05,1.14039e-05,2.40965e-05,5.04983e-05,4.01303e-06,1.88998e-05
508,8.79964e-06,1.0015e-05,3.06048e-05,4.98133e-05,5.22876e-06,2.12124e-05
509,8.39933e-06,5.64515e-06,2.7501e-05,5.01177e-05,7.91192e-06,2.33432e-05
510,-8.68919e-07,1.46166e-06,2.18939e-05,5.31941e-05,5.60588e-06,2.43363e-05
511,-1.89572e-05,2.52559e-06,2.20032e-05,5.3916e-05,4.56441e-07,2.22439e-05
512,-2.12523e-05,7.85578e-06,2.71571e-05,5.33074e-05,-2.83636e-06,2.02324e-05
513,3.67056e-07,1.17155e-05,2.98564e-05,5.33002e-05,-2.21513e-06,2.2881e-05
514,1.90973e-05,1.27154e-05,2.74109e-05,5.10369e-05,-1.74789e-06,2.57432e-05
515,2.08309e-05,1.36113e-05,2.47426e-05,4.92013e-05,-3.07635e-06,2.62269e-05
516,3.99202e-06,1.48983e-05,2.42272e-05,4.85888e-05,-5.49702e-06,2.15422e-05
517,-2.07626e-05,1.35344e-05,2.42853e-05,4.75258e-05,-8.31938e-06,1.54844e-05
518,-3.02916e-05,1.21242e-05,2.57281e-05,4.66341e-05,-1.0822e-05,1.38837e-05
519,-1.5252e-05,1.0983e-05,2.66806e-05,4.71369e-05,-1.51176e-05,1.28273e-05
520,5.22981e-06,9.59361e-06,2.52565e-05,4.951e-05,-2.02539e-05,7.61501e-06
521,8.27773e-06,1.27969e-05,2.49669e-05,5.22884e-05,-2.20669e-05,2.8546e-06
522,-8.17464e-06,2.11071e-05,2.69808e-05,5.35231e-05,-1.97105e-05,2.36799e-06
523,-3.36927e-05,2.33982e-05,2.91829e-05,5.21371e-05,-1.74353e-05,2.32257e-06
524,-4.26154e-05,1.6842e-05,2.88074e-05,4.93575e-05,-1.89211e-05,2.11891e-06
525,-2.64496e-05,1.29784e-05,2.73558e-05,4.76658e-05,-2.66161e-05,1.00304e-06
526,-7.05492e-06,1.49114e-05,2.78913e-05,4.8202e-05,-3.40716e-05,6.62551e-07
527,-1.38376e-06,1.46545e-05,2.98383e-05,5.00332e-05,-3.33198e-05,3.22235e-06
528,-9.13517e-06,1.01443e-05,3.1399e-05,5.0581e-05,-2.43823e-05,5.76539e-06
529,-3.36132e-05,7.27766e-06,3.30814e-05,4.90847e-05,-1.58952e-05,7.40849e-06
530,-4.91106e-05,7.35683e-06,3.45887e-05,4.60334e-05,-1.13046e-05,1.05903e-05
531,-3.1239e-05,6.10646e-06,3.29427e-05,4.58546e-05,-9.13814e-06,1.14092e-05
532,-1.3349e-05,4.56232e-06,2.80272e-05,4.88241e-05,-9.34229e-06,8.67504e-06
533,-9.51456e-06,4.39759e-06,2.37718e-05,5.00655e-05,-9.91606e-06,6.98208e-06
534,-2.9632e-06,5.24385e-06,2.53126e-05,5.06248e-05,-9.13173e-06,9.50713e-06
535,3.11843e-06,6.24494e-06,2.82608e-05,5.2411e-05,-8.05623e-06,1.30585e-05
536,8.08503e-06,7.13322e-06,2.66925e-05,5.45383e-05,-8.09555e-06,1.26544e-05
537,-3.07374e-07,7.025e-06,2.04629e-05,5.47708e-05,-9.28453e-06,7.41506e-06
538,-2.05541e-05,4.16285e-06,1.71236e-05,5.56867e-05,-1.05895e-05,4.96354e-06
539,-2.65263e-05,1.18932e-06,2.14319e-05,5.6766e-05,-1.25631e-05,6.56293e-06
540,-1.0773e-05,3.67175e-07,2.841e-05,5.49594e-05,-1.22763e-05,1.05306e-05
541,3.77489e-06,3.30828e-06,3.06911e-05,5.20305e-05,-9.57425e-06,1.36157e-05
542,5.50542e-06,5.78004e-06,2.77646e-05,5.20125e-05,-7.65193e-06,1.29385e-05
543,-7.88021e-06,5.78122e-06,2.48963e-05,5.38376e-05,-9.90006e-06,1.00537e-05
544,-2.62388e-05,6.1678e-06,2.46618e-05,5.35493e-05,-1.11004e-05,8.14345e-06
545,-2.63241e-05,8.88983e-06,2.60038e-05,5.1757e-05,-7.81452e-06,9.38637e-06
546,-4.90577e-06,1.12524e-05,2.55241e-05,5.02969e-05,-3.59431e-06,1.09249e-05
547,1.58712e-05,1.17355e-05,2.50589e-05,4.88785e-05,-9.7419e-07,1.19834e-05
548,2.02369e-05,1.28803e-05,2.80625e-05,4.84347e-05,7.68087e-07,1.35091e-05
549,1.00204e-05,1.58158e-05,3.22133e-05,5.17479e-05,1.91783e-06,1.43364e-05
550,-9.61775e-06,1.71301e-05,3.24349e-05,5.58309e-05,1.5341e-07,1.1144e-05
551,-1.89328e-05,1.59987e-05,2.99427e-05,5.65499e-05,-1.57042e-06,7.20706e-06
552,-6.9624e-06,1.72544e-05,2.83235e-05,5.56125e-05,-1.74006e-06,5.46243e-06
553,7.11544e-06,2.04433e-05,2.98907e-05,5.63466e-05,7.63405e-07,6.43637e-06
554,8.42748e-06,2.0406e-05,3.36632e-05,5.84404e-05,2.43279e-06,8.06924e-06
555,-1.92013e-06,1.7493e-05,3.73054e-05,6.03212e-05,-1.97974e-07,8.26905e-06
556,-2.75376e-05,1.35047e-05,3.713e-05,6.32685e-05,-5.47043e-06,8.97084e-06
557,-3.88248e-05,7.0217e-06,3.18497e-05,6.44407e-05,-7.66562e-06,1.18382e-05
558,-1.71561e-05,3.81789e-06,2.6565e-05,6.05369e-05,-7.12912e-06,1.33375e-05
559,5.15045e-07,6.50784e-06,2.57571e-05,5.63745e-05,-1.02409e-05,1.11827e-05
560,-1.41707e-06,1.06582e-05,2.73479e-05,5.42613e-05,-1.53132e-05,1.25556e-05
561,-4.38674e-06,1.25375e-05,2.79255e-05,5.25339e-05,-1.46555e-05,1.89393e-05
562,-3.10202e-06,1.16022e-05,2.91025e-05,4.91375e-05,-8.56357e-06,2.27896e-05
563,2.34428e-06,1.18788e-05,3.10501e-05,4.80056e-05,-5.07918e-06,2.34379e-05
564,-3.85992e-06,1.37071e-05,3.0875e-05,4.80763e-05,-8.46572e-06,2.13009e-05
565,-2.256e-05,1.28523e-05,2.99924e-05,4.73673e-05,-1.44956e-05,1.73225e-05
566,-2.49349e-05,1.08473e-05,2.75863e-05,4.68819e-05,-1.71897e-05,1.62233e-05
567,-6.05668e-06,8.97084e-06,2.41765e-05,4.83294e-05,-1.41186e-05,2.02664e-05
568,9.88199e-06,6.943e-06,2.24978e-05,5.08065e-05,-9.53254e-06,2.32473e-05
569,1.1864e-05,1.05383e-05,2.32e-05,5.03203e-05,-5.71483e-06,2.0456e-05
570,-6.42617e-07,1.81642e-05,2.44362e-05,4.63744e-05,-3.86141e-06,1.45328e-05
571,-1.80566e-05,2.04731e-05,2.40578e-05,4.15645e-05,-3.44272e-06,1.21923e-05
572,-2.18305e-05,1.79126e-05,2.42284e-05,4.0221e-05,-3.17192e-06,1.49248e-05
573,-8.29404e-06,1.73881e-05,2.43153e-05,4.16104e-05,-5.04696e-06,1.93841e-05
574,8.47824e-06,2.00055e-05,2.21647e-05,4.43517e-05,-9.46739e-06,2.30247e-05
575,1.50388e-05,2.2297e-05,2.00355e-05,4.59723e-05,-1.26267e-05,2.52664e-05
576,6.0124e-06,2.22597e-05,2.21701e-05,4.69648e-05,-1.13309e-05,2.59311e-05
577,-1.38046e-05,1.88914e-05,2.61338e-05,4.74397e-05,-8.74118e-06,2.3825e-05
578,-1.96584e-05,1.58566e-05,2.88482e-05,4.62254e-05,-8.87242e-06,2.11482e-05
579,-2.17852e-06,1.54932e-05,3.06903e-05,4.43938e-05,-1.29474e-05,2.1576e-05
580,1.44271e-05,1.45862e-05,3.06027e-05,4.40796e-05,-1.84492e-05,2.43875e-05
581,1.44098e-05,1.42453e-05,2.88096e-05,4.59938e-05,-2.06552e-05,2.277e-05
582,2.01275e-06,1.7113e-05,2.52337e-05,4.92125e-05,-1.84048e-05,1.66681e-05
583,-2.34624e-05,1.82668e-05,1.992e-05,4.80049e-05,-1.84585e-05,1.22239e-05
584,-3.75971e-05,1.40988e-05,1.81897e-05,4.34255e-05,-2.2585e-05,1.17476e-05
585,-2.07435e-05,9.22551e-06,2.20064e-05,4.29948e-05,-2.4012e-05,1.4807e-05
586,-6.71861e-06,8.70266e-06,2.57807e-05,4.83941e-05,-1.89854e-05,2.05644e-05
587,-7.27487e-06,9.50411e-06,2.79771e-05,5.41804e-05,-1.16808e-05,2.34089e-05
588,-5.76252e-06,7.6659e-06,2.97862e-05,5.49439e-05,-7.26891e-06,2.2665e-05
589,-6.14242e-06,7.47133e-06,2.58197e-05,5.07287e-05,-8.37996e-06,2.14302e-05
590,-7.77793e-06,1.06994e-05,2.07703e-05,4.89092e-05,-1.05669e-05,2.07708e-05
591,-1.71629e-05,1.20916e-05,2.0228e-05,5.19976e-05,-1.25568e-05,1.7674e-05
592,-3.33045e-05,7.43989e-06,2.3671e-05,5.32094e-05,-1.38645e-05,1.27083e-05
593,-3.52411e-05,2.13422e-06,2.76186e-05,5.09035e-05,-1.11079e-05,1.01794e-05
594,-1.81256e-05,1.69089e-06,2.81973e-05,4.54556e-05,-8.36335e-06,1.06284e-05
595,-2.85823e-06,4.56798e-06,2.64715e-05,4.09582e-05,-7.77241e-06,1.37769e-05
596,-3.7712e-07,8.63121e-06,2.38877e-05,4.01233e-05,-7.73541e-06,1.65621e-05
597,-1.40649e-05,1.20716e-05,2.24786e-05,4.26276e-05,-7.12567e-06,1.45031e-05
598,-3.23905e-05,1.21956e-05,2.35035e-05,4.44281e-05,-8.20955e-06,9.32657e-06
599,-3.31576e-05,1.25772e-05,2.40435e-05,4.39233e-05,-1.15043e-05,6.56407e-06
600,-1.37314e-05,1.66115e-05,2.25729e-05,4.32479e-05,-1.39247e-05,8.61106e-06
601,4.47145e-06,2.02849e-05,2.28069e-05,4.43415e-05,-1.29849e-05,1.332e-05
602,6.03322e-06,1.79704e-05,2.43265e-05,4.60048e-05,-9.4507e-06,1.69311e-05
603,-7.61969e-06,1.1113e-05,2.60923e-05,4.71195e-05,-7.45183e-06,1.69568e-05
604,-2.89256e-05,6.86429e-06,2.88153e-05,4.64986e-05,-6.71826e-06,1.53271e-05
605,-3.47787e-05,8.75557e-06,3.24474e-05,4.34176e-05,-3.44438e-06,1.4439e-05
606,-1.71261e-05,1.33972e-05,3.48046e-05,4.16653e-05,-5.3968e-07,1.17633e-05
607,4.06284e-06,1.5891e-05,3.68379e-05,4.23532e-05,-3.58176e-06,9.40321e-06
608,1.12681e-05,1.79057e-05,3.67455e-05,4.44998e-05,-7.51796e-06,1.11125e-05
609,3.86204e-06,1.93299e-05,3.21816e-05,5.00599e-05,-5.6584e-06,1.50333e-05
610,-1.81559e-05,1.68422e-05,2.78617e-05,5.69884e-05,4.54886e-07,1.79309e-05
611,-3.07276e-05,1.19863e-05,2.81743e-05,5.82593e-05,2.81452e-06,1.77796e-05
612,-9.09764e-06,9.08594e-06,3.22658e-05,5.53753e-05,-1.34597e-06,1.49931e-05
613,1.45276e-05,8.6852e-06,3.45094e-05,4.93855e-05,-5.33841e-06,1.33199e-05
614,1.8947e-05,9.94579e-06,3.58535e-05,4.37237e-05,-4.2043e-06,1.40402e-05
615,1.78049e-05,1.22971e-05,4.04561e-05,4.60577e-05,-6.31257e-07,1.7245e-05
616,1.56047e-05,1.42466e-05,4.20449e-05,5.25253e-05,1.06328e-07,2.33692e-05
617,1.57028e-05,1.47499e-05,3.97452e-05,5.67802e-05,-5.35029e-08,2.64196e-05
618,4.73219e-06,1.53555e-05,3.7835e-05,5.68864e-05,-1.44397e-07,1.99515e-05
619,-1.39922e-05,1.71239e-05,3.86038e-05,5.31271e-05,-2.00632e-07,1.12316e-05
620,-1.48769e-05,1.79165e-05,4.28726e-05,4.9879e-05,-1.22512e-07,1.01071e-05
621,5.33516e-06,1.57163e-05,4.56839e-05,4.77292e-05,-1.91914e-06,1.54897e-05
622,2.12305e-05,1.17984e-05,4.33447e-05,4.70366e-05,-4.36467e-06,2.06256e-05
623,2.19239e-05,1.03397e-05,3.66114e-05,4.97572e-05,-6.52318e-06,2.16085e-05
624,6.37114e-06,1.13098e-05,2.92699e-05,5.44141e-05,-6.90462e-06,1.80227e-05
625,-1.50123e-05,1.11535e-05,2.62639e-05,5.68641e-05,-4.94879e-06,1.14976e-05
626,-1.97261e-05,1.10099e-05,2.64417e-05,5.50616e-05,-3.72161e-06,5.75541e-06
627,-4.31677e-06,1.15075e-05,2.51683e-05,5.24122e-05,-6.16357e-06,5.76897e-06
628,1.15693e-05,1.09549e-05,2.36981e-05,5.13603e-05,-9.87867e-06,1.05401e-05
629,1.53092e-05,9.22547e-06,2.59501e-05,4.95227e-05,-1.0572e-05,1.49445e-05
630,4.94949e-06,6.62489e-06,2.85236e-05,4.8242e-05,-9.98443e-06,1.75828e-05
631,-1.76578e-05,3.30452e-06,2.68323e-05,5.05705e-05,-1.02373e-05,1.8715e-05
632,-2.55687e-05,1.76492e-06,2.32795e-05,5.36367e-05,-8.32455e-06,1.54996e-05
633,-5.14575e-06,3.89214e-06,2.24703e-05,5.4136e-05,-6.39745e-06,9.42222e-06
634,1.2849e-05,7.51206e-06,2.22143e-05,5.31621e-05,-8.62328e-06,7.90092e-06
635,7.81263e-06,1.12085e-05,2.05888e-05,5.45308e-05,-1.24527e-05,1.20065e-05
636,-6.85921e-06,1.31873e-05,2.07331e-05,5.79025e-05,-1.38664e-05,1.59694e-05
637,-2.90706e-05,1.46714e-05,2.24328e-05,5.72151e-05,-1.43282e-05,1.4156e-05
638,-3.91978e-05,1.58257e-05,2.48749e-05,5.15361e-05,-1.64071e-05,9.55218e-06
639,-2.04063e-05,1.66927e-05,2.62127e-05,4.67436e-05,-1.661e-05,9.82347e-06
640,-3.04569e-06,1.92828e-05,2.46628e-05,4.29053e-05,-1.51229e-05,1.24268e-05
641,5.11307e-07,1.86816e-05,2.33062e-05,4.19989e-05,-1.51962e-05,1.33946e-05
642,2.55035e-06,1.5462e-05,2.55327e-05,4.63483e-05,-1.62083e-05,1.29722e-05
643,1.81092e-06,1.61375e-05,2.68087e-05,5.1612e-05,-1.4695e-05,1.00807e-05
644,9.97916e-07,2.16521e-05,2.84529e-05,5.42433e-05,-1.09559e-05,8.45552e-06
645,-1.0708e-05,2.63738e-05,3.04357e-05,5.54318e-05,-9.4101e-06,8.47269e-06
646,-3.01546e-05,2.60557e-05,3.00343e-05,5.68742e-05,-1.24931e-05,1.11873e-05
647,-3.32602e-05,2.37607e-05,2.72352e-05,5.46477e-05,-1.63479e-05,1.52453e-05
648,-1.6171e-05,2.41137e-05,2.37198e-05,4.98781e-05,-1.8659e-05,1.62782e-05
649,-8.10822e-07,2.64048e-05,2.29276e-05,4.73958e-05,-1.88336e-05,1.54929e-05
650,4.13324e-06,2.84816e-05,2.46765e-05,4.89666e-05,-1.64344e-05,1.51425e-05
651,-4.52611e-06,2.79221e-05,2.60253e-05,5.2025e-05,-1.35738e-05,1.24248e-05
652,-2.19247e-05,2.47111e-05,2.5543e-05,5.3086e-05,-1.09026e-05,6.57561e-06
653,-2.51152e-05,2.22689e-05,2.36226e-05,5.16267e-05,-9.5225e-06,3.4257e-06
654,-8.46116e-06,2.12112e-05,2.32938e-05,4.84071e-05,-1.02442e-05,5.42443e-06
655,8.08195e-06,2.05558e-05,2.61648e-05,4.63513e-05,-1.36299e-05,8.66208e-06
656,1.01812e-05,1.91346e-05,2.80418e-05,4.58884e-05,-1.52002e-05,9.83853e-06
657,8.33548e-07,1.73323e-05,2.60788e-05,4.59973e-05,-1.41345e-05,9.91e-06
658,-1.30171e-05,1.3777e-05,2.41189e-05,4.53184e-05,-1.48139e-05,7.22696e-06
659,-1.36952e-05,1.11632e-05,2.5776e-05,4.47568e-05,-1.75924e-05,1.25505e-06
660,4.11964e-06,1.12187e-05,2.63412e-05,4.47806e-05,-1.86912e-05,-2.15313e-06
661,2.09879e-05,1.44546e-05,2.70436e-05,4.45212e-05,-1.65826e-05,3.72658e-07
662,1.99226e-05,1.89134e-05,3.03001e-05,4.65771e-05,-1.15994e-05,5.50257e-06
663,4.99265e-06,1.77931e-05,3.02469e-05,5.02307e-05,-7.22428e-06,9.32984e-06
664,-2.39306e-05,1.03462e-05,2.87164e-05,5.17258e-05,-6.58402e-06,1.03622e-05
665,-4.35938e-05,3.3211e-06,3.13003e-05,5.02055e-05,-8.74237e-06,1.12101e-05
666,-2.98638e-05,4.49726e-07,3.25491e-05,4.873e-05,-1.1418e-05,1.30066e-05
667,-1.12718e-05,1.35977e-07,3.24965e-05,5.14307e-05,-1.15177e-05,1.33078e-05
668,-9.51327e-07,1.39007e-06,3.66172e-05,5.49642e-05,-8.3188e-06,1.1553e-05
669,6.22177e-06,4.83656e-06,4.22133e-05,5.50486e-05,-4.98648e-06,1.2403e-05
670,7.71091e-06,8.99843e-06,4.23122e-05,5.20432e-05,-6.1987e-06,1.75743e-05
671,9.69441e-06,9.3513e-06,4.04603e-05,4.77006e-05,-8.76853e-06,2.05494e-05
672,-4.05054e-07,6.67658e-06,4.26148e-05,4.56054e-05,-8.92214e-06,1.76696e-05
673,-2.03288e-05,3.31743e-06,4.33947e-05,4.69001e-05,-7.20809e-06,1.39351e-05
674,-2.40434e-05,1.39871e-06,4.05366e-05,4.76168e-05,-5.37207e-06,1.30419e-05
675,-5.54779e-06,2.05067e-06,3.74285e-05,4.47436e-05,-5.7433e-06,1.39492e-05
676,9.20183e-06,6.35505e-06,3.41943e-05,4.10276e-05,-8.15482e-06,1.40568e-05
677,7.67063e-06,1.24787e-05,3.16834e-05,4.0324e-05,-7.88724e-06,1.39401e-05
678,-9.19233e-06,1.39779e-05,2.90404e-05,4.13491e-05,-6.11693e-06,1.25454e-05
679,-2.99613e-05,7.62028e-06,2.73812e-05,4.06614e-05,-7.67796e-06,9.67775e-06
680,-3.25117e-05,1.12311e-06,2.68282e-05,4.06835e-05,-1.13984e-05,1.08165e-05
681,-1.33209e-05,-7.92842e-07,2.58034e-05,4.43608e-05,-1.2294e-05,1.69709e-05
682,6.49192e-06,-3.44903e-07,2.4875e-05,4.83706e-05,-1.00023e-05,2.21097e-05
683,1.0908e-05,3.22869e-06,2.35622e-05,4.94198e-05,-6.81851e-06,2.33052e-05
684,1.6588e-06,7.99611e-06,2.07386e-05,4.85156e-05,-4.80024e-06,2.33271e-05
685,-1.55775e-05,9.55313e-06,1.83257e-05,4.60794e-05,-4.05159e-06,2.21729e-05
686,-2.22658e-05,9.67129e-06,1.95114e-05,4.70264e-05,-2.69664e-06,2.18775e-05
687,-7.68364e-06,1.20519e-05,2.24e-05,5.20596e-05,-2.3081e-06,2.37728e-05
688,1.22989e-05,1.42335e-05,2.29793e-05,5.27676e-05,-4.68254e-06,2.28327e-05
689,1.96123e-05,1.54049e-05,2.34683e-05,4.63822e-05,-7.94623e-06,1.85813e-05
690,1.48179e-05,1.81214e-05,2.43995e-05,4.21158e-05,-8.61201e-06,1.5815e-05
691,-5.73475e-06,2.14503e-05,2.22106e-05,4.64497e-05,-7.50388e-06,1.29614e-05
692,-2.21954e-05,1.9874e-05,2.17605e-05,5.10856e-05,-5.4731e-06,1.0637e-05
693,-8.26054e-06,1.6802e-05,2.03523e-05,4.94655e-05,-3.39452e-06,1.24541e-05
694,8.45834e-06,1.88997e-05,1.98176e-05,4.59173e-05,-6.59962e-06,1.30793e-05
695,9.98031e-06,2.0772e-05,2.10707e-05,4.50803e-05,-1.18159e-05,1.27711e-05
696,9.34258e-06,1.83912e-05,2.30559e-05,4.52104e-05,-1.15273e-05,1.30723e-05
697,8.48885e-06,1.54604e-05,2.59385e-05,4.7062e-05,-7.13835e-06,1.01918e-05
698,8.55213e-06,1.25369e-05,2.67825e-05,4.93463e-05,-2.37284e-06,5.55065e-06
699,-5.98411e-06,8.0523e-06,2.67003e-05,5.09292e-05,-3.505e-06,2.27488e-06
700,-2.98996e-05,1.55108e-06,2.55125e-05,5.34415e-05,-7.71768e-06,1.50243e-07
701,-3.21165e-05,-2.62145e-06,2.56381e-05,5.6784e-05,-8.35266e-06,-3.40069e-06
702,-8.32951e-06,-1.79671e-07,2.79934e-05,5.93678e-05,-4.84858e-06,-4.00543e-06
703,1.26801e-05,6.19145e-06,3.0934e-05,5.90137e-05,-1.88578e-06,-1.49038e-06
704,1.39863e-05,1.04926e-05,3.05434e-05,5.54851e-05,-2.75813e-06,1.25321e-06
705,-4.24178e-06,9.95654e-06,2.89449e-05,4.91978e-05,-6.33028e-06,2.26049e-06
706,-2.48182e-05,4.94172e-06,2.89145e-05,4.47387e-05,-7.89608e-06,2.98944e-06
707,-2.37203e-05,-1.05024e-06,3.0239e-05,4.5268e-05,-5.3927e-06,5.28256e-06
708,-2.51475e-06,-3.12344e-06,2.97809e-05,4.82276e-05,-3.14627e-06,7.1589e-06
709,1.3876e-05,1.02032e-07,2.77654e-05,5.00706e-05,-3.96271e-06,6.1577e-06
710,1.39336e-05,5.13753e-06,2.84974e-05,5.23068e-05,-6.07836e-06,3.87185e-06
711,5.30035e-06,7.06321e-06,3.05249e-05,5.54557e-05,-5.55303e-06,4.25125e-06
712,-9.42523e-06,5.89662e-06,3.19952e-05,5.70655e-05,-3.15303e-06,7.44437e-06
713,-1.63054e-05,4.40759e-06,3.33558e-05,5.66409e-05,-1.43325e-06,1.16523e-05
714,-5.05436e-06,3.56412e-06,3.27766e-05,5.61851e-05,-4.18638e-07,1.38688e-05
715,9.35492e-06,2.55135e-06,3.05168e-05,5.79947e-05,-7.21658e-07,1.75783e-05
716,9.81956e-06,2.67782e-06,2.86795e-05,6.1575e-05,-2.34146e-06,1.96568e-05
717,-2.20694e-06,5.0341e-06,2.68431e-05,6.29585e-05,-1.74104e-06,1.50151e-05
718,-2.52108e-05,5.16129e-06,2.71199e-05,5.94416e-05,-3.67921e-07,9.42577e-06
719,-3.51574e-05,1.94237e-06,2.85714e-05,5.5312e-05,-1.25116e-06,9.81138e-06
720,-1.36536e-05,3.0036e-06,3.0971e-05,5.36306e-05,-6.92667e-06,1.22086e-05
721,2.94208e-06,6.93151e-06,3.14942e-05,5.13685e-05,-1.59325e-05,9.69037e-06
722,3.26026e-06,4.72741e-06,3.01023e-05,5.00525e-05,-2.01451e-05,8.469e-06
723,9.97966e-06,-1.51113e-07,3.12893e-05,5.10318e-05,-1.82515e-05,1.3472e-05
724,1.70789e-05,-1.04607e-06,3.32581e-05,5.24237e-05,-1.4198e-05,1.92691e-05
725,1.64341e-05,4.47852e-07,3.18358e-05,5.0011e-05,-8.14548e-06,2.57111e-05
726,-4.49323e-07,3.56072e-06,2.8059e-05,4.40305e-05,-4.53251e-06,3.13894e-05
727,-2.19203e-05,8.76181e-06,2.64394e-05,4.35085e-05,-5.6799e-06,3.28888e-05
728,-2.11659e-05,1.45522e-05,2.56654e-05,4.78748e-05,-8.2636e-06,3.29049e-05
729,-1.67763e-06,1.81044e-05,2.29837e-05,5.08681e-05,-1.08349e-05,3.13864e-05
730,1.25907e-05,1.82814e-05,2.17382e-05,5.22374e-05,-1.58505e-05,2.78573e-05
731,1.16858e-05,1.71768e-05,2.42939e-05,5.57478e-05,-2.22196e-05,2.2879e-05
732,-6.14111e-06,1.64617e-05,2.58459e-05,5.84464e-05,-2.49296e-05,1.74593e-05
733,-3.01933e-05,1.40668e-05,2.65094e-05,5.72972e-05,-2.28984e-05,1.51548e-05
734,-3.61872e-05,1.22729e-05,2.91507e-05,5.41059e-05,-1.87216e-05,1.68025e-05
735,-1.9248e-05,1.25692e-05,3.11197e-05,5.30747e-05,-1.6516e-05,2.06283e-05
736,-3.31766e-06,1.32503e-05,3.04005e-05,5.49337e-05,-1.85452e-05,2.38474e-05
737,-3.97439e-06,1.44476e-05,3.01597e-05,5.50529e-05,-2.08744e-05,2.56494e-05
738,-1.71164e-05,1.62954e-05,3.10002e-05,5.35469e-05,-1.95622e-05,2.66817e-05
739,-3.57993e-05,1.62151e-05,2.93007e-05,5.38623e-05,-1.73136e-05,2.58604e-05
740,-4.05175e-05,1.30332e-05,2.44578e-05,5.66219e-05,-1.55254e-05,2.40225e-05
741,-2.2033e-05,1.07729e-05,1.88139e-05,5.78184e-05,-1.65239e-05,2.35257e-05
742,-1.66076e-06,1.23438e-05,1.72769e-05,5.42342e-05,-1.88924e-05,2.31812e-05
743,2.76874e-06,1.62717e-05,2.1671e-05,4.91994e-05,-1.89653e-05,2.1116e-05
744,-4.95542e-06,1.78833e-05,2.7475e-05,5.01363e-05,-1.57897e-05,1.80648e-05
745,-2.61535e-05,1.45501e-05,2.85001e-05,5.46096e-05,-1.09381e-05,1.9688e-05
746,-3.93186e-05,1.08062e-05,2.46815e-05,5.49796e-05,-1.01646e-05,2.19109e-05
747,-1.99716e-05,1.09389e-05,2.4128e-05,5.20323e-05,-1.51412e-05,1.8052e-05
748,7.71543e-08,1.11174e-05,2.76775e-05,4.70409e-05,-1.78248e-05,1.19973e-05
749,5.15295e-06,8.69902e-06,2.86455e-05,4.32368e-05,-1.47524e-05,1.05544e-05
750,9.44733e-06,3.69831e-06,2.68477e-05,4.36191e-05,-1.36715e-05,1.70484e-05
751,9.17598e-06,6.03226e-07,2.61494e-05,4.48663e-05,-1.60418e-05,2.28735e-05
752,4.63042e-06,2.77255e-06,2.58323e-05,4.51289e-05,-1.79774e-05,2.30157e-05
753,-1.10035e-05,7.99539e-06,2.20928e-05,4.45436e-05,-1.72429e-05,1.98786e-05
754,-3.2777e-05,1.18444e-05,1.86605e-05,4.30324e-05,-1.50997e-05,1.59114e-05
755,-3.53628e-05,1.33555e-05,1.99072e-05,4.2122e-05,-1.39993e-05,1.2537e-05
756,-1.58467e-05,1.20688e-05,2.223e-05,4.20403e-05,-1.24151e-05,1.25612e-05
757,-2.10604e-06,1.02985e-05,2.27646e-05,4.33211e-05,-9.55388e-06,1.62336e-05
758,-3.8228e-06,1.39211e-05,2.28178e-05,4.76672e-05,-7.57222e-06,2.08871e-05
759,-1.83504e-05,1.94172e-05,2.32787e-05,5.03389e-05,-6.1161e-06,2.15354e-05
760,-3.5886e-05,1.95106e-05,2.30764e-05,5.15133e-05,-3.64007e-06,1.8822e-05
761,-3.73634e-05,1.48804e-05,2.23245e-05,5.30281e-05,-2.40093e-06,1.76239e-05
762,-1.88204e-05,1.10531e-05,2.16441e-05,5.46295e-05,-5.35411e-06,1.89652e-05
763,9.42584e-07,1.04466e-05,2.1005e-05,5.68029e-05,-1.13919e-05,2.02358e-05
764,9.13149e-06,1.26664e-05,2.12926e-05,5.89638e-05,-1.45308e-05,1.87504e-05
765,3.03564e-06,1.51592e-05,2.41798e-05,5.88034e-05,-1.15256e-05,1.39595e-05
766,-1.41435e-05,1.46069e-05,2.89557e-05,5.63665e-05,-4.85399e-06,9.505e-06
767,-1.81714e-05,1.26911e-05,3.37142e-05,5.5462e-05,1.03477e-06,1.13893e-05
768,-7.05732e-08,1.35661e-05,3.77968e-05,5.53222e-05,3.78601e-06,1.47888e-05
769,1.77376e-05,1.56648e-05,3.83587e-05,5.34823e-05,3.35755e-07,1.33331e-05
770,2.02825e-05,1.70663e-05,3.74347e-05,5.18345e-05,-6.57039e-06,5.84e-06
771,1.35365e-05,1.7964e-05,3.84727e-05,5.31944e-05,-8.02375e-06,-1.3e-06
772,-7.29712e-06,1.57072e-05,3.90545e-05,5.55658e-05,-3.35845e-06,-1.00581e-06
773,-2.1116e-05,1.2727e-05,3.77267e-05,5.50988e-05,2.56466e-06,7.70874e-06
774,-8.07049e-08,1.19431e-05,3.30411e-05,5.04872e-05,5.98269e-06,1.66506e-05
775,1.78242e-05,1.23988e-05,2.81298e-05,4.75533e-05,3.47532e-06,1.54293e-05
776,1.31374e-05,1.45412e-05,2.47754e-05,5.16685e-05,-2.6742e-06,1.38625e-05
777,1.28056e-05,1.51411e-05,2.52675e-05,5.95422e-05,-4.73196e-06,1.57346e-05
778,1.82851e-05,1.31111e-05,3.16343e-05,6.20331e-05,-2.81473e-06,1.40386e-05
779,2.10191e-05,1.30434e-05,3.53432e-05,5.88442e-05,-2.6513e-06,8.93329e-06
780,3.95856e-06,1.64782e-05,3.10434e-05,5.63017e-05,-2.29518e-06,4.69004e-06
781,-2.44325e-05,1.82262e-05,2.59504e-05,5.42685e-05,1.2295e-06,6.51434e-06
782,-3.07901e-05,1.77066e-05,2.57998e-05,5.44796e-05,5.21917e-06,9.38345e-06
783,-1.08144e-05,1.78419e-05,2.6081e-05,5.64225e-05,4.92187e-06,8.62372e-06
784,6.66029e-06,1.92314e-05,2.55563e-05,5.69515e-05,1.47402e-06,6.17802e-06
785,9.09198e-06,1.96149e-05,2.73081e-05,5.67948e-05,-1.00717e-06,5.75973e-06
786,-2.60692e-06,1.63548e-05,3.16256e-05,5.69874e-05,-2.58175e-06,7.28582e-06
787,-2.14121e-05,1.17942e-05,3.63682e-05,5.60784e-05,-3.06322e-06,9.2433e-06
788,-2.72645e-05,1.19814e-05,3.96969e-05,5.18249e-05,-3.97779e-06,1.05317e-05
789,-1.35394e-05,1.59867e-05,3.82511e-05,4.8805e-05,-5.32121e-06,1.16982e-05
790,2.1101e-06,1.75973e-05,3.40815e-05,5.1229e-05,-6.17744e-06,1.29078e-05
791,4.37789e-06,1.64995e-05,3.37576e-05,5.47116e-05,-6.36123e-06,1.23636e-05
792,-7.0855e-06,1.56235e-05,3.77121e-05,5.41886e-05,-7.16623e-06,9.95955e-06
793,-2.76966e-05,1.55386e-05,4.01553e-05,5.07119e-05,-7.44398e-06,7.11987e-06
794,-3.45648e-05,1.67138e-05,4.10098e-05,4.83061e-05,-5.38546e-06,5.24691e-06
795,-1.38548e-05,1.91582e-05,4.07475e-05,4.82513e-05,-2.4052e-06,5.91791e-06
796,8.92533e-06,2.07872e-05,3.723e-05,4.81578e-05,-7.31279e-07,8.33132e-06
797,1.02302e-05,2.09217e-05,3.31699e-05,4.84552e-05,-3.09743e-06,1.01533e-05
798,-1.95873e-06,2.00019e-05,2.93185e-05,4.77213e-05,-8.23047e-06,1.10898e-05
799,-2.32444e-05,1.59084e-05,2.48506e-05,4.3128e-05,-1.03734e-05,1.16906e-05
800,-3.57002e-05,9.4465e-06,2.35356e-05,3.83128e-05,-7.2711e-06,1.33935e-05
801,-2.26746e-05,6.45565e-06,3.01536e-05,3.90177e-05,-6.10176e-06,1.58801e-05
802,-1.0703e-05,8.41049e-06,3.53365e-05,4.25598e-05,-1.00149e-05,1.51534e-05
803,-7.91313e-06,1.41602e-05,3.34515e-05,4.31306e-05,-1.40697e-05,1.36714e-05
804,-2.62484e-06,1.77252e-05,3.10827e-05,4.26585e-05,-1.63144e-05,1.73444e-05
805,-2.81134e-06,1.75552e-05,2.84275e-05,4.18267e-05,-1.8282e-05,2.27788e-05
806,-4.5799e-06,1.83141e-05,2.66432e-05,3.99628e-05,-2.04468e-05,2.3693e-05
807,-1.52481e-05,2.00285e-05,2.98175e-05,3.73497e-05,-2.15013e-05,2.00435e-05
808,-3.26269e-05,1.92513e-05,3.44889e-05,3.60705e-05,-2.01291e-05,2.08676e-05
809,-3.2812e-05,1.84976e-05,3.43475e-05,3.72575e-05,-1.71833e-05,2.42756e-05
810,-1.30308e-05,1.81693e-05,2.95202e-05,4.01808e-05,-1.62394e-05,2.58502e-05
811,3.25019e-06,1.7761e-05,2.61568e-05,4.55823e-05,-1.6761e-05,2.71644e-05
812,5.41017e-06,2.05494e-05,2.61353e-05,4.95813e-05,-1.70697e-05,2.65888e-05
813,-5.43695e-06,2.39127e-05,2.75205e-05,5.02197e-05,-1.67195e-05,2.23463e-05
814,-2.26717e-05,2.12521e-05,2.74721e-05,4.98416e-05,-1.74611e-05,1.70134e-05
815,-2.85428e-05,1.33689e-05,2.56676e-05,5.064e-05,-2.12025e-05,1.50924e-05
816,-1.55905e-05,7.85493e-06,2.28254e-05,5.14098e-05,-2.51623e-05,1.76413e-05
817,1.10814e-06,7.72901e-06,1.99514e-05,5.1854e-05,-2.50757e-05,2.12848e-05
818,4.48204e-06,1.06085e-05,1.96509e-05,5.24179e-05,-1.8869e-05,2.24603e-05
819,-6.86437e-06,1.23205e-05,2.27789e-05,5.12981e-05,-1.20146e-05,1.98569e-05
820,-2.74749e-05,1.08919e-05,2.60637e-05,4.76394e-05,-1.0543e-05,1.53534e-05
821,-3.67978e-05,7.87541e-06,2.60335e-05,4.59168e-05,-1.3075e-05,1.35189e-05
822,-2.17492e-05,6.43739e-06,2.38986e-05,4.80241e-05,-1.49094e-05,1.64069e-05
823,-5.69362e-07,5.51278e-06,2.18719e-05,4.96556e-05,-1.53277e-05,2.11709e-05
824,6.24051e-06,3.7921e-06,2.04502e-05,4.97558e-05,-1.48076e-05,2.19457e-05
825,2.93596e-07,1.6941e-06,1.85195e-05,4.89663e-05,-1.38917e-05,1.78595e-05
826,-1.95164e-05,1.37582e-06,1.80167e-05,4.8289e-05,-1.10148e-05,9.71347e-06
827,-3.09626e-05,2.69992e-06,1.79422e-05,4.84252e-05,-8.06441e-06,6.01855e-06
828,-1.19577e-05,4.62304e-06,1.79576e-05,5.08321e-05,-9.23959e-06,1.36018e-05
829,3.65117e-06,8.06181e-06,1.74984e-05,5.19789e-05,-1.2588e-05,2.03485e-05
830,3.03283e-06,1.16207e-05,1.41581e-05,5.26733e-05,-1.09939e-05,1.93572e-05
831,1.9896e-06,1.19907e-05,1.25131e-05,5.29324e-05,-6.67119e-06,1.42624e-05
832,3.03364e-06,1.08059e-05,1.3395e-05,5.25787e-05,-7.12671e-06,8.1436e-06
833,4.52283e-06,1.24909e-05,1.45502e-05,5.24039e-05,-1.0013e-05,3.38694e-06
834,-9.1117e-06,1.54242e-05,1.55448e-05,5.31006e-05,-1.34133e-05,4.4953e-07
835,-2.95653e-05,1.37268e-05,1.74013e-05,5.45568e-05,-1.45276e-05,1.29221e-06
836,-2.86587e-05,9.26454e-06,2.13249e-05,5.49132e-05,-1.19014e-05,4.41039e-06
837,-3.45332e-06,6.73861e-06,2.19809e-05,5.61649e-05,-6.97699e-06,7.50821e-06
838,1.66067e-05,4.95274e-06,1.91043e-05,5.6601e-05,-1.84837e-06,7.29055e-06
839,2.01252e-05,4.09845e-06,1.77727e-05,5.75306e-05,-7.24846e-07,6.64095e-06
840,6.65635e-06,4.34206e-06,1.93324e-05,5.99802e-05,-5.85215e-06,6.84725e-06
841,-1.43745e-05,5.13948e-06,2.20141e-05,6.28575e-05,-1.30025e-05,6.21885e-06
842,-1.84656e-05,7.20713e-06,2.48468e-05,6.20477e-05,-1.67556e-05,4.48865e-06
843,-2.04953e-07,8.28412e-06,2.65863e-05,5.74131e-05,-1.58584e-05,3.25274e-06
844,1.83036e-05,7.2556e-06,2.59938e-05,5.17968e-05,-1.27914e-05,4.08095e-06
845,2.01858e-05,7.57516e-06,2.56295e-05,4.69761e-05,-8.85654e-06,5.783e-06
846,7.79478e-06,9.91457e-06,2.73691e-05,4.65626e-05,-5.53082e-06,7.14941e-06
847,-1.25288e-05,1.03745e-05,3.0187e-05,4.97948e-05,-4.22694e-06,7.80091e-06
848,-1.81046e-05,9.53533e-06,3.07078e-05,5.15868e-05,-2.28918e-06,8.72181e-06
849,-2.07674e-08,8.33549e-06,2.81159e-05,5.14196e-05,-3.07512e-06,9.09042e-06
850,1.7439e-05,5.57348e-06,2.44819e-05,5.07778e-05,-9.02357e-06,9.8548e-06
851,1.71932e-05,5.59783e-06,2.32504e-05,5.15427e-05,-1.2528e-05,1.07429e-05
852,4.80317e-06,1.01401e-05,2.42989e-05,5.49663e-05,-1.09847e-05,1.04091e-05
853,-1.79979e-05,1.27255e-05,2.42513e-05,5.49523e-05,-6.69207e-06,8.08661e-06
854,-2.84059e-05,9.31827e-06,2.76968e-05,4.94079e-05,-4.61388e-06,6.59365e-06
855,-8.81761e-06,7.37297e-06,3.33399e-05,4.55827e-05,-6.14482e-06,6.09192e-06
856,8.04234e-06,1.23733e-05,3.12005e-05,4.7118e-05,-7.34675e-06,3.61391e-06
857,8.24461e-06,1.87094e-05,2.50076e-05,4.87037e-05,-8.52503e-06,1.49305e-06
858,8.03155e-06,2.08356e-05,2.45866e-05,4.87775e-05,-7.13508e-06,3.7266e-06
859,6.45695e-06,2.00525e-05,2.62127e-05,4.82282e-05,-5.40406e-06,7.34895e-06
860,4.71916e-06,2.08511e-05,2.72222e-05,4.92282e-05,-5.1133e-06,8.57245e-06
861,-6.05602e-06,2.23495e-05,2.71927e-05,4.97036e-05,-3.03083e-06,6.90371e-06
862,-2.45839e-05,2.08474e-05,2.33882e-05,4.54929e-05,5.72118e-07,4.05156e-06
863,-2.44164e-05,1.86592e-05,2.2002e-05,4.18523e-05,1.55401e-06,3.77962e-06
864,-5.49766e-07,1.58129e-05,2.21899e-05,4.22672e-05,-8.82379e-07,7.79135e-06
865,1.73522e-05,1.37438e-05,1.89019e-05,4.31992e-05,-2.99295e-06,1.07784e-05
866,1.82515e-05,1.36174e-05,1.56239e-05,4.35966e-05,-3.05554e-06,1.13969e-05
867,3.40595e-06,1.43027e-05,1.51187e-05,4.52127e-05,-4.41145e-07,1.1669e-05
868,-1.68699e-05,1.39692e-05,1.53952e-05,4.79758e-05,2.69423e-06,1.33784e-05
869,-2.06207e-05,1.14195e-05,1.61723e-05,4.95632e-05,3.91726e-06,1.58963e-05
870,-3.4828e-06,8.64869e-06,1.60508e-05,4.82881e-05,3.01448e-06,1.82179e-05
871,1.33536e-05,9.19683e-06,1.36338e-05,4.76486e-05,-1.25814e-07,2.00714e-05
872,1.40856e-05,1.45516e-05,1.24747e-05,5.1406e-05,-3.60156e-06,2.04163e-05
873,2.26141e-06,1.93188e-05,1.35824e-05,5.52477e-05,-4.42077e-06,1.75968e-05
874,-1.44962e-05,1.78892e-05,1.50549e-05,5.45601e-05,-2.99009e-06,1.18895e-05
875,-1.69596e-05,1.17242e-05,1.50345e-05,5.14997e-05,-1.94302e-06,1.01168e-05
876,3.5936e-08,6.59266e-06,1.40192e-05,4.67931e-05,-1.8517e-06,1.50111e-05
877,1.63343e-05,6.08626e-06,1.36075e-05,4.12562e-05,-5.77631e-07,1.88448e-05
878,1.8209e-05,9.43592e-06,1.51282e-05,4.19043e-05,-8.95045e-07,1.55577e-05
879,7.66687e-06,1.1912e-05,1.68349e-05,4.97364e-05,-2.80281e-06,8.98603e-06
880,-1.75031e-05,1.15782e-05,1.58648e-05,5.2212e-05,-2.96528e-06,5.82244e-06
881,-3.17467e-05,9.45142e-06,1.69168e-05,4.71465e-05,-2.5119e-06,6.93039e-06
882,-1.2742e-05,1.00038e-05,1.94541e-05,4.32066e-05,-1.03328e-06,9.01774e-06
883,4.95714e-06,1.34971e-05,1.95739e-05,4.42554e-05,2.58835e-06,1.14669e-05
884,7.49266e-06,1.29597e-05,1.96714e-05,4.77923e-05,6.26682e-06,1.40103e-05
885,1.1992e-05,7.08554e-06,2.18689e-05,4.91501e-05,6.37688e-06,1.53654e-05
886,1.0982e-05,6.65191e-06,2.40162e-05,4.6106e-05,4.45373e-06,1.78733e-05
887,6.77002e-06,1.45763e-05,2.32014e-05,4.57702e-05,1.63995e-06,2.65361e-05
888,-4.39342e-06,1.94372e-05,2.30578e-05,5.02456e-05,-4.41685e-06,3.26627e-05
889,-1.89749e-05,1.50846e-05,2.52539e-05,4.99291e-05,-8.83206e-06,3.26031e-05
890,-1.67768e-05,8.68813e-06,2.60818e-05,4.62446e-05,-8.4721e-06,2.94359e-05
891,1.7917e-06,6.78962e-06,2.54947e-05,4.3095e-05,-8.00856e-06,2.63154e-05
892,1.33297e-05,9.38821e-06,2.52335e-05,4.14269e-05,-6.60094e-06,2.30304e-05
893,1.18739e-05,1.41376e-05,2.4709e-05,4.06772e-05,-4.55163e-06,2.17393e-05
894,-3.95671e-07,1.61049e-05,2.35377e-05,4.2858e-05,-6.32178e-06,2.08987e-05
895,-1.64509e-05,1.20409e-05,2.38934e-05,4.8805e-05,-1.22039e-05,1.92507e-05
896,-1.94292e-05,4.36437e-06,2.75489e-05,5.48777e-05,-1.80512e-05,2.03068e-05
897,-5.58371e-06,-7.25821e-07,3.06515e-05,5.74583e-05,-2.03594e-05,2.28192e-05
898,8.20303e-06,-1.97189e-06,3.11694e-05,5.63239e-05,-1.87485e-05,2.56072e-05
899,6.63761e-06,-1.23484e-06,3.22755e-05,5.44146e-05,-1.59809e-05,2.70947e-05
900,-7.13289e-06,9.80069e-07,3.40851e-05,5.35924e-05,-1.47343e-05,2.65412e-05
901,-2.6041e-05,3.31471e-06,3.38184e-05,5.40723e-05,-1.35171e-05,2.18072e-05
902,-3.191e-05,4.61288e-06,3.27899e-05,5.4381e-05,-1.27287e-05,1.67155e-05
903,-1.42352e-05,6.5329e-06,3.17329e-05,5.4585e-05,-1.23866e-05,1.41554e-05
904,5.37456e-06,8.47569e-06,3.02619e-05,5.47091e-05,-1.17408e-05,1.44675e-05
905,7.36902e-06,8.20607e-06,3.07408e-05,5.73386e-05,-1.13796e-05,1.53147e-05
906,-2.4723e-06,9.26175e-06,3.28161e-05,5.80656e-05,-1.23089e-05,1.55291e-05
907,-2.55535e-05,1.51463e-05,2.896e-05,5.29216e-05,-1.17027e-05,1.37406e-05
908,-3.55834e-05,1.75834e-05,2.26237e-05,4.7829e-05,-6.10756e-06,1.42158e-05
909,-1.50913e-05,1.47207e-05,2.23211e-05,4.63644e-05,-7.83591e-07,1.78117e-05
910,-2.68031e-06,1.32616e-05,2.30426e-05,4.61313e-05,-3.54733e-06,1.5418e-05
911,-7.14345e-06,1.35741e-05,2.71088e-05,4.80232e-05,-1.15377e-05,1.08863e-05
912,-6.64407e-06,1.42448e-05,3.37111e-05,4.9254e-05,-1.30288e-05,1.13031e-05
913,-6.04336e-06,1.48618e-05,3.74872e-05,4.55766e-05,-7.85465e-06,1.34909e-05
914,-8.1022e-06,1.7377e-05,3.70126e-05,4.35531e-05,-4.06856e-06,1.61254e-05
915,-1.94576e-05,1.82806e-05,3.67347e-05,4.61342e-05,-3.07285e-06,1.94475e-05
916,-3.64502e-05,1.22427e-05,4.17229e-05,5.13483e-05,-1.9232e-06,2.05936e-05
917,-3.78038e-05,4.84148e-06,4.58463e-05,5.35832e-05,-2.82454e-07,1.79143e-05
918,-1.88113e-05,2.2791e-06,4.74207e-05,5.02645e-05,-2.77279e-06,1.67758e-05
919,-7.5392e-07,3.92222e-06,4.71623e-05,4.63254e-05,-8.53568e-06,1.90149e-05
920,2.45009e-06,8.69131e-06,4.75998e-05,4.59648e-05,-1.07084e-05,2.00601e-05
921,-1.06322e-05,1.20921e-05,4.88695e-05,4.86155e-05,-8.30905e-06,1.69929e-05
922,-2.98069e-05,1.04086e-05,4.87515e-05,4.97891e-05,-6.81755e-06,1.47634e-05
923,-3.29151e-05,8.06638e-06,4.86203e-05,4.78369e-05,-9.20917e-06,1.78651e-05
924,-1.53621e-05,9.03156e-06,4.7966e-05,4.60556e-05,-1.30807e-05,2.4768e-05
925,4.2102e-06,1.26974e-05,4.51527e-05,4.73383e-05,-1.38928e-05,3.14557e-05
926,9.88677e-06,1.6044e-05,4.25901e-05,4.97243e-05,-1.05444e-05,3.33278e-05
927,8.58811e-07,1.69198e-05,4.08576e-05,5.15219e-05,-6.26915e-06,2.9579e-05
928,-1.79203e-05,1.55617e-05,3.78704e-05,5.26193e-05,-4.34311e-06,2.24449e-05
929,-2.66834e-05,1.42027e-05,3.56623e-05,5.53352e-05,-3.76105e-06,1.73009e-05
930,-1.38448e-05,1.53037e-05,3.4601e-05,6.00087e-05,-3.46756e-06,1.72836e-05
931,4.97815e-06,1.95504e-05,3.36775e-05,6.33197e-05,-4.3613e-06,2.06417e-05
932,1.19337e-05,2.61814e-05,3.23144e-05,6.22905e-05,-6.41233e-06,2.29255e-05
933,1.81803e-06,2.94809e-05,3.40159e-05,5.80185e-05,-6.79677e-06,2.02614e-05
934,-2.67881e-05,2.55275e-05,3.62874e-05,5.52274e-05,-7.35789e-06,1.51699e-05
935,-4.35566e-05,1.90664e-05,3.41534e-05,5.62361e-05,-9.52888e-06,1.33032e-05
936,-2.03433e-05,1.50152e-05,3.166e-05,5.74241e-05,-7.42531e-06,1.23152e-05
937,6.86449e-06,1.33908e-05,3.1628e-05,5.58558e-05,-6.72356e-06,8.14742e-06
938,1.1067e-05,1.1199e-05,3.479e-05,5.43876e-05,-1.0529e-05,4.97005e-06
939,5.48884e-06,9.15181e-06,3.564e-05,5.4927e-05,-1.69864e-05,5.77871e-06
940,-1.17168e-06,1.37039e-05,3.09707e-05,5.67628e-05,-2.25144e-05,5.97925e-06
941,-1.98809e-06,2.53075e-05,2.55452e-05,5.67769e-05,-2.30602e-05,5.04713e-06
942,-1.15166e-05,3.1914e-05,2.44957e-05,5.5563e-05,-2.32456e-05,3.72088e-06
943,-2.86518e-05,2.72145e-05,2.79087e-05,5.34336e-05,-2.35092e-05,3.60703e-06
944,-2.93354e-05,1.9454e-05,3.06089e-05,4.97278e-05,-2.17042e-05,6.32593e-06
945,-1.06239e-05,1.80392e-05,3.03396e-05,4.89986e-05,-1.90372e-05,1.16701e-05
946,4.86876e-06,2.24486e-05,3.11383e-05,5.21989e-05,-1.7283e-05,1.4823e-05
947,6.96532e-06,2.32398e-05,3.41867e-05,5.47721e-05,-1.6793e-05,1.52294e-05
948,-5.40658e-06,1.58131e-05,3.4665e-05,5.4788e-05,-1.61305e-05,1.44602e-05
949,-2.44854e-05,5.98174e-06,3.31616e-05,5.30952e-05,-1.451e-05,1.28464e-05
950,-2.91385e-05,2.60788e-06,3.32627e-05,4.98713e-05,-1.42173e-05,1.25239e-05
951,-1.27661e-05,3.62365e-06,3.55519e-05,4.66216e-05,-1.47817e-05,1.3785e-05
952,6.75018e-06,3.98019e-06,3.57552e-05,4.64357e-05,-1.38611e-05,1.52118e-05
953,1.19835e-05,5.17413e-06,3.45368e-05,4.81238e-05,-9.1163e-06,1.51043e-05
954,1.34181e-06,8.34833e-06,3.20974e-05,4.88211e-05,-2.43812e-06,1.32365e-05
955,-2.0143e-05,1.20684e-05,2.98562e-05,4.97999e-05,6.97663e-07,1.06885e-05
956,-2.9031e-05,1.47706e-05,3.10491e-05,4.79631e-05,-3.9003e-07,1.12095e-05
957,-1.3394e-05,1.4127e-05,3.29669e-05,4.31935e-05,-2.6338e-06,1.51179e-05
958,6.7612e-06,1.11771e-05,3.013e-05,4.19779e-05,-3.11039e-06,1.71979e-05
959,1.07293e-05,8.94335e-06,2.55715e-05,4.5435e-05,-2.18985e-06,1.60285e-05
960,-5.45036e-07,9.01029e-06,2.45181e-05,5.18043e-05,-5.9636e-06,1.62502e-05
961,-2.45459e-05,8.68824e-06,2.76406e-05,5.39537e-05,-1.55826e-05,1.56679e-05
962,-3.36203e-05,7.15325e-06,3.207e-05,4.77191e-05,-2.07992e-05,1.5086e-05
963,-9.88495e-06,1.01248e-05,3.17653e-05,4.07353e-05,-1.50049e-05,1.96776e-05
964,1.03129e-05,1.4762e-05,2.86022e-05,4.21135e-05,-8.6151e-06,2.16346e-05
965,1.34864e-05,1.70399e-05,2.65767e-05,5.18448e-05,-8.29517e-06,1.74955e-05
966,1.41152e-05,1.45588e-05,2.89104e-05,5.78852e-05,-9.70604e-06,1.46976e-05
967,1.37573e-05,9.6516e-06,2.86483e-05,5.5092e-05,-1.26562e-05,1.40833e-05
968,1.32693e-05,6.89753e-06,2.36012e-05,5.04562e-05,-1.37711e-05,1.29407e-05
969,1.35312e-07,7.00568e-06,1.8441e-05,4.94903e-05,-1.25223e-05,1.07866e-05
970,-2.20264e-05,9.28179e-06,1.83751e-05,5.01115e-05,-1.06722e-05,1.11444e-05
971,-2.13088e-05,1.17124e-05,2.04148e-05,4.95573e-05,-9.22779e-06,1.2201e-05
972,3.08753e-06,1.43933e-05,1.9451e-05,4.97749e-05,-8.95714e-06,1.30976e-05
973,1.79272e-05,1.50145e-05,1.77033e-05,4.96407e-05,-1.0301e-05,1.13111e-05
974,1.39669e-05,1.31441e-05,1.49784e-05,5.0133e-05,-1.13601e-05,7.62465e-06
975,-2.52202e-06,1.06189e-05,1.43187e-05,5.05259e-05,-9.67208e-06,3.50556e-06
976,-2.12038e-05,9.73046e-06,1.79805e-05,4.92807e-05,-6.67937e-06,1.56279e-06
977,-2.51616e-05,1.15216e-05,2.29535e-05,4.87878e-05,-4.46681e-06,2.27931e-06
978,-9.71594e-06,1.4797e-05,2.33814e-05,5.07242e-05,-3.40276e-06,9.55477e-07
979,5.47649e-06,1.70165e-05,2.03655e-05,5.285e-05,-3.32844e-06,1.86345e-08
980,5.3515e-06,1.62592e-05,1.92472e-05,5.26995e-05,-7.86204e-06,3.80012e-06
981,-8.5886e-06,1.42215e-05,2.00495e-05,5.16385e-05,-1.47706e-05,1.00164e-05
982,-2.83955e-05,1.09022e-05,1.84502e-05,4.96257e-05,-1.69183e-05,1.30706e-05
983,-3.22576e-05,8.09038e-06,1.53535e-05,4.95826e-05,-1.39275e-05,1.27415e-05
984,-1.30474e-05,7.81449e-06,1.21582e-05,5.29949e-05,-1.19392e-05,1.07019e-05
985,4.02803e-06,8.19792e-06,1.08552e-05,5.4601e-05,-1.28984e-05,1.10212e-05
986,9.63586e-07,8.3128e-06,1.27221e-05,5.13687e-05,-1.39362e-05,8.91535e-06
987,-1.37097e-05,1.113e-05,1.40907e-05,4.75686e-05,-1.55674e-05,5.27399e-06
988,-3.62221e-05,1.42917e-05,1.75166e-05,4.66567e-05,-1.81633e-05,7.07439e-06
989,-4.52863e-05,1.29197e-05,2.36513e-05,4.67062e-05,-2.03439e-05,1.00947e-05
990,-2.39979e-05,9.51397e-06,2.90754e-05,4.61228e-05,-1.86802e-05,1.13591e-05
991,-6.8131e-06,7.57165e-06,3.07323e-05,4.64468e-05,-1.45361e-05,1.239e-05
992,-6.99936e-06,8.13589e-06,2.84903e-05,4.58068e-05,-1.56127e-05,1.39636e-05
993,-6.98107e-06,1.06462e-05,2.98598e-05,4.13907e-05,-2.10978e-05,1.29749e-05
994,-6.33914e-06,1.37968e-05,3.40572e-05,3.79674e-05,-2.43674e-05,8.85192e-06
995,-4.49712e-06,1.77946e-05,3.65739e-05,4.06462e-05,-2.16425e-05,7.8857e-06
996,-1.37281e-05,2.04804e-05,3.51052e-05,4.6213e-05,-1.62563e-05,6.50403e-06
997,-3.22437e-05,1.63776e-05,3.05291e-05,4.98588e-05,-1.29273e-05,4.41145e-06
998,-3.44018e-05,1.00335e-05,2.67861e-05,5.14799e-05,-1.4109e-05,5.36489e-06
999,-1.41085e-05,7.29745e-06,2.35773e-05,5.23397e-05,-1.5718e-05,1.00053e-05
1000,5.19091e-06,6.90121e-06,2.10201e-05,5.17271e-05,-1.48967e-05,1.30111e-05
1001,1.14305e-05,6.5796e-06,1.87147e-05,5.09158e-05,-1.57301e-05,1.20115e-05
1002,2.61212e-06,5.27899e-06,1.92215e-05,4.97861e-05,-1.68166e-05,1.1464e-05
1003,-1.46194e-05,2.19291e-06,2.43783e-05,4.506e-05,-1.41979e-05,1.25036e-05
1004,-2.10233e-05,-3.50829e-07,2.85077e-05,3.91466e-05,-9.88865e-06,1.18869e-05
1005,-8.74273e-06,9.98837e-07,2.65996e-05,3.83418e-05,-7.06642e-06,9.3143e-06
1006,5.99667e-06,4.24888e-06,2.22051e-05,4.39919e-05,-5.28629e-06,9.58284e-06
1007,9.20672e-06,6.38751e-06,2.16725e-05,4.91421e-05,-6.49654e-06,1.3707e-05
1008,2.72948e-08,7.82725e-06,2.39234e-05,4.83059e-05,-1.05719e-05,1.70428e-05
1009,-1.64848e-05,7.49767e-06,2.60527e-05,4.41907e-05,-1.31332e-05,1.66786e-05
1010,-1.90551e-05,6.07611e-06,2.88401e-05,4.32925e-05,-1.26245e-05,1.70475e-05
1011,-1.83459e-06,7.19242e-06,3.09379e-05,4.58506e-05,-1.25904e-05,1.84785e-05
1012,1.3471e-05,1.03666e-05,3.09612e-05,4.80998e-05,-1.36616e-05,1.97273e-05
1013,1.32795e-05,1.43734e-05,2.96101e-05,5.04339e-05,-1.40417e-05,1.88935e-05
1014,3.01306e-06,1.64679e-05,2.96229e-05,5.23918e-05,-1.17265e-05,1.73147e-05
1015,-1.79592e-05,1.43298e-05,3.19748e-05,5.25217e-05,-5.89588e-06,1.65237e-05
1016,-2.94673e-05,1.03751e-05,3.21725e-05,5.30994e-05,-2.29066e-06,1.59175e-05
1017,-1.08669e-05,8.66385e-06,2.87308e-05,5.29919e-05,-4.8449e-06,1.3735e-05
1018,7.33463e-06,6.41334e-06,2.52363e-05,5.01405e-05,-7.41189e-06,1.09685e-05
1019,9.80923e-06,6.00701e-06,2.53623e-05,4.92252e-05,-4.87385e-06,1.03673e-05
1020,9.81419e-06,1.12411e-05,2.91197e-05,5.08009e-05,-1.04568e-06,1.20113e-05
1021,7.04528e-06,1.63739e-05,3.27659e-05,5.09358e-05,1.89501e-06,1.38949e-05
1022,5.73523e-06,1.8321e-05,3.38903e-05,5.1452e-05,2.48534e-06,1.4405e-05
1023,-4.99276e-06,1.80275e-05,3.22997e-05,5.38727e-05,5.12899e-07,1.24819e-05
1024,-2.42122e-05,1.64916e-05,3.086e-05,5.59109e-05,1.624e-06,6.97437e-06
1025,-2.59236e-05,1.65471e-05,3.13199e-05,5.63508e-05,3.35164e-06,2.41018e-06
1026,-8.4646e-06,1.89419e-05,3.10053e-05,5.60436e-05,2.08604e-06,3.68261e-06
1027,4.73601e-06,2.20854e-05,3.04086e-05,5.57842e-05,8.20161e-07,9.16795e-06
1028,7.00027e-06,2.47248e-05,3.26471e-05,5.39075e-05,3.03962e-06,1.29025e-05
1029,-1.57987e-06,2.47876e-05,3.49691e-05,5.16809e-05,7.57482e-06,1.18368e-05
1030,-1.52507e-05,2.0516e-05,3.36845e-05,5.02651e-05,9.68472e-06,1.05261e-05
1031,-1.62886e-05,1.44156e-05,3.03354e-05,4.9085e-05,9.51403e-06,1.33622e-05
1032,6.91032e-07,1.10962e-05,2.68098e-05,4.82114e-05,8.69527e-06,1.74284e-05
1033,1.62577e-05,1.13712e-05,2.30133e-05,4.76217e-05,6.91429e-06,1.78377e-05
1034,1.60294e-05,1.27832e-05,2.01257e-05,4.83023e-05,5.24339e-06,1.64577e-05
1035,2.67222e-06,1.28625e-05,2.10535e-05,5.09126e-05,4.28933e-06,1.66894e-05
1036,-1.76212e-05,9.8205e-06,2.59382e-05,5.28091e-05,1.91824e-06,2.01265e-05
1037,-2.62947e-05,6.26768e-06,2.88302e-05,5.23677e-05,-1.11016e-06,2.59191e-05
1038,-1.22687e-05,5.54637e-06,2.5139e-05,5.28747e-05,-5.32312e-06,2.99233e-05
1039,6.01803e-06,7.28074e-06,1.9965e-05,5.41995e-05,-8.28472e-06,2.89161e-05
1040,9.65334e-06,1.12952e-05,2.18501e-05,5.37406e-05,-7.42936e-06,2.4145e-05
1041,4.04396e-07,1.34752e-05,2.80549e-05,5.56397e-05,-3.99067e-06,1.78511e-05
1042,-2.27058e-05,8.85917e-06,2.70872e-05,5.93002e-05,1.41554e-06,1.36696e-05
1043,-3.49987e-05,2.04435e-06,2.19985e-05,5.70132e-05,4.64852e-06,1.4942e-05
1044,-1.48665e-05,3.9181e-06,2.03172e-05,5.42343e-05,5.04115e-06,2.23315e-05
1045,7.63756e-07,9.79644e-06,2.27703e-05,5.36674e-05,2.14707e-06,2.58981e-05
1046,-2.16566e-06,1.55581e-05,2.36613e-05,5.18542e-05,-4.38216e-06,2.24871e-05
1047,-1.29281e-07,1.88643e-05,2.06453e-05,5.17947e-05,-6.34302e-06,2.06474e-05
1048,2.77388e-06,1.65668e-05,1.88256e-05,5.29479e-05,-4.94892e-06,1.7708e-05
1049,4.13871e-07,1.64893e-05,1.72389e-05,5.3768e-05,-7.90789e-06,1.54158e-05
1050,-1.2316e-05,1.7208e-05,1.5478e-05,5.42462e-05,-1.09207e-05,1.61547e-05
1051,-2.97599e-05,1.40473e-05,1.34816e-05,5.36264e-05,-9.22797e-06,1.95862e-05
1052,-2.75715e-05,9.56798e-06,1.52986e-05,5.16421e-05,-4.97538e-06,2.0998e-05
1053,-2.60627e-06,6.70623e-06,1.92185e-05,5.12623e-05,-3.01756e-06,2.08002e-05
1054,1.78135e-05,5.31699e-06,2.23352e-05,5.32846e-05,-4.31199e-06,2.0686e-05
1055,2.02413e-05,7.25824e-06,2.57212e-05,5.60266e-05,-5.55613e-06,2.03222e-05
1056,6.99301e-06,1.06728e-05,2.75837e-05,5.74998e-05,-6.81853e-06,1.82372e-05
1057,-1.20852e-05,1.07042e-05,2.8171e-05,5.46365e-05,-1.05433e-05,1.39231e-05
1058,-1.89909e-05,8.77776e-06,2.91557e-05,4.80929e-05,-1.56483e-05,1.08884e-05
1059,-7.14813e-06,6.33881e-06,3.01922e-05,4.09298e-05,-1.96173e-05,1.18699e-05
1060,9.05176e-06,4.23794e-06,2.89047e-05,3.62833e-05,-2.23872e-05,1.48128e-05
1061,1.36442e-05,3.2288e-06,2.65538e-05,3.49177e-05,-2.55034e-05,1.41873e-05
1062,2.62421e-06,2.73188e-06,2.55955e-05,3.78797e-05,-2.87308e-05,1.08382e-05
1063,-1.771e-05,1.50159e-06,2.72564e-05,4.34934e-05,-2.84744e-05,8.63182e-06
1064,-2.56174e-05,3.16154e-06,3.00674e-05,4.70919e-05,-2.40551e-05,1.11832e-05
1065,-9.61537e-06,9.83559e-06,3.10374e-05,4.58507e-05,-1.89923e-05,1.58503e-05
1066,1.03102e-05,1.44713e-05,3.00683e-05,4.18216e-05,-1.63836e-05,1.83637e-05
1067,1.34942e-05,1.42974e-05,3.05281e-05,4.01319e-05,-1.45492e-05,1.86151e-05
1068,1.49289e-06,1.21706e-05,3.30877e-05,4.23061e-05,-1.23069e-05,1.82627e-05
1069,-2.41118e-05,8.57808e-06,3.54586e-05,4.54031e-05,-1.31665e-05,1.46022e-05
1070,-3.85279e-05,7.766e-06,3.38546e-05,4.55533e-05,-1.59223e-05,8.97194e-06
1071,-1.87995e-05,1.00115e-05,3.30261e-05,4.49543e-05,-1.45369e-05,5.68095e-06
1072,1.27253e-06,1.09157e-05,3.36533e-05,4.52892e-05,-1.39401e-05,4.92992e-06
1073,3.4072e-06,9.7191e-06,3.29805e-05,4.80642e-05,-1.70469e-05,4.85217e-06
1074,2.36074e-06,8.02627e-06,3.27412e-05,5.05009e-05,-1.64186e-05,2.4591e-06
1075,-8.54704e-07,8.43713e-06,3.33486e-05,5.17751e-05,-1.52507e-05,-1.16967e-06
1076,-2.34374e-06,9.73652e-06,3.31991e-05,5.33165e-05,-1.60157e-05,-6.35428e-07
1077,-1.28011e-05,1.10129e-05,3.24185e-05,5.0476e-05,-1.56319e-05,-2.10028e-07
1078,-3.22854e-05,9.70492e-06,3.2342e-05,4.61649e-05,-1.56536e-05,2.01522e-06
1079,-3.44803e-05,7.52695e-06,3.21251e-05,4.47711e-05,-1.79058e-05,6.36566e-06
1080,-1.32281e-05,9.15969e-06,3.20006e-05,4.7361e-05,-1.96948e-05,6.13124e-06
1081,6.64655e-06,1.25035e-05,3.17828e-05,4.91609e-05,-1.97672e-05,3.91236e-06
1082,1.1377e-05,1.46721e-05,3.30527e-05,4.91705e-05,-1.83419e-05,6.93249e-06
1083,9.23284e-07,1.5142e-05,3.24571e-05,4.90667e-05,-1.62173e-05,1.22726e-05
1084,-1.69214e-05,1.32155e-05,3.01343e-05,4.92306e-05,-1.47383e-05,1.1787e-05
1085,-2.12664e-05,1.01507e-05,2.71404e-05,5.17161e-05,-1.25168e-05,9.46482e-06
1086,-4.4482e-06,9.34097e-06,2.49728e-05,5.68196e-05,-8.76869e-06,1.2241e-05
1087,1.33179e-05,1.39466e-05,2.30533e-05,6.2127e-05,-6.11132e-06,1.92326e-05
1088,1.60805e-05,2.10268e-05,2.03056e-05,6.55448e-05,-7.79926e-06,2.24445e-05
1089,7.21544e-06,2.44304e-05,1.81556e-05,6.68105e-05,-1.00851e-05,1.99363e-05
1090,-8.49965e-06,2.15547e-05,1.90486e-05,6.45361e-05,-8.88741e-06,1.5626e-05
1091,-1.61546e-05,1.63897e-05,2.38756e-05,5.97864e-05,-5.50041e-06,1.32877e-05
1092,-5.07543e-06,1.44311e-05,2.77464e-05,5.499e-05,-4.12466e-06,1.18933e-05
1093,9.90382e-06,1.39204e-05,2.83012e-05,5.34564e-05,-4.41239e-06,1.28138e-05
1094,1.10901e-05,1.42939e-05,3.04091e-05,5.35925e-05,-4.93176e-06,1.64715e-05
1095,1.83252e-06,1.80183e-05,3.19029e-05,5.50715e-05,-7.562e-06,1.7753e-05
1096,-1.9688e-05,1.87319e-05,3.23174e-05,5.87393e-05,-1.18235e-05,1.21905e-05
1097,-3.53125e-05,1.55781e-05,3.62094e-05,5.84303e-05,-1.32364e-05,4.42713e-06
1098,-2.22801e-05,1.26188e-05,3.87539e-05,5.36629e-05,-8.69609e-06,2.80253e-06
1099,-6.36153e-06,1.02569e-05,3.70094e-05,5.18297e-05,-6.30123e-06,5.12515e-06
1100,-1.02555e-06,1.08797e-05,3.02586e-05,5.29097e-05,-8.9167e-06,7.13672e-06
1101,1.93316e-06,1.30499e-05,2.60379e-05,5.4318e-05,-1.06403e-05,1.04489e-05
1102,6.04509e-08,1.65812e-05,2.88606e-05,5.30264e-05,-1.10918e-05,1.35672e-05
1103,-3.85969e-06,2.06081e-05,3.2077e-05,5.35334e-05,-1.16594e-05,1.43711e-05
1104,-1.40708e-05,2.25414e-05,3.08028e-05,5.53258e-05,-1.17404e-05,1.32755e-05
1105,-2.99339e-05,1.75512e-05,2.99724e-05,5.40427e-05,-8.21454e-06,1.23964e-05
1106,-2.62458e-05,9.50989e-06,3.26925e-05,5.14561e-05,-3.85889e-06,1.23243e-05
1107,-1.29792e-06,5.52934e-06,3.71369e-05,4.70031e-05,-4.1916e-06,1.25232e-05
1108,1.5218e-05,5.71149e-06,3.71783e-05,4.55708e-05,-7.95185e-06,1.46938e-05
1109,1.56898e-05,7.63773e-06,3.36335e-05,4.73749e-05,-1.01683e-05,1.65388e-05
1110,3.37623e-06,9.08081e-06,3.23419e-05,5.08334e-05,-8.8703e-06,1.52946e-05
1111,-1.38328e-05,7.79877e-06,3.38299e-05,5.32151e-05,-6.32929e-06,1.18738e-05
1112,-1.80323e-05,5.47764e-06,3.46574e-05,5.24898e-05,-4.91753e-06,1.21459e-05
1113,-4.00523e-06,4.27695e-06,3.33195e-05,4.85654e-05,-4.9866e-06,1.84131e-05
1114,8.85135e-06,4.13603e-06,3.17327e-05,4.35851e-05,-6.35677e-06,2.53788e-05
1115,8.2187e-06,5.64229e-06,2.9711e-05,4.24325e-05,-7.66174e-06,2.80712e-05
1116,-4.31845e-06,8.03307e-06,2.64259e-05,4.61731e-05,-7.42606e-06,2.8547e-05
1117,-2.53729e-05,1.06232e-05,2.28134e-05,4.8746e-05,-5.39686e-06,2.84881e-05
1118,-3.73131e-05,1.2854e-05,2.26508e-05,4.6931e-05,-3.18852e-06,2.65285e-05
1119,-2.55621e-05,1.4578e-05,2.32124e-05,4.47485e-05,-4.7024e-06,2.3183e-05
1120,-6.70054e-06,1.38493e-05,2.10644e-05,4.40086e-05,-1.21711e-05,2.25008e-05
1121,-1.01267e-06,1.27427e-05,1.74665e-05,4.68813e-05,-2.07573e-05,2.48837e-05
1122,-9.3064e-06,1.3532e-05,1.69551e-05,5.16981e-05,-2.26451e-05,2.41309e-05
1123,-3.38993e-05,1.4292e-05,1.98405e-05,5.20936e-05,-2.02838e-05,1.77208e-05
1124,-4.7665e-05,1.31088e-05,2.51987e-05,4.82335e-05,-1.89347e-05,1.08507e-05
1125,-2.34031e-05,1.04259e-05,3.03426e-05,4.56524e-05,-1.85579e-05,1.10985e-05
1126,2.72811e-06,1.0506e-05,2.70339e-05,4.79364e-05,-2.03449e-05,1.39526e-05
1127,8.25195e-06,1.31785e-05,1.81714e-05,5.22968e-05,-2.36797e-05,1.48532e-05
1128,7.89806e-06,1.43706e-05,1.3044e-05,5.33818e-05,-2.36258e-05,1.69385e-05
1129,7.22602e-06,1.33534e-05,1.12926e-05,5.20559e-05,-2.13631e-05,1.91351e-05
1130,9.18999e-06,1.14615e-05,1.31639e-05,5.11297e-05,-1.88707e-05,1.95753e-05
1131,2.79592e-06,1.08235e-05,1.68013e-05,5.16609e-05,-1.68008e-05,1.92543e-05
1132,-1.20025e-05,5.90832e-06,1.69066e-05,5.21928e-05,-1.6921e-05,1.91581e-05
1133,-1.28782e-05,-3.54235e-07,1.50423e-05,5.3932e-05,-1.86658e-05,1.98259e-05
1134,4.25535e-06,-7.4646e-07,1.3907e-05,5.61736e-05,-2.07342e-05,2.11266e-05
1135,1.58704e-05,5.2389e-06,1.49565e-05,5.60007e-05,-2.01601e-05,2.23699e-05
1136,1.47706e-05,1.58756e-05,1.96689e-05,5.41419e-05,-1.56476e-05,2.16382e-05
1137,2.71106e-06,2.43846e-05,2.34313e-05,5.31043e-05,-1.11944e-05,1.83096e-05
1138,-1.41107e-05,2.46363e-05,2.28157e-05,5.25804e-05,-1.08609e-05,1.63457e-05
1139,-1.93301e-05,2.12632e-05,1.972e-05,4.91067e-05,-1.28387e-05,1.75705e-05
1140,-8.52064e-06,2.05577e-05,1.83408e-05,4.35104e-05,-1.32523e-05,2.11725e-05
1141,3.55935e-06,2.10341e-05,1.76827e-05,3.94646e-05,-1.2853e-05,2.38244e-05
1142,6.73445e-06,2.08104e-05,1.66044e-05,3.91956e-05,-1.33933e-05,2.15794e-05
1143,-5.06618e-07,1.95364e-05,1.51562e-05,4.23016e-05,-1.32487e-05,1.6001e-05
1144,-1.57184e-05,1.85851e-05,1.46632e-05,4.69249e-05,-1.1881e-05,1.12843e-05
1145,-2.05851e-05,1.84041e-05,1.67845e-05,4.97951e-05,-1.21542e-05,8.96715e-06
1146,-5.50746e-06,1.58367e-05,1.96572e-05,5.05933e-05,-1.69463e-05,1.05374e-05
1147,1.35322e-05,9.83721e-06,2.20451e-05,5.05231e-05,-2.32088e-05,1.31869e-05
1148,1.58297e-05,5.68681e-06,2.35315e-05,4.98532e-05,-2.22031e-05,1.16346e-05
1149,2.41621e-06,6.69775e-06,2.59581e-05,5.13929e-05,-1.44723e-05,1.06715e-05
1150,-2.17878e-05,9.57342e-06,2.92022e-05,5.4327e-05,-8.27091e-06,1.38038e-05
1151,-3.37716e-05,9.0464e-06,3.7316e-05,5.57884e-05,-4.89341e-06,1.64076e-05
1152,-1.43273e-05,1.06101e-05,4.54902e-05,5.56282e-05,-4.7824e-06,1.48254e-05
1153,-4.46726e-08,1.77193e-05,4.48117e-05,5.19316e-05,-5.40065e-06,1.36058e-05
1154,-3.60837e-06,2.22241e-05,4.00342e-05,4.67503e-05,-4.59933e-06,1.25681e-05
1155,-3.83839e-06,1.95877e-05,3.76344e-05,4.34683e-05,-4.36933e-06,9.27061e-06
1156,-3.54019e-06,1.65111e-05,3.73175e-05,4.32607e-05,-3.5234e-06,5.92901e-06
1157,-4.7326e-06,1.66898e-05,3.54207e-05,4.55468e-05,-2.96869e-06,-6.41577e-07
1158,-1.50704e-05,1.55631e-05,3.28311e-05,4.52855e-05,-3.671e-06,-4.84188e-06
1159,-3.25253e-05,1.07076e-05,3.38362e-05,4.31334e-05,-3.06036e-06,-3.744e-07
1160,-3.18076e-05,7.68285e-06,3.67882e-05,4.45309e-05,-1.49031e-06,6.35879e-06
1161,-1.16752e-05,1.14832e-05,3.86357e-05,4.98648e-05,7.45978e-07,7.28619e-06
1162,3.00042e-06,1.62126e-05,4.1425e-05,5.42079e-05,1.94626e-06,5.36728e-06
1163,4.0333e-06,1.79093e-05,4.49518e-05,5.39147e-05,-2.63886e-07,6.99039e-06
1164,-9.14334e-06,1.77664e-05,4.41077e-05,5.05029e-05,-2.52938e-06,9.58946e-06
1165,-2.80917e-05,1.49404e-05,3.84092e-05,4.8571e-05,-3.0106e-06,8.84906e-06
1166,-3.23336e-05,1.16952e-05,3.28806e-05,5.17745e-05,-3.96743e-06,7.68859e-06
1167,-1.50105e-05,1.07209e-05,3.08937e-05,5.62503e-05,-5.13407e-06,9.35187e-06
1168,4.79456e-06,1.16232e-05,3.03299e-05,5.71984e-05,-4.32075e-06,1.35263e-05
1169,1.24625e-05,1.50683e-05,2.98809e-05,5.52719e-05,-2.45043e-06,1.57813e-05
1170,5.85428e-06,2.1445e-05,3.13594e-05,5.4142e-05,-2.09668e-08,1.28e-05
1171,-1.494e-05,2.61642e-05,3.38497e-05,5.35042e-05,1.36914e-06,8.42727e-06
1172,-2.99999e-05,2.68604e-05,3.56466e-05,5.29426e-05,-1.00257e-06,6.64606e-06
1173,-2.06168e-05,2.43976e-05,3.82768e-05,5.30463e-05,-4.87812e-06,7.53359e-06
1174,-9.46658e-07,1.97486e-05,4.07641e-05,5.35455e-05,-7.4902e-06,1.05138e-05
1175,9.03125e-06,1.71721e-05,4.08769e-05,5.28788e-05,-9.09249e-06,1.5097e-05
1176,5.69434e-06,1.53138e-05,4.13743e-05,5.08124e-05,-1.09515e-05,1.69473e-05
1177,-1.21834e-05,1.0161e-05,4.44e-05,4.99337e-05,-1.39478e-05,1.43105e-05
1178,-2.1976e-05,2.65701e-06,4.69509e-05,5.28292e-05,-1.66312e-05,9.92179e-06
1179,-3.99212e-06,-9.43505e-08,4.73633e-05,5.72223e-05,-1.86905e-05,9.91257e-06
1180,1.0708e-05,2.84028e-06,4.63554e-05,5.53021e-05,-1.78082e-05,8.73118e-06
1181,1.03325e-05,7.23865e-06,4.10805e-05,5.20992e-05,-1.38936e-05,5.71835e-06
1182,8.99131e-06,1.00308e-05,3.66084e-05,5.27082e-05,-1.11575e-05,8.87689e-06
1183,6.47957e-06,1.02755e-05,3.67647e-05,5.34756e-05,-9.75054e-06,1.38961e-05
1184,8.30652e-06,9.67559e-06,3.62316e-05,5.28669e-05,-8.80917e-06,1.57945e-05
1185,3.69575e-06,8.20501e-06,3.67147e-05,5.21887e-05,-7.41304e-06,1.41207e-05
1186,-1.10694e-05,7.62137e-06,3.89445e-05,4.89049e-05,-5.6301e-06,1.22351e-05
1187,-1.73035e-05,7.54012e-06,4.05507e-05,4.51569e-05,-5.26664e-06,1.26774e-05
1188,-5.4181e-06,9.71921e-06,3.97599e-05,4.49763e-05,-7.21021e-06,1.57258e-05
1189,8.71925e-06,1.38046e-05,3.83578e-05,4.80701e-05,-9.2159e-06,1.91715e-05
1190,1.40168e-05,1.64688e-05,3.53723e-05,5.16644e-05,-8.66925e-06,1.97981e-05
1191,4.92685e-06,1.46098e-05,2.77676e-05,4.97121e-05,-6.80506e-06,1.63947e-05
1192,-1.19606e-05,9.79608e-06,2.04249e-05,4.31542e-05,-6.64346e-06,1.32215e-05
1193,-1.68659e-05,7.699e-06,1.78653e-05,4.14801e-05,-7.62657e-06,1.31921e-05
1194,-4.1772e-06,8.40401e-06,1.72731e-05,4.6243e-05,-8.0862e-06,1.52296e-05
1195,8.76071e-06,8.04693e-06,1.38251e-05,4.78526e-05,-7.49579e-06,1.78759e-05
1196,9.1615e-06,6.97772e-06,9.79225e-06,4.41092e-05,-6.63047e-06,1.87116e-05
1197,-2.34462e-06,9.50114e-06,9.22173e-06,4.19027e-05,-6.37839e-06,1.63197e-05
1198,-2.10661e-05,1.24819e-05,1.40974e-05,4.35911e-05,-7.76466e-06,1.33555e-05
1199,-2.64942e-05,1.30289e-05,2.06811e-05,4.4819e-05,-1.04959e-05,1.31568e-05
1200,-9.29229e-06,1.1485e-05,2.36704e-05,4.49436e-05,-1.10773e-05,1.60134e-05
1201,1.05458e-05,8.84364e-06,2.16714e-05,4.45567e-05,-1.05323e-05,2.04698e-05
1202,1.51017e-05,7.74255e-06,1.7465e-05,4.32482e-05,-1.09102e-05,2.37953e-05
1203,5.46841e-06,7.83229e-06,1.38975e-05,3.95869e-05,-1.00892e-05,2.73982e-05
1204,-1.97715e-05,8.36128e-06,1.40815e-05,4.08082e-05,-5.56521e-06,3.08675e-05
1205,-3.39856e-05,1.07877e-05,1.56633e-05,4.8413e-05,5.19204e-07,3.08808e-05
1206,-1.26381e-05,1.42966e-05,1.57086e-05,5.17852e-05,1.62276e-06,3.26251e-05
1207,8.69682e-06,1.52922e-05,1.84613e-05,5.02957e-05,-3.38974e-06,3.46752e-05
1208,1.08919e-05,1.3116e-05,2.22202e-05,4.72747e-05,-7.17135e-06,3.22623e-05
1209,1.08399e-05,1.10612e-05,2.27382e-05,4.46836e-05,-8.4862e-06,2.8483e-05
1210,1.21207e-05,1.39645e-05,2.11424e-05,4.5464e-05,-1.02485e-05,2.39157e-05
1211,1.44954e-05,2.08074e-05,2.06886e-05,4.76443e-05,-1.10839e-05,1.99362e-05
1212,6.05316e-06,2.33452e-05,2.18175e-05,4.96027e-05,-1.14395e-05,1.67229e-05
1213,-1.33936e-05,1.99462e-05,2.43016e-05,5.21997e-05,-1.00981e-05,1.66321e-05
1214,-2.06472e-05,1.37191e-05,2.73774e-05,5.46628e-05,-7.52014e-06,1.90185e-05
1215,-6.12892e-06,9.17011e-06,2.72511e-05,5.70008e-05,-6.98691e-06,2.35173e-05
1216,9.23376e-06,7.85295e-06,2.45234e-05,5.70228e-05,-1.01817e-05,2.7244e-05
1217,1.28777e-05,9.63869e-06,2.30244e-05,5.79129e-05,-1.38554e-05,2.48331e-05
1218,2.43158e-06,1.29266e-05,2.08839e-05,6.09979e-05,-1.42974e-05,1.7405e-05
1219,-1.57905e-05,1.43205e-05,1.71775e-05,6.22757e-05,-1.17402e-05,1.04169e-05
1220,-2.33968e-05,1.34327e-05,1.53985e-05,6.0653e-05,-8.64912e-06,7.63273e-06
1221,-1.16558e-05,1.32733e-05,1.69961e-05,5.68974e-05,-6.69989e-06,9.30416e-06
1222,3.50784e-06,1.60665e-05,1.97952e-05,5.32235e-05,-6.83066e-06,1.30374e-05
1223,6.52643e-06,1.95719e-05,1.89269e-05,5.02685e-05,-1.11443e-05,1.58297e-05
1224,-3.56173e-06,1.96784e-05,1.30345e-05,4.9391e-05,-1.58533e-05,1.74008e-05
1225,-2.40601e-05,1.48151e-05,9.45574e-06,4.92966e-05,-1.52243e-05,1.6975e-05
1226,-3.53436e-05,9.55801e-06,1.34122e-05,4.92373e-05,-9.74623e-06,1.43716e-05
1227,-2.37447e-05,6.7026e-06,1.98675e-05,4.98524e-05,-4.6907e-06,1.14775e-05
1228,-6.4843e-06,3.83951e-06,2.36084e-05,4.98739e-05,-4.44916e-06,1.10799e-05
1229,-4.35959e-07,7.85548e-07,2.68478e-05,4.86173e-05,-8.09927e-06,1.10004e-05
1230,-6.1762e-06,2.03597e-06,2.98155e-05,4.63371e-05,-9.79139e-06,1.05259e-05
1231,-2.70663e-05,4.45214e-06,2.82917e-05,4.43051e-05,-8.62069e-06,1.00243e-05
1232,-3.88043e-05,2.75898e-06,2.45573e-05,4.39376e-05,-6.77075e-06,9.06324e-06
1233,-2.11758e-05,2.76789e-07,2.57105e-05,4.54987e-05,-6.04906e-06,8.86142e-06
1234,-5.22931e-06,1.70656e-06,2.97007e-05,4.61302e-05,-5.13009e-06,7.75608e-06
1235,-6.13968e-06,3.6396e-06,2.96606e-05,4.10611e-05,-2.27221e-06,5.65608e-06
1236,-7.67198e-06,5.97648e-06,2.79756e-05,3.83886e-05,-3.80712e-07,6.58256e-06
1237,-4.75032e-06,1.05804e-05,2.56741e-05,4.42155e-05,1.01716e-06,8.11564e-06
1238,-1.19328e-06,1.38413e-05,2.64057e-05,5.00367e-05,2.95662e-06,9.14621e-06
1239,-1.19685e-05,1.52858e-05,3.00203e-05,5.11913e-05,2.29977e-06,1.30373e-05
1240,-3.34994e-05,1.57789e-05,3.1708e-05,5.13488e-05,-1.44427e-06,1.61903e-05
1241,-3.93097e-05,1.47032e-05,3.16111e-05,5.42189e-05,-3.21981e-06,1.48357e-05
1242,-2.10223e-05,1.21696e-05,2.84844e-05,5.45496e-05,-2.30368e-06,1.56064e-05
1243,-2.50689e-06,1.03872e-05,2.66264e-05,5.14255e-05,-2.25773e-06,1.82286e-05
1244,3.27215e-06,1.07057e-05,2.7491e-05,4.99942e-05,-1.43923e-06,1.78803e-05
1245,-6.38784e-06,1.02182e-05,3.18057e-05,5.14266e-05,8.05941e-07,1.32724e-05
1246,-2.29519e-05,8.53104e-06,3.69703e-05,5.22972e-05,2.16899e-06,7.3424e-06
1247,-2.71104e-05,8.40494e-06,3.98557e-05,5.04199e-05,9.33714e-07,3.73493e-06
1248,-1.25744e-05,9.00974e-06,4.10229e-05,4.71203e-05,-3.07283e-06,4.53158e-06
1249,4.41997e-06,8.52585e-06,4.15893e-05,4.64921e-05,-6.69696e-06,8.69083e-06
1250,8.00217e-06,9.0895e-06,4.05085e-05,4.88401e-05,-6.88098e-06,1.11275e-05
1251,-5.36233e-06,1.197e-05,3.75702e-05,4.94834e-05,-4.81149e-06,8.88027e-06
1252,-3.01487e-05,1.28913e-05,3.4083e-05,4.65337e-05,-5.41025e-06,4.82887e-06
1253,-3.90041e-05,1.23629e-05,2.98999e-05,4.35603e-05,-1.09303e-05,3.64979e-06
1254,-1.85375e-05,1.30505e-05,2.89475e-05,4.3905e-05,-1.4547e-05,3.17637e-06
1255,5.63462e-06,1.38066e-05,3.16313e-05,4.86657e-05,-9.33039e-06,3.69734e-06
1256,1.14292e-05,1.44674e-05,3.62122e-05,5.20656e-05,-3.96831e-06,5.90911e-06
1257,3.18859e-06,1.36178e-05,3.7845e-05,5.27167e-05,-6.50106e-06,7.25064e-06
1258,-1.91455e-05,9.69009e-06,3.55048e-05,5.37879e-05,-1.11105e-05,6.65574e-06
1259,-3.2418e-05,7.71057e-06,3.2901e-05,5.03476e-05,-1.36232e-05,8.16978e-06
1260,-1.44855e-05,1.03279e-05,2.98218e-05,4.68614e-05,-1.19779e-05,1.11285e-05
1261,2.906e-06,1.17339e-05,2.71812e-05,4.81984e-05,-8.82663e-06,1.1864e-05
1262,4.0623e-06,1.02701e-05,2.73512e-05,5.22075e-05,-9.85813e-06,1.02774e-05
1263,4.68125e-06,7.72223e-06,3.1097e-05,5.4547e-05,-1.26687e-05,8.37756e-06
1264,4.11734e-06,7.04169e-06,3.55995e-05,5.33357e-05,-1.29985e-05,1.06303e-05
1265,2.74022e-06,9.74971e-06,3.56556e-05,4.94657e-05,-1.26695e-05,1.38523e-05
1266,-9.82649e-06,1.21744e-05,3.13531e-05,4.55686e-05,-1.46007e-05,9.58383e-06
1267,-3.05488e-05,1.04971e-05,2.78749e-05,4.3693e-05,-1.80679e-05,1.68753e-06
1268,-3.33261e-05,7.33801e-06,2.72896e-05,4.29944e-05,-2.20394e-05,-2.46708e-06
1269,-1.48213e-05,7.90213e-06,2.70366e-05,4.38001e-05,-2.26265e-05,3.9404e-07
1270,2.57487e-07,1.02987e-05,2.54166e-05,4.64773e-05,-2.14607e-05,6.2274e-06
1271,2.07389e-06,1.24047e-05,2.41941e-05,4.9176e-05,-1.96773e-05,1.07041e-05
1272,-9.79285e-06,1.27172e-05,2.42321e-05,4.91662e-05,-1.77558e-05,1.24471e-05
1273,-2.66539e-05,1.19747e-05,2.64764e-05,4.6674e-05,-1.48216e-05,1.11308e-05
1274,-2.81425e-05,1.09433e-05,2.988e-05,4.57656e-05,-9.4837e-06,1.09231e-05
1275,-7.23184e-06,1.10126e-05,3.27599e-05,4.66179e-05,-4.98114e-06,1.50499e-05
1276,1.50059e-05,1.24155e-05,3.36021e-05,4.48489e-05,-5.06943e-06,1.91084e-05
1277,1.77469e-05,1.43957e-05,3.17362e-05,3.87978e-05,-7.64269e-06,1.79669e-05
1278,-3.40968e-07,1.50124e-05,2.72959e-05,3.39632e-05,-8.82945e-06,1.33635e-05
1279,-2.85122e-05,9.76592e-06,2.10254e-05,3.59789e-05,-9.55927e-06,9.5298e-06
1280,-4.04281e-05,2.91008e-06,1.89967e-05,4.09906e-05,-9.11983e-06,8.95268e-06
1281,-2.59586e-05,4.71892e-06,2.24985e-05,4.30722e-05,-8.01617e-06,9.12205e-06
1282,-6.98148e-06,1.27465e-05,2.52039e-05,4.24129e-05,-8.36834e-06,7.78102e-06
1283,-3.34946e-06,1.56826e-05,2.41116e-05,4.13789e-05,-1.20647e-05,8.42089e-06
1284,-1.39354e-05,1.37285e-05,2.31069e-05,4.31353e-05,-1.28692e-05,1.18976e-05
1285,-3.85403e-05,1.19089e-05,2.43513e-05,4.66053e-05,-1.07213e-05,1.10895e-05
1286,-5.25231e-05,1.31458e-05,2.41995e-05,4.77373e-05,-1.04205e-05,7.98005e-06
1287,-3.16767e-05,1.74391e-05,2.06892e-05,5.00749e-05,-1.28716e-05,1.07666e-05
1288,-8.62528e-06,1.86868e-05,1.53352e-05,4.89422e-05,-1.6901e-05,1.39765e-05
1289,-1.72914e-06,1.87278e-05,1.143e-05,4.53909e-05,-1.85378e-05,1.29434e-05
1290,4.57331e-06,2.10952e-05,1.19214e-05,4.7593e-05,-1.68048e-05,1.35207e-05
1291,9.20725e-06,2.3449e-05,1.37267e-05,5.4009e-05,-1.3547e-05,1.58477e-05
1292,1.24603e-05,2.35928e-05,1.4436e-05,5.98101e-05,-1.16496e-05,2.08453e-05
1293,2.89207e-06,1.9783e-05,1.43976e-05,6.18555e-05,-1.03301e-05,2.64074e-05
1294,-1.69791e-05,1.53688e-05,1.50101e-05,5.89583e-05,-9.00388e-06,2.7668e-05
1295,-2.13179e-05,1.31626e-05,1.59413e-05,5.33209e-05,-9.14185e-06,2.59235e-05
1296,-1.23102e-06,1.41806e-05,1.64076e-05,5.11199e-05,-1.02006e-05,2.46616e-05
1297,1.91905e-05,1.62113e-05,1.55164e-05,5.19703e-05,-9.59756e-06,2.2596e-05
1298,2.36847e-05,2.06136e-05,1.36408e-05,5.26109e-05,-7.02991e-06,1.92621e-05
1299,1.14269e-05,2.35338e-05,1.28483e-05,5.03825e-05,-4.85571e-06,1.45402e-05
1300,-8.19393e-06,2.09247e-05,1.43038e-05,4.70083e-05,-3.83239e-06,1.06953e-05
1301,-1.5132e-05,1.83715e-05,1.80936e-05,4.78713e-05,-2.59548e-06,9.48806e-06
1302,-1.56565e-06,2.07453e-05,2.27195e-05,5.15172e-05,-1.18241e-07,1.09501e-05
1303,1.57354e-05,2.41977e-05,2.64773e-05,5.39745e-05,2.69293e-06,1.4984e-05
1304,2.014e-05,2.41949e-05,2.89868e-05,5.41823e-05,3.73023e-06,1.73889e-05
1305,9.81448e-06,2.27562e-05,3.17266e-05,5.23708e-05,1.89103e-06,1.37956e-05
1306,-9.80357e-06,2.04711e-05,3.40368e-05,4.94061e-05,-3.65862e-07,7.8025e-06
1307,-1.49744e-05,1.81061e-05,3.35514e-05,4.77027e-05,-3.34071e-06,7.28632e-06
1308,2.99286e-06,1.69331e-05,3.04373e-05,4.78288e-05,-7.94177e-06,1.17601e-05
1309,2.1621e-05,1.5573e-05,3.02655e-05,4.76713e-05,-1.06058e-05,1.5623e-05
1310,2.29334e-05,1.26394e-05,3.61776e-05,4.74578e-05,-9.60834e-06,1.47935e-05
1311,9.32226e-06,1.14737e-05,4.2373e-05,4.95504e-05,-4.79647e-06,1.43142e-05
1312,-1.51156e-05,1.14297e-05,4.13455e-05,4.9792e-05,7.90726e-07,1.65929e-05
1313,-2.55112e-05,7.64658e-06,3.63494e-05,4.90956e-05,2.81291e-06,1.85521e-05
1314,-5.63737e-06,3.52674e-06,3.25828e-05,5.1532e-05,3.26826e-06,1.90377e-05
1315,9.26459e-06,5.43567e-06,2.74975e-05,5.61261e-05,7.7551e-07,1.82206e-05
1316,8.29994e-06,8.41551e-06,2.55139e-05,5.78716e-05,-4.28529e-06,1.67519e-05
1317,1.16845e-05,9.46678e-06,2.50619e-05,5.35522e-05,-6.19406e-06,1.58237e-05
1318,1.6194e-05,1.14491e-05,2.08982e-05,5.33284e-05,-5.47345e-06,1.6436e-05
1319,1.76745e-05,1.44817e-05,1.88041e-05,5.49833e-05,-5.83735e-06,1.64311e-05
1320,4.00537e-06,1.65151e-05,1.86692e-05,5.54468e-05,-9.5052e-06,1.25571e-05
1321,-1.98942e-05,1.34147e-05,2.1019e-05,5.7278e-05,-1.49928e-05,9.24298e-06
1322,-2.92067e-05,8.88761e-06,2.27541e-05,5.76074e-05,-1.71101e-05,9.70924e-06
1323,-1.72649e-05,9.12288e-06,2.21015e-05,5.46316e-05,-1.45846e-05,1.03629e-05
1324,-3.41135e-06,1.27078e-05,2.2504e-05,5.19057e-05,-1.18766e-05,7.22815e-06
1325,6.97304e-07,1.67152e-05,2.58914e-05,5.43997e-05,-1.06781e-05,4.82034e-06
1326,-9.27309e-06,1.64541e-05,3.0761e-05,5.78941e-05,-9.62047e-06,6.07573e-06
1327,-2.72509e-05,1.1244e-05,3.58638e-05,5.70487e-05,-9.67589e-06,9.19192e-06
1328,-3.25419e-05,4.38003e-06,3.86068e-05,5.36626e-05,-1.35457e-05,1.37281e-05
1329,-1.74669e-05,1.28838e-06,3.67587e-05,5.14383e-05,-1.86895e-05,1.80359e-05
1330,-3.4797e-07,3.98046e-06,3.3355e-05,5.09285e-05,-2.15731e-05,1.83058e-05
1331,3.65202e-06,8.996e-06,2.95095e-05,5.16698e-05,-2.09383e-05,1.36144e-05
1332,-3.94871e-06,1.12022e-05,2.49689e-05,5.22653e-05,-1.61605e-05,7.85982e-06
1333,-2.06889e-05,7.95981e-06,2.18095e-05,5.04346e-05,-8.35723e-06,5.27589e-06
1334,-2.91155e-05,2.25442e-06,2.45353e-05,4.49059e-05,-2.26671e-06,7.80757e-06
1335,-1.56169e-05,-4.1109e-07,2.95303e-05,3.95329e-05,-1.12179e-06,1.25385e-05
1336,2.75625e-06,1.41696e-06,2.95796e-05,3.72792e-05,-1.76256e-06,1.52192e-05
1337,7.75563e-06,6.29795e-06,2.31428e-05,4.17571e-05,-1.05387e-06,1.38219e-05
1338,2.35804e-06,1.3725e-05,1.81843e-05,5.03739e-05,-3.63877e-08,1.16412e-05
1339,-1.74788e-05,1.70943e-05,2.04833e-05,5.28181e-05,-9.80894e-07,1.17226e-05
1340,-3.13736e-05,1.20979e-05,2.52754e-05,4.904e-05,-2.24922e-06,1.5208e-05
1341,-1.44927e-05,4.26075e-06,2.40832e-05,4.53186e-05,-2.55566e-06,1.87796e-05
1342,2.40442e-06,-4.10611e-07,1.75906e-05,4.52605e-05,-3.92977e-06,1.83977e-05
1343,5.14883e-06,-1.87948e-06,1.55428e-05,4.83218e-05,-3.52813e-06,1.66651e-05
1344,9.97626e-06,7.12953e-09,1.95192e-05,5.20545e-05,-8.94092e-07,1.8746e-05
1345,1.18919e-05,2.57823e-06,2.20352e-05,5.34556e-05,-1.26943e-06,2.0728e-05
1346,1.27137e-05,2.70012e-06,2.08061e-05,4.90321e-05,-2.11534e-06,2.26732e-05
1347,7.74943e-07,2.32624e-06,1.74942e-05,4.34194e-05,-7.42079e-07,2.46983e-05
1348,-2.12509e-05,3.12615e-06,1.23621e-05,4.14675e-05,-8.14065e-07,2.1931e-05
1349,-2.44576e-05,6.76596e-06,1.00432e-05,4.19915e-05,-3.75835e-06,1.88943e-05
1350,-5.25323e-06,1.35501e-05,1.24809e-05,4.35878e-05,-9.84926e-06,1.95722e-05
1351,1.07883e-05,1.83217e-05,1.55779e-05,4.40878e-05,-1.57798e-05,1.97455e-05
1352,1.16815e-05,2.02593e-05,1.86525e-05,4.26518e-05,-1.68559e-05,1.81478e-05
1353,-1.66771e-06,2.02572e-05,2.21673e-05,4.14508e-05,-1.33172e-05,1.75326e-05
1354,-1.96504e-05,1.75999e-05,2.58749e-05,4.35903e-05,-9.11873e-06,1.83594e-05
1355,-2.16836e-05,1.48032e-05,2.78637e-05,4.84822e-05,-7.52903e-06,1.93497e-05
1356,-4.64889e-06,1.49214e-05,2.86977e-05,5.11653e-05,-8.9437e-06,1.91292e-05
1357,1.07237e-05,1.84773e-05,3.0443e-05,4.9955e-05,-1.1937e-05,1.77841e-05
1358,1.05212e-05,2.24299e-05,3.47604e-05,4.86453e-05,-1.37331e-05,1.55347e-05
1359,-2.63436e-06,2.14928e-05,3.90186e-05,5.04828e-05,-1.39463e-05,1.40874e-05
1360,-2.47097e-05,1.40346e-05,3.94529e-05,5.25337e-05,-1.16271e-05,1.4168e-05
1361,-3.60829e-05,7.67969e-06,3.89423e-05,5.08211e-05,-6.58825e-06,1.43772e-05
1362,-2.13089e-05,8.38104e-06,3.71342e-05,4.73886e-05,-2.97039e-06,1.22882e-05
1363,8.54754e-07,1.3309e-05,3.17453e-05,4.6626e-05,-2.33401e-06,6.93435e-06
1364,3.6016e-06,1.68747e-05,2.71354e-05,4.80005e-05,8.78954e-07,2.34874e-06
1365,-1.00851e-05,1.49852e-05,2.60652e-05,5.28634e-05,6.49091e-06,1.92231e-06
1366,-3.26184e-05,7.41991e-06,2.69066e-05,5.95043e-05,6.88216e-06,4.28056e-06
1367,-4.30872e-05,2.45954e-06,2.78107e-05,5.95954e-05,-2.94974e-07,4.98163e-06
1368,-2.40631e-05,6.78874e-06,3.19975e-05,5.66513e-05,-7.78232e-06,2.54191e-06
1369,-7.5685e-06,1.07427e-05,3.7408e-05,5.69406e-05,-1.0856e-05,3.12701e-06
1370,-5.82017e-06,7.24169e-06,3.83934e-05,5.80101e-05,-1.05556e-05,7.06505e-06
1371,-1.74975e-06,3.35548e-06,3.91208e-05,5.84229e-05,-8.4078e-06,8.7165e-06
1372,2.72205e-06,2.39437e-06,3.63102e-05,6.13546e-05,-6.90029e-06,9.2385e-06
1373,5.87299e-06,3.36679e-06,2.96298e-05,6.2421e-05,-7.1621e-06,1.26607e-05
1374,-5.32567e-06,3.66541e-06,2.56293e-05,5.89034e-05,-8.16856e-06,1.68958e-05
1375,-2.73902e-05,-1.67608e-07,2.7167e-05,5.46545e-05,-6.48986e-06,1.70781e-05
1376,-2.98649e-05,-3.59477e-06,3.24175e-05,5.1769e-05,-4.23623e-06,1.22778e-05
1377,-6.48546e-06,-1.41805e-06,3.55332e-05,5.1615e-05,-5.59287e-06,1.09722e-05
1378,1.3501e-05,4.01937e-06,3.37933e-05,5.10675e-05,-8.1739e-06,1.74804e-05
1379,1.71276e-05,7.38022e-06,3.24326e-05,4.80372e-05,-9.81621e-06,2.27199e-05
1380,3.81547e-06,7.54036e-06,3.37449e-05,4.6079e-05,-1.18048e-05,1.90473e-05
1381,-1.65293e-05,8.59043e-06,3.63773e-05,4.8128e-05,-1.24058e-05,1.35901e-05
1382,-2.17268e-05,1.05988e-05,3.76968e-05,5.18027e-05,-1.11695e-05,1.53232e-05
1383,-6.90559e-06,1.24105e-05,3.69157e-05,5.26922e-05,-9.59291e-06,2.12045e-05
1384,8.39086e-06,1.43309e-05,3.64763e-05,5.15713e-05,-9.52663e-06,2.41456e-05
1385,7.39785e-06,1.65187e-05,3.70609e-05,5.06233e-05,-1.26096e-05,2.32203e-05
1386,-7.28736e-06,1.81875e-05,3.80659e-05,4.89472e-05,-1.72389e-05,2.32105e-05
1387,-2.57104e-05,1.60489e-05,4.08584e-05,4.54444e-05,-1.83548e-05,2.50676e-05
1388,-2.86362e-05,1.08633e-05,4.49095e-05,4.39348e-05,-1.56012e-05,2.63253e-05
1389,-8.90331e-06,8.31758e-06,4.53315e-05,4.84008e-05,-1.26899e-05,2.52892e-05
1390,1.0926e-05,9.86833e-06,4.01937e-05,5.52867e-05,-1.08159e-05,2.14777e-05
1391,1.13031e-05,1.43465e-05,3.47281e-05,5.92844e-05,-9.87658e-06,1.99771e-05
1392,-8.8985e-07,1.73556e-05,3.46303e-05,5.88117e-05,-9.30664e-06,2.24939e-05
1393,-2.24809e-05,1.43013e-05,3.87931e-05,6.07374e-05,-1.08147e-05,2.39664e-05
1394,-3.04166e-05,1.08557e-05,4.20914e-05,6.48325e-05,-1.37447e-05,2.55179e-05
1395,-8.7145e-06,1.33717e-05,4.143e-05,6.44842e-05,-1.38398e-05,2.59127e-05
1396,8.45519e-06,1.57107e-05,3.94166e-05,5.97339e-05,-1.01465e-05,2.10556e-05
1397,9.39674e-06,1.19544e-05,3.88604e-05,5.45691e-05,-7.558e-06,1.55263e-05
1398,8.9928e-06,6.96201e-06,4.16739e-05,5.58013e-05,-6.6384e-06,1.56366e-05
1399,5.40856e-06,5.13302e-06,4.1773e-05,6.04133e-05,-7.60255e-06,1.40629e-05
1400,4.54012e-06,9.73322e-06,3.96008e-05,6.12299e-05,-1.04979e-05,8.7719e-06
1401,-3.32854e-06,1.49372e-05,3.88587e-05,5.85937e-05,-1.47432e-05,6.48641e-06
1402,-2.09626e-05,1.43835e-05,4.00424e-05,5.78601e-05,-1.67542e-05,7.90296e-06
1403,-2.36577e-05,1.16477e-05,4.0069e-05,6.01984e-05,-1.45602e-05,1.02065e-05
1404,-6.36501e-06,1.13096e-05,3.66231e-05,6.17645e-05,-1.26589e-05,1.08253e-05
1405,8.47998e-06,1.2699e-05,3.26431e-05,5.93105e-05,-1.29912e-05,1.05864e-05
1406,1.2027e-05,1.4583e-05,2.95432e-05,5.45834e-05,-1.52385e-05,1.089e-05
1407,3.53107e-06,1.70284e-05,2.7936e-05,5.08599e-05,-1.54366e-05,1.17307e-05
1408,-1.24191e-05,1.57418e-05,2.89233e-05,4.83105e-05,-1.55116e-05,1.31414e-05
1409,-1.86866e-05,1.12214e-05,3.0938e-05,4.824e-05,-1.83374e-05,1.49399e-05
1410,-6.77429e-06,7.34258e-06,3.03259e-05,4.90656e-05,-2.16722e-05,1.79289e-05
1411,9.14463e-06,6.7341e-06,2.8656e-05,4.95445e-05,-2.09516e-05,2.21074e-05
1412,1.37791e-05,7.18331e-06,2.7882e-05,5.01019e-05,-1.68765e-05,2.51032e-05
1413,5.04503e-06,7.26096e-06,2.72524e-05,5.19921e-05,-1.51494e-05,2.43746e-05
1414,-1.34359e-05,7.61709e-06,2.45949e-05,5.35415e-05,-1.62345e-05,2.13661e-05
1415,-2.2426e-05,8.43899e-06,2.07767e-05,5.47274e-05,-1.63424e-05,1.99839e-05
1416,-1.09867e-05,1.10259e-05,1.78113e-05,5.61755e-05,-1.43714e-05,1.92399e-05
1417,4.74898e-06,1.26629e-05,1.90191e-05,5.69552e-05,-1.2197e-05,1.66531e-05
1418,5.00795e-06,1.17317e-05,2.52765e-05,5.43967e-05,-1.17728e-05,1.384e-05
1419,-7.96901e-06,1.3267e-05,2.95645e-05,4.82857e-05,-1.27795e-05,1.47182e-05
1420,-3.0218e-05,1.54278e-05,2.99635e-05,4.43574e-05,-1.42847e-05,1.35759e-05
1421,-4.1529e-05,1.39255e-05,2.95673e-05,4.45809e-05,-1.46589e-05,9.74628e-06
1422,-2.42255e-05,1.30743e-05,2.68235e-05,5.05626e-05,-1.13354e-05,1.04908e-05
1423,-6.46313e-06,1.59957e-05,2.10848e-05,5.45129e-05,-6.63373e-06,1.27165e-05
1424,-8.86193e-08,1.73623e-05,1.73739e-05,5.1291e-05,-1.79362e-07,1.41918e-05
1425,5.99647e-06,1.58011e-05,1.88913e-05,5.12387e-05,7.74092e-06,1.20482e-05
1426,4.86721e-06,1.49249e-05,1.87819e-05,5.30956e-05,1.21736e-05,7.57352e-06
1427,1.24866e-06,1.55412e-05,1.60228e-05,5.09917e-05,9.56377e-06,5.37375e-06
1428,-7.56874e-06,1.7543e-05,1.42294e-05,4.72454e-05,4.0633e-06,3.67457e-06
1429,-2.44207e-05,1.74317e-05,1.65683e-05,4.49797e-05,2.39342e-06,2.21391e-06
1430,-2.84897e-05,1.54595e-05,1.88979e-05,4.64982e-05,3.92813e-06,1.99259e-06
1431,-1.29394e-05,1.20113e-05,1.85282e-05,4.98351e-05,4.10773e-06,4.57553e-06
1432,3.98723e-06,9.811e-06,1.74567e-05,5.37364e-05,2.00918e-06,6.74063e-06
1433,1.11185e-05,1.10171e-05,1.59118e-05,5.58238e-05,7.5313e-08,8.0018e-06
1434,2.88273e-06,1.31645e-05,1.42687e-05,5.52295e-05,-1.94808e-07,8.83639e-06
1435,-1.61227e-05,1.25198e-05,1.17593e-05,5.29281e-05,1.41433e-06,1.00699e-05
1436,-2.38222e-05,1.09208e-05,9.41314e-06,4.97812e-05,2.97784e-06,1.038e-05
1437,-7.21659e-06,9.40843e-06,7.76297e-06,4.73306e-05,2.41444e-06,1.07154e-05
1438,1.25561e-05,7.35414e-06,7.46399e-06,4.74086e-05,1.011e-06,1.18383e-05
1439,1.33896e-05,6.40931e-06,9.55212e-06,5.00106e-05,5.87235e-07,1.36731e-05
1440,-2.69133e-06,7.8424e-06,1.30865e-05,5.09106e-05,1.32178e-06,1.51225e-05
1441,-2.33144e-05,1.06364e-05,1.69775e-05,4.71598e-05,2.01879e-06,1.26635e-05
1442,-2.77752e-05,1.25961e-05,2.19395e-05,4.23319e-05,5.24217e-07,8.66719e-06
1443,-9.43643e-06,1.24855e-05,2.58638e-05,4.09453e-05,-1.70219e-06,7.12344e-06
1444,9.66403e-06,9.96433e-06,2.84124e-05,4.35918e-05,-1.95291e-06,7.46894e-06
1445,1.1453e-05,7.27381e-06,2.95317e-05,4.49607e-05,-2.31881e-07,7.5375e-06
1446,1.20322e-06,7.67686e-06,2.94253e-05,4.23524e-05,1.28054e-07,7.41518e-06
1447,-1.96828e-05,9.87223e-06,2.91211e-05,4.27388e-05,-1.05724e-06,5.98253e-06
1448,-3.18535e-05,9.98586e-06,2.9544e-05,4.89046e-05,-3.00393e-06,5.68991e-06
1449,-1.63942e-05,1.43196e-05,2.92544e-05,5.36002e-05,-6.37529e-06,8.17472e-06
1450,1.73476e-06,1.904e-05,2.92069e-05,5.25336e-05,-8.33225e-06,9.34088e-06
1451,8.58826e-06,1.88267e-05,2.83006e-05,5.21908e-05,-6.70939e-06,9.28532e-06
1452,1.0491e-05,1.79846e-05,2.71197e-05,5.46479e-05,-4.19465e-06,1.19336e-05
1453,8.07193e-06,1.73932e-05,2.85789e-05,5.43232e-05,-1.70184e-06,1.45795e-05
1454,6.97113e-06,1.58918e-05,3.19993e-05,4.97982e-05,-1.3856e-06,1.54698e-05
1455,-2.14123e-06,1.49142e-05,3.39314e-05,4.4883e-05,-4.48441e-06,1.28601e-05
1456,-2.36568e-05,1.53689e-05,3.1057e-05,4.16025e-05,-5.50065e-06,9.88129e-06
1457,-3.28213e-05,1.7639e-05,2.96735e-05,4.03869e-05,-5.93142e-06,9.3188e-06
1458,-1.67727e-05,2.07032e-05,3.25897e-05,3.86393e-05,-8.7933e-06,9.59074e-06
1459,2.81075e-06,2.0276e-05,3.50778e-05,3.90715e-05,-1.3877e-05,1.05801e-05
1460,9.58353e-06,1.85119e-05,3.57696e-05,4.41768e-05,-1.63166e-05,1.3777e-05
1461,-3.17234e-06,1.79044e-05,3.36344e-05,4.98982e-05,-1.57764e-05,1.52321e-05
1462,-2.27222e-05,1.5701e-05,3.02648e-05,5.28769e-05,-1.60669e-05,1.47893e-05
1463,-2.43667e-05,1.18743e-05,2.88563e-05,5.30747e-05,-1.98625e-05,1.43104e-05
1464,-4.93826e-06,9.61613e-06,2.98762e-05,5.22612e-05,-2.3902e-05,1.44828e-05
1465,1.17795e-05,1.04493e-05,3.05217e-05,5.1473e-05,-2.32059e-05,1.52793e-05
1466,1.14688e-05,1.25634e-05,3.10531e-05,5.30113e-05,-2.01518e-05,1.72804e-05
1467,-2.99406e-06,1.29204e-05,3.28212e-05,5.56791e-05,-1.69002e-05,1.98539e-05
1468,-2.46955e-05,1.03328e-05,3.44258e-05,5.6152e-05,-1.24609e-05,2.02108e-05
1469,-3.28697e-05,8.90087e-06,3.49512e-05,5.32753e-05,-8.81408e-06,2.18658e-05
1470,-1.82477e-05,9.89531e-06,3.3886e-05,4.87551e-05,-8.77451e-06,2.5674e-05
1471,-2.42903e-06,9.17112e-06,3.30712e-05,4.65556e-05,-1.0246e-05,2.72318e-05
1472,-2.54876e-06,7.89937e-06,3.42574e-05,4.75261e-05,-1.2449e-05,2.27796e-05
1473,-1.22231e-05,7.94317e-06,3.57659e-05,4.94353e-05,-1.48126e-05,1.62656e-05
1474,-3.30444e-05,9.78964e-06,3.55835e-05,5.04087e-05,-1.82007e-05,1.32604e-05
1475,-4.39381e-05,1.0585e-05,3.53591e-05,4.94637e-05,-1.99168e-05,1.58736e-05
1476,-1.94613e-05,1.09964e-05,3.24979e-05,5.183e-05,-1.89251e-05,1.92247e-05
1477,1.37996e-06,1.20894e-05,2.77432e-05,5.34434e-05,-1.97348e-05,1.89268e-05
1478,1.12069e-06,1.08324e-05,2.27508e-05,5.183e-05,-1.86935e-05,1.80792e-05
1479,7.46305e-07,8.86876e-06,2.0979e-05,4.98724e-05,-1.42233e-05,2.26153e-05
1480,-1.2693e-07,9.03253e-06,2.36466e-05,4.80571e-05,-1.19963e-05,2.42011e-05
1481,1.02814e-06,1.14746e-05,2.51956e-05,4.87657e-05,-1.15652e-05,1.85904e-05
1482,-8.18477e-06,1.11832e-05,2.51008e-05,5.00883e-05,-1.43241e-05,1.51526e-05
1483,-2.5983e-05,1.03916e-05,2.50308e-05,5.06738e-05,-1.56729e-05,1.48852e-05
1484,-2.64916e-05,1.29107e-05,2.31144e-05,4.94522e-05,-1.48668e-05,1.40298e-05
1485,-6.33569e-06,1.60729e-05,1.72889e-05,4.64512e-05,-1.55014e-05,1.4784e-05
1486,8.40526e-06,1.78015e-05,1.31657e-05,4.38667e-05,-1.97586e-05,1.94594e-05
1487,9.52513e-06,2.01402e-05,1.51339e-05,4.58418e-05,-2.49184e-05,2.42163e-05
1488,-1.57946e-06,2.17174e-05,1.86001e-05,5.1671e-05,-2.60974e-05,2.47974e-05
1489,-1.89303e-05,2.00541e-05,2.05941e-05,5.41415e-05,-2.34512e-05,2.04221e-05
1490,-2.37446e-05,1.879e-05,2.30154e-05,5.00997e-05,-2.10222e-05,1.40267e-05
1491,-7.41642e-06,1.91971e-05,2.42366e-05,4.49275e-05,-2.22275e-05,9.59397e-06
1492,1.21215e-05,2.09913e-05,2.31048e-05,4.22491e-05,-2.38774e-05,9.62058e-06
1493,1.5678e-05,2.43758e-05,2.14222e-05,4.06958e-05,-2.3207e-05,1.23163e-05
1494,1.57044e-06,2.57938e-05,1.90758e-05,4.02397e-05,-2.12812e-05,1.49165e-05
1495,-2.28637e-05,1.9987e-05,1.73351e-05,4.08237e-05,-2.16248e-05,1.59552e-05
1496,-3.26688e-05,1.22622e-05,1.70033e-05,4.07801e-05,-2.21304e-05,1.63798e-05
1497,-1.5045e-05,1.03199e-05,1.60168e-05,4.04944e-05,-2.11121e-05,1.909e-05
1498,6.10884e-06,1.25157e-05,1.36162e-05,4.20002e-05,-1.84524e-05,2.29521e-05
1499,8.66402e-06,1.29006e-05,1.24146e-05,4.35449e-05,-1.86459e-05,2.35314e-05
1500,-3.22487e-06,1.24816e-05,1.27204e-05,4.37515e-05,-2.36343e-05,2.20977e-05
1501,-3.00206e-05,1.06923e-05,1.46956e-05,4.2851e-05,-2.84696e-05,2.22799e-05
1502,-4.62084e-05,5.61521e-06,1.9148e-05,4.04699e-05,-2.65699e-05,2.15098e-05
1503,-2.64717e-05,2.3943e-06,2.20333e-05,3.88792e-05,-2.27054e-05,2.05304e-05
1504,-4.3346e-06,4.62788e-06,2.22999e-05,3.99885e-05,-2.28811e-05,2.14755e-05
1505,2.89812e-06,8.22447e-06,2.14187e-05,4.69145e-05,-2.64014e-05,2.14148e-05
1506,7.46232e-06,6.41369e-06,1.93921e-05,5.70324e-05,-2.72025e-05,1.75772e-05
1507,7.54073e-06,6.733e-07,1.79538e-05,6.1113e-05,-2.33133e-05,1.56166e-05
1508,6.30674e-06,-2.26824e-06,1.9883e-05,5.88481e-05,-1.95294e-05,1.65985e-05
1509,-6.01025e-06,6.73111e-07,2.32494e-05,5.63185e-05,-1.62117e-05,1.35685e-05
1510,-2.67074e-05,4.06766e-06,2.58524e-05,5.52617e-05,-1.34219e-05,8.40866e-06
1511,-2.87592e-05,2.80503e-06,2.7829e-05,5.42095e-05,-1.08981e-05,6.2033e-06
1512,-7.69917e-06,-8.11372e-07,2.74915e-05,5.06362e-05,-9.23149e-06,6.28174e-06
1513,9.68473e-06,-3.44741e-06,2.62567e-05,4.68185e-05,-8.24343e-06,4.89438e-06
1514,1.43937e-05,-2.52779e-06,2.81334e-05,4.72571e-05,-9.4513e-06,4.45167e-06
1515,7.08947e-06,2.33196e-07,3.01054e-05,4.96071e-05,-1.04227e-05,6.57004e-06
1516,-9.05527e-06,4.85579e-07,3.0234e-05,4.89474e-05,-8.65778e-06,8.89379e-06
1517,-1.67619e-05,-1.57987e-06,3.05762e-05,4.51577e-05,-4.35032e-06,8.30821e-06
1518,-7.1778e-06,-2.06225e-06,3.0126e-05,4.23937e-05,-1.35747e-06,5.5844e-06
1519,5.5981e-06,1.921e-06,2.83657e-05,4.28211e-05,-2.1566e-06,3.78247e-06
1520,7.60982e-06,9.24755e-06,2.83559e-05,4.58187e-05,-3.81132e-06,4.69636e-06
1521,-2.60749e-06,1.5891e-05,2.96086e-05,4.86911e-05,-3.84971e-06,4.69895e-06
1522,-2.06157e-05,1.5744e-05,2.90252e-05,4.86448e-05,-3.90368e-06,1.53603e-07
1523,-2.55875e-05,8.08246e-06,3.04773e-05,4.7217e-05,-4.50598e-06,-3.92054e-06
1524,-9.65686e-06,-2.70986e-07,3.27528e-05,4.80763e-05,-2.87409e-06,-4.02944e-06
1525,7.79348e-06,-4.06939e-06,3.06337e-05,4.9434e-05,-3.72404e-07,-2.86907e-06
1526,1.03076e-05,-2.19338e-06,3.00713e-05,4.86357e-05,8.95142e-07,-1.07266e-06
1527,-2.2504e-06,3.68707e-06,3.51434e-05,4.97484e-05,1.14335e-06,2.04755e-06
1528,-2.75111e-05,8.00879e-06,4.0217e-05,5.54157e-05,2.47257e-06,5.51827e-06
1529,-3.98341e-05,8.01033e-06,4.04318e-05,5.82893e-05,1.60927e-06,9.51265e-06
1530,-1.96573e-05,9.57066e-06,4.02102e-05,5.68193e-05,-1.43197e-06,1.49816e-05
1531,-1.96531e-06,1.44912e-05,3.99213e-05,5.42137e-05,-3.24876e-06,1.96397e-05
1532,-1.33093e-06,1.81599e-05,3.58098e-05,5.23096e-05,-3.98603e-06,1.8189e-05
1533,9.2656e-07,1.85429e-05,3.25978e-05,5.29778e-05,-2.46302e-06,1.475e-05
1534,4.04647e-06,1.73754e-05,3.17095e-05,5.4847e-05,6.36323e-08,1.50678e-05
1535,5.31186e-06,1.9201e-05,3.13879e-05,5.83581e-05,-2.40362e-06,1.54502e-05
1536,-6.24358e-06,2.35375e-05,2.98396e-05,5.97031e-05,-8.45364e-06,1.2899e-05
1537,-2.66026e-05,2.52206e-05,2.8203e-05,5.65845e-05,-1.04803e-05,1.0602e-05
1538,-3.04026e-05,2.2861e-05,2.65165e-05,5.33387e-05,-6.7829e-06,1.13419e-05
1539,-9.45559e-06,2.23106e-05,2.54386e-05,5.32813e-05,-3.22129e-06,1.35184e-05
1540,1.05832e-05,2.403e-05,2.50365e-05,5.58525e-05,-3.92294e-06,1.36802e-05
1541,1.66366e-05,2.40098e-05,2.71913e-05,5.88321e-05,-4.54006e-06,1.2752e-05
1542,6.37268e-06,1.98715e-05,3.0143e-05,5.97579e-05,-4.44305e-06,1.32319e-05
1543,-1.3779e-05,1.41467e-05,3.09369e-05,5.71028e-05,-4.09196e-06,1.5844e-05
1544,-2.23566e-05,1.28732e-05,3.17943e-05,5.29426e-05,-1.75587e-06,1.87742e-05
1545,-9.0767e-06,1.60711e-05,3.16338e-05,4.96598e-05,1.7666e-06,2.19652e-05
1546,8.89692e-06,1.9552e-05,2.81512e-05,4.86715e-05,1.57369e-06,2.51039e-05
1547,1.30565e-05,2.09314e-05,2.34702e-05,4.93811e-05,-2.03442e-06,2.65712e-05
1548,1.2872e-06,1.99672e-05,2.11247e-05,4.98943e-05,-4.12792e-06,2.70967e-05
1549,-2.0399e-05,1.70651e-05,2.2244e-05,4.93925e-05,-2.94666e-06,2.63351e-05
1550,-2.89696e-05,1.75848e-05,2.6938e-05,5.1635e-05,-1.41733e-06,2.37001e-05
1551,-1.17997e-05,2.10072e-05,3.0127e-05,5.52669e-05,-2.24015e-06,2.20251e-05
1552,1.17677e-05,2.35076e-05,3.09977e-05,5.48205e-05,-4.29161e-06,1.97926e-05
1553,1.9672e-05,2.47544e-05,3.16262e-05,5.21362e-05,-6.56522e-06,1.5634e-05
1554,1.20518e-05,2.49552e-05,3.16772e-05,5.01533e-05,-6.49049e-06,1.36807e-05
