Time_Index,DELTOID_Affected,DELTOID_NonAffected,BICEPS_Affected,BICEPS_NonAffected,FOREARM_Affected,FOREARM_NonAffected
1,-1.38544e-05,2.32944e-05,3.43748e-05,5.3291e-05,1.65732e-05,1.17051e-05
2,-1.85443e-05,2.6926e-05,2.98133e-05,5.13561e-05,1.92088e-05,1.17711e-05
3,-8.87043e-06,2.96926e-05,2.94599e-05,4.8771e-05,1.83004e-05,1.63407e-05
4,2.60592e-06,2.79067e-05,3.29494e-05,4.88423e-05,2.16085e-05,1.95738e-05
5,3.08953e-06,2.20065e-05,3.61232e-05,4.73486e-05,2.81333e-05,1.73845e-05
6,-8.40509e-06,1.53558e-05,3.60367e-05,4.32969e-05,3.27982e-05,1.25533e-05
7,-2.41248e-05,9.56154e-06,3.30193e-05,4.28313e-05,3.46348e-05,1.05919e-05
8,-3.0588e-05,7.58906e-06,3.16325e-05,4.78123e-05,3.37141e-05,1.3348e-05
9,-2.16862e-05,1.28665e-05,3.39122e-05,5.08584e-05,3.17339e-05,1.88936e-05
10,-7.1199e-06,2.40366e-05,3.71723e-05,4.75411e-05,3.33928e-05,2.36938e-05
11,3.47369e-07,3.64809e-05,3.9963e-05,4.19421e-05,3.97113e-05,2.34646e-05
12,-2.96982e-06,4.67208e-05,4.14513e-05,3.91469e-05,4.41159e-05,1.70908e-05
13,-1.43601e-05,5.33982e-05,4.07099e-05,4.21235e-05,4.20983e-05,7.74491e-06
14,-2.24557e-05,5.91275e-05,4.15689e-05,4.96413e-05,3.67726e-05,1.84566e-06
15,-1.66687e-05,6.85851e-05,4.64794e-05,5.49959e-05,3.33318e-05,3.87377e-06
16,-4.69538e-06,8.14783e-05,5.01047e-05,5.45567e-05,3.49125e-05,1.10694e-05
17,-2.41022e-07,9.13701e-05,4.89239e-05,5.27084e-05,3.99142e-05,1.66006e-05
18,-5.34864e-06,9.4623e-05,4.50132e-05,5.43801e-05,4.33214e-05,1.65091e-05
19,-1.96357e-05,9.01435e-05,3.96945e-05,5.84438e-05,4.46104e-05,1.12046e-05
20,-3.24511e-05,7.5307e-05,3.49732e-05,6.02526e-05,4.39207e-05,7.35644e-06
21,-2.57843e-05,5.00516e-05,3.43685e-05,5.79715e-05,4.13109e-05,1.21245e-05
22,-9.71052e-06,2.17544e-05,3.63865e-05,5.31915e-05,4.19836e-05,2.03063e-05
23,-1.15924e-06,-7.63479e-07,3.81318e-05,5.02926e-05,4.7121e-05,2.20519e-05
24,3.99257e-06,-1.48423e-05,3.83457e-05,5.23533e-05,5.09e-05,1.83801e-05
25,7.76326e-06,-1.95789e-05,3.59722e-05,5.56637e-05,4.92775e-05,1.90648e-05
26,5.88945e-06,-1.74106e-05,3.68051e-05,5.38383e-05,4.38809e-05,2.66261e-05
27,-5.67983e-06,-1.59889e-05,4.07801e-05,4.82998e-05,4.08325e-05,3.1285e-05
28,-2.19397e-05,-2.07635e-05,4.1424e-05,4.67228e-05,4.13577e-05,2.79442e-05
29,-2.63435e-05,-2.72363e-05,4.1225e-05,5.21352e-05,3.98036e-05,2.27372e-05
30,-1.43631e-05,-2.85829e-05,4.30965e-05,5.85687e-05,3.55204e-05,2.34271e-05
31,-1.75601e-06,-2.26355e-05,4.40528e-05,5.7809e-05,3.37979e-05,3.01435e-05
32,-5.14483e-08,-1.12581e-05,4.33221e-05,4.93274e-05,3.69053e-05,3.5655e-05
33,-8.12181e-06,-3.85566e-07,4.2812e-05,4.07323e-05,4.12546e-05,3.69042e-05
34,-1.98719e-05,4.91324e-06,4.25971e-05,3.90627e-05,4.15003e-05,3.77649e-05
35,-2.33464e-05,5.61816e-06,4.36062e-05,4.45342e-05,3.46797e-05,4.05901e-05
36,-1.24439e-05,6.38357e-06,4.49913e-05,5.11344e-05,2.61484e-05,4.26772e-05
37,9.17337e-07,1.13209e-05,4.48324e-05,5.35947e-05,2.62635e-05,4.19604e-05
38,4.92539e-06,2.07148e-05,4.42438e-05,5.25085e-05,3.5589e-05,4.02131e-05
39,9.98204e-07,2.76743e-05,4.532e-05,4.97758e-05,4.39239e-05,3.83858e-05
40,-8.66268e-06,2.35226e-05,4.81617e-05,4.64974e-05,4.49418e-05,3.55175e-05
41,-1.68663e-05,6.39592e-06,5.18486e-05,4.47481e-05,3.94546e-05,3.28466e-05
42,-1.1229e-05,-1.84975e-05,5.50697e-05,4.54355e-05,3.12929e-05,3.28111e-05
43,3.60616e-06,-4.25626e-05,5.69283e-05,4.64226e-05,2.92106e-05,3.41497e-05
44,1.1359e-05,-5.46439e-05,5.76083e-05,4.71969e-05,3.56424e-05,3.28187e-05
45,6.99641e-06,-5.1961e-05,5.61668e-05,4.97832e-05,4.11501e-05,2.78683e-05
46,-7.95931e-06,-4.84248e-05,5.12309e-05,5.32946e-05,4.05454e-05,2.27064e-05
47,-2.17387e-05,-5.46869e-05,4.58651e-05,5.61281e-05,3.54e-05,1.95765e-05
48,-1.58477e-05,-5.71896e-05,4.46327e-05,5.7418e-05,2.98968e-05,1.74756e-05
49,-1.02237e-06,-4.18221e-05,4.35916e-05,5.62886e-05,2.97546e-05,1.54941e-05
50,5.0529e-06,-1.59715e-05,3.96928e-05,5.55461e-05,3.4878e-05,1.71949e-05
51,8.08311e-06,8.61568e-06,3.82929e-05,5.74915e-05,3.99796e-05,2.21898e-05
52,1.15775e-05,2.64416e-05,3.94607e-05,5.92425e-05,4.2234e-05,2.37531e-05
53,1.20595e-05,3.92113e-05,3.97536e-05,5.82084e-05,4.36774e-05,2.1904e-05
54,2.62156e-06,5.40882e-05,3.9779e-05,5.67998e-05,4.64802e-05,1.92396e-05
55,-1.52208e-05,6.97797e-05,3.97838e-05,5.79139e-05,4.84868e-05,1.80554e-05
56,-2.32011e-05,7.70318e-05,4.17341e-05,6.02361e-05,4.50234e-05,2.11296e-05
57,-1.30091e-05,7.18141e-05,4.49855e-05,6.05345e-05,3.71133e-05,2.54187e-05
58,9.53952e-07,5.97025e-05,4.42486e-05,5.75999e-05,3.36389e-05,2.43417e-05
59,5.88022e-06,4.8375e-05,3.98698e-05,5.46625e-05,3.72243e-05,1.78441e-05
60,-3.47215e-07,4.15726e-05,3.54783e-05,5.42718e-05,4.0935e-05,1.17835e-05
61,-1.25746e-05,4.14461e-05,3.23746e-05,5.44712e-05,4.04038e-05,9.34129e-06
62,-1.75927e-05,4.94926e-05,3.18226e-05,5.45278e-05,3.72049e-05,9.95257e-06
63,-8.61729e-06,6.25375e-05,3.38092e-05,5.63464e-05,3.48772e-05,1.14778e-05
64,3.81865e-06,7.33367e-05,3.42164e-05,6.04028e-05,3.56874e-05,1.14142e-05
65,7.9065e-06,7.65902e-05,3.04908e-05,6.24557e-05,3.82976e-05,9.19431e-06
66,2.45679e-06,6.92909e-05,2.63466e-05,5.84021e-05,4.108e-05,5.79101e-06
67,-8.97956e-06,5.16322e-05,2.49727e-05,5.1596e-05,4.3676e-05,1.67019e-06
68,-1.57969e-05,3.22535e-05,2.61359e-05,4.79653e-05,4.32219e-05,-2.04491e-06
69,-9.23797e-06,2.32038e-05,2.93417e-05,4.78012e-05,3.9255e-05,-3.9593e-06
70,2.60607e-06,2.48807e-05,3.3084e-05,4.92657e-05,3.67129e-05,-3.39846e-06
71,6.06749e-06,2.57042e-05,3.50502e-05,5.116e-05,3.74229e-05,1.28069e-06
72,-1.6525e-06,1.70692e-05,3.45642e-05,5.169e-05,3.65919e-05,7.50353e-06
73,-1.77899e-05,3.42833e-06,3.33208e-05,5.16765e-05,3.21633e-05,8.82412e-06
74,-2.70661e-05,-8.56108e-06,3.48581e-05,5.1333e-05,2.56186e-05,8.23646e-06
75,-1.31826e-05,-1.5436e-05,3.94097e-05,5.00232e-05,1.88384e-05,1.21832e-05
76,4.89142e-06,-1.44389e-05,4.15062e-05,4.9504e-05,1.45e-05,1.55e-05
77,8.75542e-06,-7.39416e-06,4.0045e-05,5.10448e-05,1.34404e-05,1.37242e-05
78,9.01632e-06,-3.96653e-08,4.06185e-05,5.5224e-05,1.68e-05,1.24907e-05
79,1.13469e-05,5.03626e-06,4.39789e-05,6.05239e-05,2.24041e-05,1.32821e-05
80,1.35949e-05,1.10341e-05,4.41892e-05,6.11469e-05,2.60936e-05,1.4131e-05
81,7.97518e-06,1.69848e-05,3.78427e-05,5.55266e-05,2.95634e-05,1.37743e-05
82,-8.04783e-06,1.78294e-05,2.8977e-05,5.03034e-05,3.29526e-05,1.29288e-05
83,-1.71227e-05,1.46402e-05,2.46348e-05,4.84494e-05,3.18213e-05,1.39233e-05
84,-9.28996e-06,1.10131e-05,2.49457e-05,4.78303e-05,2.58806e-05,1.68046e-05
85,1.65936e-06,9.01353e-06,2.4833e-05,4.68339e-05,2.07313e-05,1.89973e-05
86,4.12002e-06,9.62549e-06,2.42631e-05,4.47172e-05,1.95723e-05,1.74988e-05
87,-2.95556e-06,1.08608e-05,2.46582e-05,4.28385e-05,2.06694e-05,1.12549e-05
88,-1.59303e-05,8.65003e-06,2.47613e-05,4.47665e-05,2.00732e-05,3.03279e-06
89,-2.26263e-05,4.64146e-06,2.44784e-05,5.03668e-05,1.58246e-05,4.93823e-07
90,-1.38284e-05,2.66664e-06,2.48211e-05,5.34038e-05,1.21939e-05,6.64731e-06
91,1.68882e-06,1.60562e-06,2.52499e-05,5.09532e-05,1.48851e-05,1.46817e-05
92,9.0938e-06,1.37373e-06,2.55879e-05,4.66814e-05,2.22417e-05,1.66512e-05
93,4.20392e-06,3.00802e-06,2.56046e-05,4.48411e-05,2.5652e-05,1.22499e-05
94,-8.65532e-06,4.16469e-06,2.432e-05,4.61836e-05,2.1253e-05,6.33055e-06
95,-1.58081e-05,4.00738e-06,2.51675e-05,4.84827e-05,1.44972e-05,3.66315e-06
96,-5.13295e-06,3.39287e-06,3.1543e-05,4.86236e-05,1.18352e-05,5.34033e-06
97,1.26185e-05,1.29044e-07,3.8798e-05,4.61518e-05,1.53383e-05,7.17429e-06
98,1.82737e-05,-3.01337e-06,4.0901e-05,4.39744e-05,2.08161e-05,5.74891e-06
99,1.01372e-05,-6.86771e-08,3.80618e-05,4.30597e-05,2.1917e-05,4.19346e-06
100,-7.41245e-06,4.08946e-06,3.38204e-05,4.25994e-05,1.98838e-05,2.78573e-06
101,-2.15773e-05,1.65679e-06,3.13534e-05,4.4595e-05,1.68384e-05,2.20018e-06
102,-1.43444e-05,-3.48707e-06,3.30077e-05,4.78314e-05,1.3765e-05,7.13562e-06
103,1.78184e-06,-6.35088e-06,3.76395e-05,4.77506e-05,1.37049e-05,1.31809e-05
104,9.75337e-06,-6.11603e-06,4.30712e-05,4.71178e-05,1.73134e-05,1.59413e-05
105,1.42107e-05,-2.34038e-06,4.66003e-05,4.85431e-05,2.17424e-05,1.7494e-05
106,1.69261e-05,4.06856e-06,4.6958e-05,4.70403e-05,2.3645e-05,1.82076e-05
107,1.80148e-05,7.66389e-06,4.74109e-05,4.23597e-05,2.33026e-05,1.9504e-05
108,1.24091e-05,3.29767e-06,4.66372e-05,4.18221e-05,2.27396e-05,2.04028e-05
109,-1.63014e-06,-3.0761e-06,4.33189e-05,4.94639e-05,2.26723e-05,1.83678e-05
110,-8.02013e-06,2.62435e-08,4.10209e-05,5.88545e-05,2.11551e-05,1.60149e-05
111,1.74575e-06,1.12093e-05,4.21791e-05,6.2001e-05,1.9056e-05,1.64178e-05
112,1.31602e-05,2.03543e-05,4.41955e-05,5.87135e-05,2.0836e-05,1.79657e-05
113,1.41414e-05,2.35821e-05,4.38463e-05,5.30719e-05,2.69674e-05,1.68092e-05
114,5.68024e-06,1.76991e-05,4.09718e-05,4.89348e-05,3.24143e-05,1.33012e-05
115,-3.75616e-06,1.53721e-06,3.89162e-05,4.81537e-05,3.30608e-05,1.21116e-05
116,-3.02205e-06,-1.46194e-05,4.066e-05,4.94506e-05,2.94522e-05,1.56971e-05
117,7.36157e-06,-2.04205e-05,4.33743e-05,5.14943e-05,2.52414e-05,2.08358e-05
118,1.5536e-05,-1.70985e-05,4.27315e-05,5.53871e-05,2.50691e-05,2.28031e-05
119,1.51817e-05,-7.29574e-06,3.91729e-05,5.81995e-05,2.88868e-05,2.1602e-05
120,8.02614e-06,9.01536e-06,3.6191e-05,5.55669e-05,3.16039e-05,2.08803e-05
121,-4.94686e-06,2.67614e-05,3.45028e-05,5.1639e-05,3.08408e-05,2.01539e-05
122,-1.38776e-05,3.87876e-05,3.48111e-05,5.34303e-05,2.84468e-05,1.69922e-05
123,-6.69158e-06,4.37745e-05,3.81476e-05,5.85266e-05,2.63404e-05,1.35465e-05
124,8.04137e-06,4.29772e-05,4.3176e-05,6.04292e-05,2.73101e-05,1.25753e-05
125,1.32508e-05,3.76395e-05,4.66024e-05,5.73776e-05,3.1344e-05,1.31058e-05
126,6.70301e-06,3.20781e-05,4.53809e-05,5.35178e-05,3.47929e-05,1.14238e-05
127,-5.39215e-06,2.82644e-05,4.0321e-05,5.23127e-05,3.63153e-05,5.90324e-06
128,-9.64743e-06,2.27834e-05,3.75985e-05,5.14859e-05,3.69426e-05,3.20736e-06
129,4.10681e-06,1.4863e-05,4.21902e-05,5.08445e-05,3.67776e-05,8.13439e-06
130,1.96573e-05,1.02133e-05,4.73401e-05,5.16641e-05,3.56175e-05,1.15154e-05
131,2.12354e-05,1.08561e-05,4.61387e-05,5.20427e-05,3.5238e-05,7.989e-06
132,1.57577e-05,1.05212e-05,4.38351e-05,5.0704e-05,3.70142e-05,5.23334e-06
133,1.09893e-05,1.07297e-05,4.27872e-05,4.87759e-05,4.00147e-05,4.06857e-06
134,1.00658e-05,1.76905e-05,3.97965e-05,4.58017e-05,4.01477e-05,2.04673e-06
135,7.09514e-06,2.60456e-05,3.51264e-05,4.30853e-05,3.68948e-05,8.67984e-07
136,-4.30762e-06,2.75525e-05,3.18921e-05,4.56667e-05,3.44183e-05,1.14565e-06
137,-1.18273e-05,2.50479e-05,3.14165e-05,5.21202e-05,3.17028e-05,3.45714e-06
138,-5.30847e-06,2.36916e-05,3.41071e-05,5.62345e-05,2.7622e-05,7.09514e-06
139,4.84595e-06,2.45323e-05,3.78348e-05,5.66391e-05,2.71249e-05,9.61735e-06
140,8.03243e-06,2.67081e-05,3.84635e-05,5.69591e-05,3.17082e-05,1.07211e-05
141,7.21338e-07,2.62898e-05,3.51291e-05,5.85598e-05,3.54729e-05,1.20258e-05
142,-1.41431e-05,2.0364e-05,3.14789e-05,6.01222e-05,3.38435e-05,1.44848e-05
143,-2.26893e-05,1.32854e-05,3.21386e-05,6.12666e-05,2.74675e-05,1.93651e-05
144,-1.57483e-05,1.23015e-05,3.65875e-05,6.14886e-05,2.10812e-05,2.61179e-05
145,-3.24874e-06,1.84191e-05,4.02502e-05,6.00673e-05,2.08632e-05,3.04362e-05
146,5.17794e-07,2.57803e-05,4.00675e-05,5.83957e-05,2.64785e-05,2.87628e-05
147,-5.8223e-06,2.75093e-05,3.74763e-05,5.93166e-05,3.0826e-05,2.36687e-05
148,-1.78073e-05,2.311e-05,3.41148e-05,6.16915e-05,3.08651e-05,1.87548e-05
149,-2.61726e-05,1.80288e-05,3.13363e-05,6.12315e-05,2.76723e-05,1.52909e-05
150,-1.91795e-05,1.56422e-05,3.17692e-05,5.7882e-05,2.22046e-05,1.4947e-05
151,-1.8354e-06,1.3156e-05,3.56909e-05,5.46534e-05,1.85038e-05,1.59279e-05
152,7.26864e-06,9.41758e-06,3.86579e-05,5.29958e-05,1.84308e-05,1.47529e-05
153,1.15907e-06,6.70737e-06,3.71897e-05,5.29192e-05,2.06578e-05,1.42051e-05
154,-1.59063e-05,5.61963e-06,3.23523e-05,5.33514e-05,2.49384e-05,1.68273e-05
155,-2.97827e-05,6.78584e-06,2.82895e-05,5.53151e-05,2.75459e-05,2.12905e-05
156,-2.42509e-05,1.16738e-05,2.81697e-05,5.87153e-05,2.58847e-05,2.56477e-05
157,-1.06139e-05,1.79529e-05,2.92189e-05,5.8397e-05,2.24359e-05,2.45575e-05
158,-6.96064e-06,2.45163e-05,3.00992e-05,5.24959e-05,2.06831e-05,1.79113e-05
159,-9.41201e-06,3.10701e-05,3.37663e-05,4.77076e-05,2.26935e-05,1.40309e-05
160,-1.17953e-05,3.50909e-05,3.91557e-05,4.70254e-05,2.54981e-05,1.44664e-05
161,-1.30501e-05,3.976e-05,4.07833e-05,4.71447e-05,2.62834e-05,1.49161e-05
162,-1.94914e-05,4.57408e-05,3.58502e-05,4.74126e-05,2.73559e-05,1.31381e-05
163,-3.35433e-05,4.5902e-05,2.91964e-05,4.82528e-05,3.03203e-05,1.10231e-05
164,-3.95526e-05,3.88026e-05,2.85419e-05,4.91119e-05,3.04199e-05,1.27523e-05
165,-2.7604e-05,2.96012e-05,3.44249e-05,4.99062e-05,2.57764e-05,1.58982e-05
166,-1.008e-05,2.24116e-05,3.79406e-05,4.99092e-05,2.28796e-05,1.51286e-05
167,-8.94564e-07,1.92558e-05,3.42874e-05,4.77967e-05,2.37165e-05,1.1661e-05
168,-4.24872e-06,1.86636e-05,2.86382e-05,4.62093e-05,2.38152e-05,7.64678e-06
169,-1.73215e-05,1.57079e-05,2.7325e-05,4.9194e-05,2.13843e-05,4.47762e-06
170,-2.63027e-05,1.0716e-05,3.09718e-05,5.45616e-05,1.81783e-05,6.21628e-06
171,-1.96052e-05,8.65704e-06,3.64225e-05,5.78351e-05,1.5935e-05,1.3341e-05
172,-5.59115e-06,1.03019e-05,4.04694e-05,5.88395e-05,1.62684e-05,2.08462e-05
173,-3.78847e-07,1.32993e-05,4.13721e-05,5.78149e-05,1.76225e-05,2.54345e-05
174,-8.34708e-06,1.54282e-05,4.02586e-05,5.3966e-05,1.81984e-05,2.59262e-05
175,-2.30653e-05,1.58276e-05,4.0186e-05,4.86854e-05,1.95342e-05,2.04615e-05
176,-3.04347e-05,1.83407e-05,4.22768e-05,4.52219e-05,1.95368e-05,1.27028e-05
177,-2.12933e-05,2.56173e-05,4.4171e-05,4.6088e-05,1.69363e-05,8.29336e-06
178,-6.79512e-06,3.15111e-05,4.50079e-05,4.99601e-05,1.64963e-05,8.16687e-06
179,-2.09594e-06,3.10689e-05,4.60973e-05,5.21698e-05,1.94559e-05,1.16635e-05
180,-7.02642e-06,2.68111e-05,4.78243e-05,5.06794e-05,2.19716e-05,1.56892e-05
181,-1.98922e-05,2.23969e-05,4.87973e-05,4.96647e-05,2.14374e-05,1.3899e-05
182,-3.21246e-05,1.71117e-05,4.81373e-05,5.17901e-05,1.87053e-05,7.35687e-06
183,-2.58031e-05,6.26144e-06,4.63464e-05,5.41961e-05,1.51658e-05,4.17655e-06
184,-1.05043e-05,-9.42187e-06,4.35949e-05,5.38076e-05,1.43207e-05,3.75246e-06
185,-4.927e-06,-2.52269e-05,3.88195e-05,5.10474e-05,1.90697e-05,5.13303e-06
186,-4.10993e-06,-4.00792e-05,3.48906e-05,4.94578e-05,2.49215e-05,1.00382e-05
187,-3.29455e-06,-4.74928e-05,3.71726e-05,4.93518e-05,2.53946e-05,1.29665e-05
188,-4.90093e-06,-4.04389e-05,4.33214e-05,4.82843e-05,2.1146e-05,1.2321e-05
189,-1.39864e-05,-2.62234e-05,4.5662e-05,4.80467e-05,1.96788e-05,9.74823e-06
190,-3.11343e-05,-1.70953e-05,4.37993e-05,5.18798e-05,2.11783e-05,4.24378e-06
191,-4.00053e-05,-1.51927e-05,4.38749e-05,5.55884e-05,1.81308e-05,9.96202e-07
192,-2.89259e-05,-1.79538e-05,4.63944e-05,5.42014e-05,1.06049e-05,6.13741e-06
193,-1.08084e-05,-2.09805e-05,4.65487e-05,4.99199e-05,9.47625e-06,1.24659e-05
194,-9.09279e-07,-1.88233e-05,4.4346e-05,4.65325e-05,1.72048e-05,1.28044e-05
195,-4.53232e-06,-1.03314e-05,4.23733e-05,4.44609e-05,2.37027e-05,9.84152e-06
196,-1.80113e-05,7.33162e-07,4.09031e-05,4.40079e-05,2.25179e-05,7.23868e-06
197,-2.6314e-05,1.05036e-05,4.05846e-05,4.64433e-05,1.81497e-05,5.5472e-06
198,-1.89939e-05,1.66051e-05,4.20754e-05,4.91707e-05,1.91426e-05,4.84501e-06
199,-5.3251e-06,1.88586e-05,4.36675e-05,4.90341e-05,2.75017e-05,5.22042e-06
200,4.08043e-07,1.98105e-05,4.13022e-05,4.73052e-05,3.78885e-05,5.71502e-06
201,-5.49064e-06,1.97066e-05,3.26823e-05,4.69257e-05,4.4276e-05,5.10781e-06
202,-1.94551e-05,1.789e-05,2.19984e-05,4.85981e-05,4.38647e-05,3.42193e-06
203,-2.846e-05,1.78173e-05,1.78051e-05,5.08557e-05,3.70984e-05,2.90363e-06
204,-2.08274e-05,2.42492e-05,2.16638e-05,5.26865e-05,3.00801e-05,5.02904e-06
205,-6.01615e-06,3.6339e-05,2.54338e-05,5.48091e-05,2.89848e-05,9.45266e-06
206,7.6166e-09,4.84499e-05,2.45157e-05,5.64161e-05,3.37002e-05,1.32927e-05
207,-4.679e-06,5.3673e-05,2.26525e-05,5.5076e-05,4.0811e-05,1.40749e-05
208,-1.89925e-05,4.94488e-05,2.11377e-05,5.27484e-05,4.7546e-05,1.24858e-05
209,-3.01757e-05,3.80598e-05,1.89014e-05,5.37938e-05,4.92992e-05,1.38815e-05
210,-1.98147e-05,2.49919e-05,1.86001e-05,5.52421e-05,4.31137e-05,2.31326e-05
211,-1.66676e-06,1.70418e-05,1.85468e-05,5.30086e-05,3.7262e-05,3.26217e-05
212,5.38162e-06,1.57845e-05,1.85236e-05,5.01587e-05,4.11515e-05,3.28803e-05
213,8.50815e-06,1.84202e-05,2.20543e-05,5.11302e-05,5.03546e-05,2.79371e-05
214,1.34918e-05,1.97968e-05,2.54316e-05,5.37212e-05,5.58249e-05,2.43991e-05
215,1.72314e-05,1.53371e-05,2.60227e-05,5.35492e-05,5.64089e-05,2.4769e-05
216,1.25307e-05,8.32185e-06,2.51011e-05,5.25383e-05,5.49914e-05,2.67511e-05
217,8.71637e-07,4.4705e-06,2.41972e-05,5.47929e-05,5.25322e-05,2.71034e-05
218,-1.28543e-07,7.20271e-06,2.49111e-05,5.86514e-05,5.03124e-05,2.60675e-05
219,1.50551e-05,1.42837e-05,2.59681e-05,5.92595e-05,4.79e-05,2.60776e-05
220,3.05046e-05,2.16423e-05,2.29836e-05,5.56538e-05,4.54697e-05,2.92872e-05
221,3.38168e-05,2.80889e-05,1.76645e-05,4.9785e-05,4.33745e-05,3.43956e-05
222,2.50539e-05,3.11164e-05,1.621e-05,4.51217e-05,4.12082e-05,3.68798e-05
223,1.00127e-05,2.98022e-05,1.94762e-05,4.47995e-05,3.9845e-05,3.50714e-05
224,1.26191e-06,3.11117e-05,2.49481e-05,4.7828e-05,3.81745e-05,3.34888e-05
225,6.38607e-06,4.22121e-05,2.99433e-05,4.98699e-05,3.55887e-05,3.66241e-05
226,1.64476e-05,5.68101e-05,3.24867e-05,4.93334e-05,3.53466e-05,4.31081e-05
227,1.9643e-05,6.11813e-05,3.22753e-05,4.77635e-05,3.84713e-05,4.74358e-05
228,1.31467e-05,4.95488e-05,3.15474e-05,4.65409e-05,4.08522e-05,4.60297e-05
229,-1.14798e-06,2.68531e-05,3.21859e-05,4.61738e-05,4.13475e-05,3.89268e-05
230,-1.16683e-05,3.17264e-06,3.50096e-05,4.70635e-05,4.06979e-05,2.9979e-05
231,-6.89999e-06,-1.17226e-05,3.96531e-05,4.81568e-05,3.74375e-05,2.4921e-05
232,3.49538e-06,-1.51861e-05,4.35734e-05,4.78078e-05,3.42004e-05,2.611e-05
233,5.58654e-06,-1.18251e-05,4.54735e-05,4.68221e-05,3.5684e-05,2.83626e-05
234,-2.29421e-07,-9.06957e-06,4.63014e-05,4.57556e-05,3.9205e-05,2.67311e-05
235,-1.04254e-05,-1.27629e-05,4.59699e-05,4.55211e-05,4.09704e-05,2.29549e-05
236,-1.57808e-05,-2.12245e-05,4.5839e-05,4.82892e-05,3.8647e-05,2.07934e-05
237,-4.19008e-06,-2.18e-05,4.94159e-05,5.1523e-05,3.13524e-05,2.17744e-05
238,1.16754e-05,-6.49656e-06,5.3204e-05,5.09576e-05,2.25836e-05,2.22434e-05
239,1.53798e-05,1.50132e-05,5.0675e-05,4.68425e-05,1.72151e-05,1.98133e-05
240,1.3481e-05,2.83902e-05,4.33394e-05,4.29716e-05,1.81752e-05,1.78108e-05
241,1.30624e-05,2.91807e-05,3.84247e-05,4.18846e-05,2.45924e-05,1.88301e-05
242,1.28769e-05,2.09578e-05,3.97966e-05,4.24624e-05,2.94184e-05,2.1918e-05
243,6.38629e-06,9.79454e-06,4.2703e-05,4.39404e-05,2.86308e-05,2.11865e-05
244,-7.15055e-06,1.102e-06,4.41788e-05,4.7014e-05,2.67836e-05,1.52766e-05
245,-1.21095e-05,5.67478e-08,4.63427e-05,5.02189e-05,2.30336e-05,1.02352e-05
246,3.84327e-07,8.67215e-06,4.87943e-05,5.14723e-05,1.64602e-05,8.71727e-06
247,1.48046e-05,2.15645e-05,4.86126e-05,5.2839e-05,1.36555e-05,7.74178e-06
248,1.59242e-05,2.90124e-05,4.68525e-05,5.42002e-05,1.60119e-05,6.18766e-06
249,2.74737e-06,2.54335e-05,4.59823e-05,5.37109e-05,1.97833e-05,5.34548e-06
250,-1.6703e-05,1.37586e-05,4.55508e-05,5.28325e-05,2.14951e-05,6.45922e-06
251,-2.71647e-05,1.80942e-06,4.49272e-05,5.28037e-05,1.83364e-05,1.02524e-05
252,-2.03251e-05,-5.28208e-06,4.39433e-05,5.10621e-05,1.37909e-05,1.54052e-05
253,-7.26862e-06,-7.9313e-06,4.33573e-05,4.6615e-05,1.45754e-05,1.98981e-05
254,-2.78748e-06,-9.15828e-06,4.40888e-05,4.38888e-05,1.99182e-05,2.12367e-05
255,-1.05854e-05,-1.35167e-05,4.47063e-05,4.57505e-05,2.38702e-05,1.84591e-05
256,-2.65342e-05,-2.33014e-05,4.27982e-05,5.12302e-05,2.46515e-05,1.39085e-05
257,-3.77561e-05,-3.35498e-05,4.14471e-05,5.8224e-05,2.24307e-05,1.14294e-05
258,-3.34734e-05,-3.47148e-05,4.40277e-05,6.41543e-05,1.54236e-05,1.30544e-05
259,-2.05769e-05,-2.43816e-05,4.79401e-05,6.66888e-05,9.24767e-06,1.7115e-05
260,-1.1618e-05,-9.96839e-06,4.79656e-05,6.42292e-05,1.00758e-05,1.98219e-05
261,-1.02045e-05,-1.71034e-06,4.17938e-05,5.73427e-05,1.14475e-05,1.91724e-05
262,-1.95756e-05,-4.47785e-06,3.38814e-05,5.19518e-05,8.58598e-06,1.34025e-05
263,-3.28557e-05,-1.21106e-05,3.24769e-05,5.13921e-05,4.96386e-06,7.27911e-06
264,-3.16263e-05,-1.07503e-05,3.96252e-05,5.57633e-05,3.36488e-06,7.01136e-06
265,-1.86785e-05,6.04573e-06,4.48679e-05,6.24441e-05,3.95745e-06,7.15482e-06
266,-9.43945e-06,2.76298e-05,4.17743e-05,6.29585e-05,8.90298e-06,4.53642e-06
267,-4.08045e-06,3.79094e-05,3.85021e-05,5.81032e-05,1.70698e-05,3.98914e-06
268,2.34334e-07,3.63773e-05,3.89669e-05,5.67221e-05,2.18248e-05,6.85897e-06
269,2.54258e-06,3.54831e-05,3.77103e-05,5.86943e-05,2.10136e-05,1.16344e-05
270,-3.30367e-06,4.05283e-05,3.20471e-05,6.03828e-05,1.85059e-05,1.47883e-05
271,-1.98256e-05,4.38909e-05,2.78995e-05,6.19032e-05,1.67174e-05,1.40554e-05
272,-3.09509e-05,3.89587e-05,3.0434e-05,6.25312e-05,1.37184e-05,1.3283e-05
273,-2.47319e-05,2.97791e-05,3.54588e-05,6.20536e-05,1.03798e-05,1.42985e-05
274,-1.15072e-05,2.38542e-05,3.77723e-05,5.95985e-05,1.26419e-05,1.39731e-05
275,-4.21443e-06,2.49925e-05,3.81835e-05,5.58817e-05,2.13047e-05,1.06539e-05
276,-8.00946e-06,2.94013e-05,3.75735e-05,5.47041e-05,2.97047e-05,4.26776e-06
277,-1.98823e-05,2.82052e-05,3.54158e-05,5.71358e-05,3.32401e-05,-2.41665e-06
278,-2.48747e-05,1.94569e-05,3.53538e-05,6.01293e-05,3.21208e-05,-3.1936e-06
279,-1.36442e-05,9.02896e-06,4.11788e-05,5.97105e-05,3.06133e-05,2.41475e-06
280,2.07988e-06,1.29052e-06,4.85598e-05,5.55675e-05,3.34707e-05,7.51959e-06
281,6.55882e-06,-2.78932e-06,4.91895e-05,5.08332e-05,3.99253e-05,7.80475e-06
282,-2.27253e-06,-5.12485e-06,4.23267e-05,4.8657e-05,4.58669e-05,5.07507e-06
283,-1.751e-05,-9.0922e-06,3.37206e-05,4.94573e-05,4.86057e-05,2.85177e-06
284,-2.56624e-05,-1.33043e-05,2.97081e-05,5.24666e-05,4.59324e-05,4.61311e-06
285,-1.73236e-05,-1.16067e-05,3.27558e-05,5.65447e-05,3.9649e-05,1.07755e-05
286,-2.22807e-06,-1.84938e-06,3.78897e-05,6.04808e-05,3.8143e-05,1.58875e-05
287,5.65257e-06,1.13963e-05,3.92228e-05,6.27697e-05,4.31139e-05,1.46311e-05
288,3.7535e-06,2.05899e-05,3.63586e-05,6.25432e-05,4.89845e-05,1.08612e-05
289,-7.69592e-06,2.21537e-05,3.17408e-05,6.21842e-05,5.23368e-05,9.41263e-06
290,-1.91613e-05,1.99086e-05,3.04186e-05,6.33218e-05,4.91767e-05,9.58288e-06
291,-1.48692e-05,2.07395e-05,3.57771e-05,6.18585e-05,4.17248e-05,1.15332e-05
292,-1.9964e-06,2.58049e-05,4.17187e-05,5.47234e-05,3.93235e-05,1.40383e-05
293,2.88967e-06,2.8204e-05,4.29386e-05,4.72649e-05,4.22648e-05,1.59651e-05
294,2.25081e-06,2.48058e-05,4.25189e-05,4.4071e-05,4.35768e-05,1.76296e-05
295,4.65186e-06,2.0287e-05,4.10765e-05,4.30847e-05,4.23722e-05,1.86586e-05
296,1.02966e-05,1.78026e-05,3.84417e-05,4.3999e-05,4.08715e-05,1.9748e-05
297,8.84547e-06,1.4673e-05,3.4586e-05,4.73184e-05,4.22241e-05,2.04031e-05
298,-5.6441e-06,7.08562e-06,2.93025e-05,4.93818e-05,4.32153e-05,1.91406e-05
299,-1.74469e-05,-4.16755e-06,2.6575e-05,4.95277e-05,3.70713e-05,1.76282e-05
300,-1.30017e-05,-1.4094e-05,2.94696e-05,5.06229e-05,2.94201e-05,1.71963e-05
301,-1.41938e-06,-1.65619e-05,3.5716e-05,5.14621e-05,2.95885e-05,1.65887e-05
302,4.7539e-06,-1.13576e-05,3.99498e-05,5.00473e-05,3.5494e-05,1.62592e-05
303,1.51987e-06,-5.12805e-06,3.95079e-05,4.81266e-05,3.97168e-05,1.57655e-05
304,-8.34155e-06,-4.8533e-06,3.72367e-05,4.85093e-05,4.0137e-05,1.42854e-05
305,-1.38722e-05,-8.59364e-06,3.84685e-05,5.12318e-05,3.62603e-05,1.48889e-05
306,-6.5251e-06,-8.53254e-06,4.32345e-05,5.33906e-05,2.98058e-05,1.91967e-05
307,5.21812e-06,-1.61926e-06,4.7011e-05,5.25639e-05,2.62277e-05,2.31986e-05
308,8.17367e-06,9.889e-06,4.87843e-05,4.95328e-05,2.68261e-05,2.36153e-05
309,3.15595e-07,2.04923e-05,4.94596e-05,4.65861e-05,2.87387e-05,2.06007e-05
310,-1.31838e-05,2.29872e-05,4.74392e-05,4.52723e-05,3.19e-05,1.55415e-05
311,-2.11761e-05,1.70305e-05,4.53235e-05,4.64373e-05,3.56037e-05,1.18649e-05
312,-1.49821e-05,1.02839e-05,4.71947e-05,4.93625e-05,3.63854e-05,1.24172e-05
313,-4.825e-06,6.92333e-06,4.92968e-05,5.15775e-05,3.39189e-05,1.38203e-05
314,-3.92209e-06,6.96894e-06,4.75924e-05,4.9898e-05,3.18773e-05,1.15722e-05
315,-1.06515e-05,9.81329e-06,4.37622e-05,4.38232e-05,3.20415e-05,6.3096e-06
316,-2.42925e-05,1.31127e-05,3.92965e-05,4.06048e-05,3.31593e-05,3.72999e-06
317,-3.3278e-05,1.28596e-05,3.77935e-05,4.53438e-05,3.19912e-05,9.11981e-06
318,-1.8792e-05,9.6286e-06,4.2031e-05,4.98519e-05,2.74479e-05,1.63935e-05
319,3.38709e-06,8.33055e-06,4.47152e-05,4.86352e-05,2.46483e-05,1.78655e-05
320,1.08444e-05,1.08453e-05,4.48778e-05,4.67232e-05,2.76827e-05,1.74123e-05
321,1.01703e-05,1.46683e-05,4.90926e-05,4.81011e-05,3.40122e-05,1.93785e-05
322,9.22245e-06,1.8136e-05,5.33802e-05,5.09384e-05,3.91137e-05,2.0707e-05
323,8.88398e-06,1.97877e-05,5.11464e-05,5.23687e-05,4.0805e-05,2.01272e-05
324,4.67026e-06,1.83248e-05,4.26813e-05,5.15241e-05,4.06743e-05,1.75624e-05
325,-8.45423e-06,1.40839e-05,3.60171e-05,4.95609e-05,3.94336e-05,1.31407e-05
326,-1.5201e-05,9.50329e-06,3.9308e-05,4.89577e-05,3.63314e-05,1.12268e-05
327,-2.85052e-06,7.60982e-06,4.82854e-05,5.07864e-05,3.5142e-05,1.28745e-05
328,1.47398e-05,8.12619e-06,5.28363e-05,5.17948e-05,3.80961e-05,1.46502e-05
329,2.36146e-05,9.83543e-06,5.18528e-05,4.91177e-05,4.10617e-05,1.41488e-05
330,2.25788e-05,1.11757e-05,4.92978e-05,4.71205e-05,4.17639e-05,1.2093e-05
331,1.36225e-05,1.10405e-05,4.64049e-05,5.1287e-05,4.14885e-05,1.13807e-05
332,6.23776e-06,1.27665e-05,4.44763e-05,5.86488e-05,3.80412e-05,1.37481e-05
333,1.079e-05,1.88563e-05,4.36879e-05,6.15823e-05,3.15025e-05,1.74914e-05
334,2.04625e-05,2.60181e-05,4.24286e-05,5.80421e-05,2.87225e-05,1.82089e-05
335,2.18228e-05,2.95506e-05,3.96384e-05,5.22337e-05,3.26677e-05,1.50835e-05
336,1.30429e-05,2.64643e-05,3.59434e-05,5.02915e-05,3.77092e-05,1.33408e-05
337,6.26495e-07,1.5997e-05,3.38044e-05,5.40881e-05,3.84904e-05,1.49808e-05
338,-6.08283e-06,1.93828e-06,3.45608e-05,5.7888e-05,3.43812e-05,1.70983e-05
339,-1.78512e-06,-9.41681e-06,3.59741e-05,5.5969e-05,2.89266e-05,1.86639e-05
340,5.85179e-06,-1.69832e-05,3.55117e-05,5.18581e-05,2.80125e-05,1.95733e-05
341,6.76817e-06,-2.28458e-05,3.19316e-05,5.05e-05,3.37318e-05,2.13546e-05
342,8.66597e-07,-2.67724e-05,2.56188e-05,5.02466e-05,4.05515e-05,2.42177e-05
343,-1.05213e-05,-2.67309e-05,1.98476e-05,4.93152e-05,4.18789e-05,2.06964e-05
344,-1.99332e-05,-2.06025e-05,1.86664e-05,4.90228e-05,3.62273e-05,1.04798e-05
345,-1.51979e-05,-1.05658e-05,2.17571e-05,4.90297e-05,2.78144e-05,5.50026e-06
346,-4.89544e-06,-1.16351e-06,2.19815e-05,4.66542e-05,2.41315e-05,9.9392e-06
347,-7.38064e-07,7.72185e-06,1.82178e-05,4.67644e-05,2.74884e-05,1.72822e-05
348,2.29209e-06,1.59057e-05,1.72578e-05,5.33788e-05,3.18427e-05,2.14775e-05
349,5.32307e-06,2.37703e-05,1.92981e-05,5.87887e-05,3.11925e-05,2.21369e-05
350,3.38774e-06,3.47802e-05,2.14223e-05,5.73596e-05,2.91429e-05,2.08232e-05
351,-8.08752e-06,4.52397e-05,2.27676e-05,5.22465e-05,2.99036e-05,1.56239e-05
352,-2.5448e-05,4.60642e-05,2.26431e-05,4.99252e-05,2.95568e-05,7.33351e-06
353,-3.08228e-05,3.83391e-05,2.23405e-05,5.22438e-05,2.54549e-05,3.77455e-06
354,-1.63682e-05,2.93283e-05,2.27813e-05,5.52438e-05,2.2031e-05,6.68382e-06
355,2.52357e-06,2.12681e-05,2.24991e-05,5.3531e-05,2.29882e-05,9.75648e-06
356,1.16239e-05,1.42699e-05,2.15288e-05,4.84913e-05,2.47653e-05,1.135e-05
357,8.02437e-06,8.05323e-06,2.18676e-05,4.60028e-05,2.46061e-05,1.18827e-05
358,-3.6938e-06,1.36239e-06,2.38857e-05,4.67696e-05,2.35734e-05,1.00208e-05
359,-1.11226e-05,-3.34858e-06,2.69425e-05,4.86515e-05,2.10965e-05,9.07992e-06
360,-5.65037e-06,-2.44583e-06,3.08912e-05,5.07159e-05,1.74152e-05,1.2861e-05
361,5.9843e-06,2.8568e-06,3.46654e-05,5.26149e-05,1.64475e-05,1.72955e-05
362,1.11539e-05,1.0648e-05,3.69869e-05,5.20593e-05,1.91268e-05,1.88051e-05
363,4.24196e-06,1.99532e-05,3.8063e-05,4.75984e-05,2.20479e-05,1.92607e-05
364,-1.16108e-05,2.80154e-05,3.84521e-05,4.30573e-05,2.4054e-05,1.92741e-05
365,-2.13677e-05,3.38616e-05,3.98793e-05,4.34158e-05,2.51959e-05,1.89138e-05
366,-1.16767e-05,4.04091e-05,4.29744e-05,4.73998e-05,2.45447e-05,1.97831e-05
367,7.0443e-06,4.8014e-05,4.32229e-05,4.92428e-05,2.50059e-05,2.19267e-05
368,1.39262e-05,5.46721e-05,3.90876e-05,4.56548e-05,2.96915e-05,2.39216e-05
369,4.52601e-06,5.89638e-05,3.521e-05,4.21713e-05,3.42671e-05,2.38917e-05
370,-1.42155e-05,5.70201e-05,3.53902e-05,4.44036e-05,3.38677e-05,1.96892e-05
371,-2.7676e-05,4.73903e-05,3.95649e-05,4.75367e-05,2.88936e-05,1.399e-05
372,-2.02073e-05,3.52951e-05,4.27941e-05,4.70324e-05,2.34041e-05,1.41571e-05
373,-4.85494e-06,2.49956e-05,4.28346e-05,4.49029e-05,2.33081e-05,1.63491e-05
374,1.49781e-06,1.31561e-05,4.48476e-05,4.30844e-05,2.90579e-05,1.44326e-05
375,4.52383e-06,-3.69065e-06,4.95217e-05,4.29186e-05,3.51067e-05,1.27346e-05
376,6.63856e-06,-1.91539e-05,4.93405e-05,4.42556e-05,3.86737e-05,1.271e-05
377,6.23858e-06,-2.52562e-05,4.42041e-05,4.44047e-05,3.85123e-05,1.17348e-05
378,1.01174e-07,-2.2128e-05,4.00807e-05,4.24941e-05,3.46501e-05,7.79757e-06
379,-1.18254e-05,-1.59893e-05,3.92061e-05,4.28257e-05,2.98088e-05,4.13551e-06
380,-1.6229e-05,-9.6704e-06,4.25129e-05,4.75494e-05,2.45638e-05,5.4945e-06
381,-5.9225e-06,-2.37462e-06,4.62223e-05,5.29633e-05,1.96161e-05,1.15653e-05
382,6.23931e-06,6.14634e-06,4.58233e-05,5.66546e-05,1.94865e-05,1.87792e-05
383,7.65158e-06,1.5907e-05,4.37513e-05,5.87399e-05,2.35147e-05,2.32673e-05
384,-9.57776e-07,2.53281e-05,4.20653e-05,5.98117e-05,2.64787e-05,2.07539e-05
385,-1.35601e-05,3.05089e-05,4.02253e-05,5.89215e-05,2.58678e-05,1.25007e-05
386,-2.09892e-05,3.15264e-05,4.04134e-05,5.57877e-05,2.18327e-05,5.97093e-06
387,-1.69343e-05,3.33685e-05,4.43378e-05,5.32151e-05,1.89346e-05,3.86036e-06
388,-7.3284e-06,3.86843e-05,4.91051e-05,5.35134e-05,2.17808e-05,3.1151e-06
389,-2.52452e-06,4.43477e-05,5.16374e-05,5.52976e-05,2.67001e-05,1.52945e-06
390,-6.99631e-06,4.50948e-05,5.04172e-05,5.60226e-05,2.70962e-05,1.29718e-07
391,-1.94217e-05,3.90367e-05,4.47419e-05,5.5394e-05,2.39294e-05,-1.13018e-06
392,-2.79017e-05,2.96104e-05,3.90364e-05,5.55581e-05,2.11293e-05,-1.73236e-06
393,-1.9958e-05,2.45654e-05,3.93733e-05,5.78861e-05,1.82863e-05,5.5508e-07
394,-3.781e-06,2.64301e-05,4.52365e-05,6.13588e-05,1.4996e-05,4.1192e-06
395,3.48205e-06,3.11898e-05,5.08699e-05,6.39223e-05,1.40802e-05,5.92313e-06
396,-2.94053e-06,3.45764e-05,5.11263e-05,6.32503e-05,1.49798e-05,6.01993e-06
397,-1.98903e-05,3.26414e-05,4.59291e-05,6.00277e-05,1.51803e-05,4.11558e-06
398,-3.33875e-05,2.68924e-05,4.10569e-05,5.719e-05,1.38888e-05,9.41369e-07
399,-2.65908e-05,2.60967e-05,4.16971e-05,5.34898e-05,1.00204e-05,1.88841e-06
400,-1.05032e-05,3.2234e-05,4.4924e-05,4.91235e-05,8.26564e-06,7.66481e-06
401,-2.30411e-06,3.90104e-05,4.60955e-05,4.85881e-05,1.32734e-05,1.09627e-05
402,7.2835e-07,4.31998e-05,4.61741e-05,5.06381e-05,1.94952e-05,1.13566e-05
403,1.3507e-06,5.15558e-05,4.57357e-05,5.02343e-05,2.09951e-05,1.41794e-05
404,1.15273e-07,6.39864e-05,4.49743e-05,4.78034e-05,1.90401e-05,1.81239e-05
405,-5.33575e-06,6.27693e-05,4.37883e-05,4.77679e-05,2.03204e-05,1.61214e-05
406,-1.66075e-05,3.79482e-05,4.1866e-05,5.20375e-05,2.38148e-05,1.0273e-05
407,-1.97109e-05,3.89408e-06,4.04261e-05,5.85244e-05,2.31081e-05,1.18005e-05
408,-5.98665e-06,-1.93615e-05,4.05458e-05,6.29175e-05,2.17401e-05,2.12833e-05
409,9.60222e-06,-2.86071e-05,4.12289e-05,6.32504e-05,2.63104e-05,2.89108e-05
410,1.18683e-05,-3.12767e-05,4.13613e-05,6.2042e-05,3.32021e-05,3.10839e-05
411,9.53052e-07,-3.2728e-05,4.03064e-05,6.1964e-05,3.5351e-05,3.06928e-05
412,-1.27916e-05,-3.35217e-05,3.89481e-05,6.23797e-05,3.35863e-05,2.66681e-05
413,-1.63643e-05,-3.02235e-05,4.04977e-05,6.11889e-05,3.22839e-05,1.92116e-05
414,-5.56586e-06,-1.76217e-05,4.43185e-05,5.8954e-05,3.33917e-05,1.58727e-05
415,9.48038e-06,6.11194e-06,4.55047e-05,5.82237e-05,3.68118e-05,2.14473e-05
416,1.68224e-05,3.49209e-05,4.26282e-05,5.7458e-05,4.05905e-05,3.12775e-05
417,1.41168e-05,5.56751e-05,3.91719e-05,5.51212e-05,4.14867e-05,3.65811e-05
418,5.7805e-06,5.93802e-05,3.6983e-05,5.45361e-05,3.85045e-05,3.24984e-05
419,1.28717e-06,4.99358e-05,3.67699e-05,5.56663e-05,3.30827e-05,2.26211e-05
420,7.35483e-06,3.81805e-05,3.7528e-05,5.5015e-05,2.84021e-05,1.5494e-05
421,1.66844e-05,3.11552e-05,3.58015e-05,5.3728e-05,2.70574e-05,1.3933e-05
422,1.76627e-05,3.00392e-05,3.1667e-05,5.3747e-05,2.82856e-05,1.26736e-05
423,9.03751e-06,3.34276e-05,2.80636e-05,5.27214e-05,3.00673e-05,9.94006e-06
424,-7.47018e-06,3.61382e-05,2.39445e-05,5.16279e-05,3.32308e-05,7.60635e-06
425,-2.13172e-05,3.43301e-05,2.11334e-05,5.30917e-05,3.52508e-05,8.45296e-06
426,-1.50219e-05,3.01284e-05,2.37284e-05,5.63153e-05,3.10477e-05,1.28353e-05
427,-4.36948e-07,2.72325e-05,2.83945e-05,5.82705e-05,2.49707e-05,1.68424e-05
428,3.12677e-06,2.7292e-05,3.13684e-05,5.83699e-05,2.45432e-05,1.93059e-05
429,3.10938e-06,2.7997e-05,3.39193e-05,5.85864e-05,2.89636e-05,1.84039e-05
430,4.50961e-06,2.7877e-05,3.57352e-05,5.56902e-05,3.27745e-05,1.43866e-05
431,3.14673e-06,2.94374e-05,3.46059e-05,5.03558e-05,3.40632e-05,1.20565e-05
432,-4.96907e-06,3.08906e-05,3.01281e-05,4.82018e-05,3.50137e-05,9.75196e-06
433,-1.92027e-05,2.95627e-05,2.60113e-05,5.22288e-05,3.50567e-05,5.78885e-06
434,-2.51806e-05,2.81784e-05,2.80098e-05,5.92789e-05,3.21307e-05,5.28295e-06
435,-1.40538e-05,2.73275e-05,3.31545e-05,6.26446e-05,2.85716e-05,9.39637e-06
436,6.56155e-08,2.67733e-05,3.51823e-05,6.14473e-05,2.84154e-05,1.29214e-05
437,2.71114e-06,2.78597e-05,3.53909e-05,5.88067e-05,3.06635e-05,1.18388e-05
438,-7.36452e-06,2.65421e-05,3.61807e-05,5.64504e-05,3.18453e-05,8.2101e-06
439,-2.28312e-05,1.53407e-05,3.59145e-05,5.50721e-05,3.03709e-05,6.5884e-06
440,-2.89808e-05,-3.94808e-06,3.55872e-05,5.47727e-05,2.56695e-05,9.07831e-06
441,-1.88159e-05,-2.18958e-05,3.82327e-05,5.37176e-05,2.01403e-05,1.48995e-05
442,-4.52363e-06,-3.25164e-05,4.22359e-05,5.24199e-05,1.94126e-05,1.97634e-05
443,6.55376e-09,-3.36139e-05,4.27967e-05,5.17941e-05,2.4095e-05,1.98244e-05
444,-6.73102e-06,-2.7491e-05,3.92339e-05,5.0862e-05,2.76179e-05,1.63345e-05
445,-2.01765e-05,-2.12761e-05,3.73318e-05,4.9401e-05,2.6817e-05,1.32289e-05
446,-2.8513e-05,-1.61862e-05,4.10097e-05,4.81159e-05,2.39174e-05,1.39109e-05
447,-2.15935e-05,-5.2678e-06,4.65637e-05,4.76768e-05,2.22327e-05,1.71175e-05
448,-8.32328e-06,1.29986e-05,4.7618e-05,4.86493e-05,2.48481e-05,1.7557e-05
449,-4.123e-06,3.05598e-05,4.34187e-05,4.98912e-05,2.99453e-05,1.42396e-05
450,-1.02616e-05,4.15867e-05,3.76487e-05,4.85709e-05,3.3303e-05,9.64829e-06
451,-2.38271e-05,4.67293e-05,3.24055e-05,4.48981e-05,3.52012e-05,4.62034e-06
452,-3.64361e-05,4.95746e-05,2.82907e-05,4.40097e-05,3.43466e-05,1.6562e-06
453,-3.11188e-05,5.58698e-05,2.95629e-05,4.95108e-05,2.80559e-05,5.99928e-06
454,-1.69271e-05,6.35719e-05,3.5554e-05,5.28357e-05,2.25151e-05,1.42061e-05
455,-1.13607e-05,6.19394e-05,3.82024e-05,4.94571e-05,2.51271e-05,1.8702e-05
456,-7.87593e-06,4.53183e-05,3.73822e-05,4.93023e-05,3.00818e-05,2.27668e-05
457,-2.65247e-06,2.20343e-05,3.68085e-05,5.3403e-05,3.05015e-05,2.76742e-05
458,-2.31748e-07,4.3328e-06,3.67659e-05,5.36577e-05,2.68791e-05,2.87506e-05
459,-6.90433e-06,-7.27525e-06,3.63795e-05,5.06997e-05,2.33195e-05,2.43613e-05
460,-2.21573e-05,-1.72101e-05,3.83627e-05,5.22297e-05,2.26389e-05,1.83194e-05
461,-3.01571e-05,-2.32562e-05,4.54774e-05,5.68441e-05,2.16669e-05,1.76865e-05
462,-2.1915e-05,-2.49259e-05,5.27617e-05,5.84029e-05,2.03945e-05,2.13847e-05
463,-9.731e-06,-2.63312e-05,5.43521e-05,5.6351e-05,2.24151e-05,2.11695e-05
464,-5.71113e-06,-2.40411e-05,5.14779e-05,5.20694e-05,2.56889e-05,1.54931e-05
465,-1.09539e-05,-1.36791e-05,4.82566e-05,4.66071e-05,2.77561e-05,9.48775e-06
466,-2.1929e-05,-1.7891e-06,4.67775e-05,4.06459e-05,2.95986e-05,6.89313e-06
467,-2.65545e-05,3.73675e-06,4.68518e-05,3.72848e-05,2.94909e-05,7.76486e-06
468,-1.53152e-05,3.82968e-06,4.51273e-05,3.93297e-05,2.56688e-05,9.36302e-06
469,1.77519e-06,5.20316e-06,3.97594e-05,4.45682e-05,2.1345e-05,8.92483e-06
470,8.50623e-06,1.40185e-05,3.50038e-05,4.82477e-05,2.04028e-05,4.99302e-06
471,7.95162e-07,2.87091e-05,3.53034e-05,5.08779e-05,2.21139e-05,-2.05085e-06
472,-1.56907e-05,3.92491e-05,3.86078e-05,5.48798e-05,2.25841e-05,-9.00429e-06
473,-2.62271e-05,4.0391e-05,4.26325e-05,5.68067e-05,1.92548e-05,-9.53156e-06
474,-1.8952e-05,3.68729e-05,4.58878e-05,5.25377e-05,1.54055e-05,-1.4358e-06
475,-3.21297e-06,3.26704e-05,4.4639e-05,4.48242e-05,1.73031e-05,7.81051e-06
476,4.77727e-06,2.68045e-05,4.15055e-05,3.96102e-05,2.31604e-05,1.091e-05
477,3.76533e-07,2.01486e-05,4.09101e-05,3.88655e-05,2.57976e-05,1.1049e-05
478,-1.41575e-05,1.60717e-05,4.03425e-05,3.95691e-05,2.51525e-05,1.23676e-05
479,-2.54517e-05,1.33717e-05,3.89136e-05,3.89064e-05,2.25884e-05,1.37866e-05
480,-1.66035e-05,1.01358e-05,4.00314e-05,3.80898e-05,1.95e-05,1.82815e-05
481,1.21247e-06,8.85055e-06,4.4443e-05,3.91968e-05,2.15509e-05,2.66869e-05
482,8.13102e-06,8.34848e-06,4.96153e-05,4.04024e-05,3.01113e-05,3.30247e-05
483,6.2575e-06,5.99069e-06,5.32176e-05,4.1737e-05,3.87403e-05,3.5253e-05
484,2.68072e-06,3.42417e-06,5.34713e-05,4.50767e-05,4.24229e-05,3.54272e-05
485,9.22396e-07,2.66491e-06,5.15997e-05,4.76432e-05,4.12495e-05,3.68384e-05
486,-3.32736e-06,5.49424e-06,4.87554e-05,4.82574e-05,3.75176e-05,3.91506e-05
487,-1.37077e-05,9.76362e-06,4.48977e-05,4.93065e-05,3.48035e-05,3.69002e-05
488,-1.87368e-05,1.32673e-05,4.24436e-05,5.0204e-05,3.24173e-05,3.24473e-05
489,-9.16889e-06,1.62885e-05,4.27219e-05,4.96852e-05,2.86412e-05,3.34459e-05
490,4.58992e-06,1.8166e-05,4.34948e-05,4.87149e-05,2.6577e-05,3.82858e-05
491,9.85334e-06,1.77813e-05,4.22859e-05,4.76505e-05,2.77426e-05,4.01786e-05
492,3.28061e-06,1.35747e-05,3.81794e-05,4.75777e-05,3.0092e-05,3.56736e-05
493,-1.05004e-05,4.54495e-06,3.22549e-05,4.98148e-05,3.21941e-05,2.69789e-05
494,-1.83637e-05,-4.77482e-06,2.9025e-05,5.19232e-05,3.18545e-05,2.07004e-05
495,-1.105e-05,-6.27528e-06,3.1185e-05,5.08702e-05,2.87677e-05,2.00093e-05
496,4.51194e-06,1.51891e-06,3.45848e-05,4.84701e-05,2.8469e-05,2.27637e-05
497,1.46289e-05,1.19049e-05,3.45549e-05,4.76164e-05,3.37988e-05,2.72714e-05
498,1.33173e-05,1.6371e-05,3.16439e-05,4.79027e-05,3.94818e-05,3.1132e-05
499,1.07562e-06,1.1288e-05,2.76341e-05,4.83304e-05,4.08955e-05,2.93432e-05
500,-9.99426e-06,-1.58612e-07,2.50787e-05,4.88753e-05,3.83248e-05,2.32888e-05
501,-5.46999e-06,-1.16107e-05,2.50232e-05,4.69115e-05,3.50395e-05,2.07606e-05
502,7.26285e-06,-1.82953e-05,2.58082e-05,4.35809e-05,3.59595e-05,2.18694e-05
503,1.03996e-05,-1.80709e-05,2.63293e-05,4.38858e-05,4.03611e-05,2.18136e-05
504,2.86499e-06,-1.31601e-05,2.60077e-05,4.66077e-05,4.24611e-05,2.0545e-05
505,-1.0385e-05,-7.84157e-06,2.45734e-05,4.89032e-05,4.05727e-05,1.79014e-05
506,-2.09251e-05,-2.92438e-06,2.55806e-05,4.96811e-05,3.54614e-05,1.26317e-05
507,-1.2441e-05,5.29509e-06,3.15604e-05,5.04586e-05,2.80327e-05,6.80682e-06
508,6.34325e-06,1.26509e-05,3.63726e-05,5.27903e-05,2.13537e-05,5.7424e-06
509,1.6064e-05,9.02979e-06,3.70738e-05,5.47415e-05,2.04833e-05,9.86129e-06
510,1.77947e-05,1.92987e-06,3.70875e-05,5.82237e-05,2.65165e-05,1.42998e-05
511,1.57986e-05,7.00237e-06,3.57418e-05,6.18459e-05,3.43785e-05,1.62627e-05
512,1.46928e-05,2.12374e-05,3.09814e-05,6.00825e-05,3.84584e-05,1.6053e-05
513,9.92417e-06,3.04179e-05,2.48919e-05,5.53327e-05,3.71709e-05,1.36762e-05
514,-3.38756e-06,2.47841e-05,2.13123e-05,5.40919e-05,3.40896e-05,8.25231e-06
515,-9.55202e-06,6.10272e-06,2.22101e-05,5.60261e-05,3.00035e-05,3.60666e-06
516,1.52547e-06,-1.35446e-05,2.57042e-05,5.62318e-05,2.67312e-05,3.57579e-06
517,1.47221e-05,-2.44103e-05,2.74077e-05,5.34e-05,2.88897e-05,6.31168e-06
518,1.69466e-05,-2.4782e-05,2.61484e-05,5.05921e-05,3.44163e-05,8.76808e-06
519,9.40878e-06,-2.15531e-05,2.3515e-05,5.1124e-05,3.86434e-05,8.08287e-06
520,-2.87947e-06,-2.30169e-05,2.10848e-05,5.40201e-05,3.89805e-05,2.83423e-06
521,-1.00119e-05,-2.79808e-05,2.12062e-05,5.64144e-05,3.33646e-05,-3.24461e-06
522,-5.02998e-06,-2.96714e-05,2.47205e-05,5.60608e-05,2.38117e-05,-5.52151e-06
523,4.80067e-06,-2.36339e-05,2.85883e-05,5.29592e-05,1.90182e-05,-4.44706e-06
524,7.46913e-06,-9.32359e-06,3.01676e-05,4.93941e-05,2.37617e-05,-2.92119e-06
525,-1.62733e-07,8.05446e-06,3.01204e-05,4.78291e-05,3.28609e-05,-1.68965e-06
526,-1.3309e-05,1.89237e-05,2.91394e-05,4.81748e-05,3.88869e-05,-2.69256e-07
527,-1.89529e-05,2.0958e-05,2.8688e-05,5.0022e-05,3.83899e-05,9.28129e-07
528,-7.53631e-06,2.14931e-05,3.12032e-05,5.42956e-05,3.36087e-05,1.93629e-06
529,1.06006e-05,2.37022e-05,3.50156e-05,5.92563e-05,3.24144e-05,3.09794e-06
530,1.76633e-05,2.58998e-05,3.58234e-05,6.13222e-05,3.70056e-05,4.50996e-06
531,1.08067e-05,2.99385e-05,3.40566e-05,6.04435e-05,4.00439e-05,6.52675e-06
532,-6.61643e-06,3.65294e-05,3.25131e-05,5.92514e-05,3.73902e-05,7.73901e-06
533,-2.0777e-05,4.22131e-05,3.18905e-05,5.92623e-05,3.00489e-05,7.889e-06
534,-1.35654e-05,4.46578e-05,3.12523e-05,5.8643e-05,2.05244e-05,9.81742e-06
535,1.80544e-06,4.18775e-05,2.99308e-05,5.52407e-05,1.45005e-05,1.08379e-05
536,6.1407e-06,3.51569e-05,2.92276e-05,5.33783e-05,1.53936e-05,9.46524e-06
537,3.42383e-06,3.02825e-05,2.89267e-05,5.44313e-05,1.93355e-05,1.12224e-05
538,9.58115e-07,3.21367e-05,2.88381e-05,5.51279e-05,2.28141e-05,1.62668e-05
539,3.90831e-07,4.05422e-05,3.20215e-05,5.61478e-05,2.57849e-05,1.99405e-05
540,-5.12298e-06,4.92265e-05,3.71293e-05,5.72128e-05,2.80696e-05,1.71524e-05
541,-1.94923e-05,5.07126e-05,3.88539e-05,5.64572e-05,2.7163e-05,9.81838e-06
542,-2.79668e-05,4.34169e-05,3.88718e-05,5.50789e-05,2.11807e-05,7.29619e-06
543,-1.98306e-05,3.01955e-05,4.12421e-05,5.38686e-05,1.42482e-05,1.08576e-05
544,-6.56603e-06,1.54002e-05,4.44078e-05,5.04891e-05,1.32962e-05,1.35191e-05
545,-1.29391e-06,3.70842e-06,4.51413e-05,4.50962e-05,1.94818e-05,1.34076e-05
546,-7.68261e-06,-3.77253e-06,4.33345e-05,4.12658e-05,2.70374e-05,1.30999e-05
547,-2.20369e-05,-8.90917e-06,4.20689e-05,4.14527e-05,3.13713e-05,1.2258e-05
548,-3.1595e-05,-1.06866e-05,4.43345e-05,4.48701e-05,3.19737e-05,1.16593e-05
549,-2.60034e-05,-8.41224e-06,4.78771e-05,4.89179e-05,3.00148e-05,1.61319e-05
550,-1.1266e-05,-6.66842e-06,4.65074e-05,5.07632e-05,2.9351e-05,2.57549e-05
551,-1.01688e-06,-8.03574e-06,3.87008e-05,4.99521e-05,3.21015e-05,3.24055e-05
552,-3.59529e-06,-9.15092e-06,2.89795e-05,4.98562e-05,3.46993e-05,3.08922e-05
553,-1.92831e-05,-8.62229e-06,2.2334e-05,5.33157e-05,3.49178e-05,2.49709e-05
554,-3.31324e-05,-9.71129e-06,2.17196e-05,5.78714e-05,3.3185e-05,2.18974e-05
555,-2.80601e-05,-1.27086e-05,2.67125e-05,5.96183e-05,3.04796e-05,2.19513e-05
556,-1.01818e-05,-1.43983e-05,3.07269e-05,5.96993e-05,3.13071e-05,2.11961e-05
557,2.02005e-06,-9.90517e-06,2.9416e-05,5.91321e-05,3.58981e-05,2.18871e-05
558,1.55215e-06,2.82602e-06,2.6395e-05,5.72414e-05,3.72294e-05,2.41763e-05
559,-1.04116e-05,1.73196e-05,2.39013e-05,5.58407e-05,3.34356e-05,2.21926e-05
560,-2.17604e-05,2.64524e-05,2.24826e-05,5.52127e-05,2.48181e-05,1.58241e-05
561,-1.68321e-05,3.56082e-05,2.50475e-05,5.40746e-05,1.36483e-05,1.1433e-05
562,-6.06838e-06,4.86256e-05,2.97192e-05,5.19957e-05,8.99335e-06,1.1208e-05
563,-3.14986e-06,5.729e-05,3.25535e-05,5.12879e-05,1.2379e-05,1.05501e-05
564,-1.59319e-06,5.50378e-05,3.56325e-05,5.30117e-05,1.7534e-05,7.0348e-06
565,1.22926e-06,4.24434e-05,4.07672e-05,5.47617e-05,2.1571e-05,4.72026e-06
566,2.0376e-06,2.61817e-05,4.341e-05,5.53916e-05,2.50046e-05,7.81886e-06
567,-4.12806e-06,1.16595e-05,4.04652e-05,5.49694e-05,2.76739e-05,1.32075e-05
568,-1.76826e-05,-8.49832e-08,3.5691e-05,5.52504e-05,2.6824e-05,1.48006e-05
569,-2.42503e-05,-8.47342e-06,3.48527e-05,5.4857e-05,2.11931e-05,1.44408e-05
570,-1.3616e-05,-1.48519e-05,3.77486e-05,5.25592e-05,1.71009e-05,1.7064e-05
571,2.05314e-06,-2.07427e-05,3.81929e-05,4.91313e-05,2.14813e-05,1.88178e-05
572,7.9302e-06,-2.21052e-05,3.47374e-05,4.62292e-05,3.08489e-05,1.56498e-05
573,1.00752e-06,-1.4552e-05,3.08408e-05,4.68215e-05,3.9e-05,1.0633e-05
574,-1.25612e-05,-2.78565e-06,3.00762e-05,5.26763e-05,4.32496e-05,6.8927e-06
575,-1.9469e-05,5.05125e-06,3.3743e-05,6.0614e-05,4.14267e-05,5.4332e-06
576,-1.22847e-05,6.18265e-06,3.93248e-05,6.42597e-05,3.53257e-05,7.01777e-06
577,8.53664e-07,5.43793e-06,4.30735e-05,6.25855e-05,3.21856e-05,1.14171e-05
578,7.21455e-06,9.11779e-06,4.45581e-05,5.8116e-05,3.50972e-05,1.57267e-05
579,1.99655e-06,1.57813e-05,4.47644e-05,5.23928e-05,3.93632e-05,1.87643e-05
580,-1.14449e-05,1.70208e-05,4.19514e-05,4.86508e-05,3.95568e-05,2.22386e-05
581,-2.07443e-05,1.22557e-05,3.73585e-05,5.17331e-05,3.41669e-05,2.5075e-05
582,-1.44706e-05,1.27921e-05,3.44073e-05,5.8434e-05,2.67159e-05,2.57098e-05
583,8.54701e-07,2.37374e-05,3.33794e-05,5.98822e-05,2.49133e-05,2.58835e-05
584,9.37246e-06,3.77283e-05,3.42866e-05,5.48444e-05,2.97798e-05,2.57328e-05
585,5.25276e-06,4.60886e-05,3.52754e-05,4.98219e-05,3.31424e-05,2.34715e-05
586,-1.11531e-05,4.30895e-05,3.22408e-05,5.15656e-05,3.37557e-05,1.86306e-05
587,-2.59872e-05,3.06425e-05,2.78147e-05,5.92266e-05,3.40743e-05,1.40422e-05
588,-1.94832e-05,1.91621e-05,2.87473e-05,6.34551e-05,3.406e-05,1.46484e-05
589,-4.21933e-06,1.30721e-05,3.24657e-05,6.206e-05,3.79244e-05,1.86697e-05
590,6.90618e-08,1.02605e-05,3.41416e-05,6.07762e-05,4.34918e-05,1.93818e-05
591,9.52125e-07,9.84842e-06,3.48421e-05,6.00824e-05,4.15173e-05,1.79264e-05
592,4.03816e-06,1.0783e-05,3.68315e-05,5.72521e-05,3.40951e-05,1.8315e-05
593,5.41691e-06,9.62775e-06,3.96273e-05,5.42421e-05,2.93838e-05,1.99619e-05
594,1.84737e-07,8.22501e-06,3.99209e-05,5.43911e-05,2.95332e-05,2.03742e-05
595,-1.19336e-05,1.31838e-05,3.85236e-05,5.67357e-05,3.30595e-05,1.82417e-05
596,-1.69553e-05,2.49833e-05,3.76218e-05,5.67829e-05,3.60912e-05,1.56526e-05
597,-7.5811e-06,3.36892e-05,3.81623e-05,5.4162e-05,3.55812e-05,1.5223e-05
598,4.8057e-06,2.96017e-05,4.00859e-05,5.01544e-05,3.4015e-05,1.71069e-05
599,1.09274e-05,1.636e-05,4.13827e-05,4.60923e-05,3.43447e-05,1.99085e-05
600,7.74756e-06,4.60887e-06,4.09055e-05,4.52497e-05,3.58429e-05,2.13956e-05
601,-3.51539e-06,-2.15739e-06,3.99887e-05,4.76226e-05,3.59638e-05,2.0033e-05
602,-1.16534e-05,-8.72541e-06,4.0569e-05,5.00441e-05,3.24066e-05,1.81002e-05
603,-8.20723e-06,-1.96894e-05,4.29846e-05,5.07358e-05,2.70795e-05,1.9064e-05
604,-4.29705e-07,-3.40365e-05,4.57759e-05,5.13402e-05,2.59042e-05,2.13919e-05
605,7.83497e-07,-4.30289e-05,4.58741e-05,5.17473e-05,3.07998e-05,1.99466e-05
606,-5.74915e-06,-3.83902e-05,4.28179e-05,5.01613e-05,3.55315e-05,1.47263e-05
607,-1.68369e-05,-2.51906e-05,3.932e-05,4.75335e-05,3.40912e-05,1.03884e-05
608,-2.27463e-05,-1.46473e-05,3.74159e-05,4.67094e-05,2.76501e-05,9.56846e-06
609,-1.33303e-05,-7.87044e-06,3.79324e-05,4.76189e-05,2.19002e-05,1.07279e-05
610,1.31675e-06,-1.19628e-06,4.0121e-05,4.83643e-05,2.20421e-05,1.12761e-05
611,4.09087e-06,4.70991e-06,4.14177e-05,4.63241e-05,2.67253e-05,1.15538e-05
612,-5.49914e-06,9.13373e-06,3.97294e-05,4.34382e-05,2.97052e-05,1.26004e-05
613,-2.15542e-05,1.28034e-05,3.61987e-05,4.499e-05,2.78563e-05,1.41894e-05
614,-3.17728e-05,1.56513e-05,3.31966e-05,4.97661e-05,2.3082e-05,1.54556e-05
615,-2.1242e-05,2.23703e-05,3.18857e-05,5.31691e-05,2.04694e-05,1.48233e-05
616,-4.41342e-06,3.8632e-05,3.34244e-05,5.25201e-05,2.41549e-05,1.284e-05
617,-8.19641e-07,5.72431e-05,3.81322e-05,4.89792e-05,3.22195e-05,1.34047e-05
618,-3.81429e-06,6.54203e-05,4.4255e-05,4.56861e-05,3.73603e-05,1.74267e-05
619,-3.64162e-06,6.56679e-05,4.69845e-05,4.35871e-05,3.72566e-05,1.91087e-05
620,4.49832e-07,6.56278e-05,4.24362e-05,4.26079e-05,3.53271e-05,1.41079e-05
621,-9.55539e-07,6.35315e-05,3.19752e-05,4.24544e-05,3.33533e-05,4.73362e-06
622,-1.13604e-05,5.6575e-05,2.26269e-05,4.32997e-05,3.0481e-05,-4.37147e-06
623,-1.63304e-05,4.61387e-05,2.25892e-05,4.49376e-05,2.48031e-05,-7.17218e-06
624,-7.12967e-06,3.47601e-05,3.17822e-05,4.60643e-05,1.953e-05,-1.12842e-06
625,4.52944e-06,2.62777e-05,4.10993e-05,4.6429e-05,1.94265e-05,7.13776e-06
626,6.68966e-06,2.52015e-05,4.3103e-05,4.71587e-05,2.12744e-05,1.26361e-05
627,-2.41129e-06,2.88984e-05,3.90663e-05,4.94854e-05,2.06371e-05,1.66545e-05
628,-1.75943e-05,3.02768e-05,3.55533e-05,5.34321e-05,1.88345e-05,1.92066e-05
629,-2.57583e-05,2.65374e-05,3.70311e-05,5.62071e-05,1.7282e-05,1.93266e-05
630,-1.95863e-05,1.93522e-05,4.13235e-05,5.55208e-05,1.51618e-05,2.01915e-05
631,-7.26677e-06,1.05281e-05,4.3159e-05,5.35426e-05,1.43818e-05,2.48658e-05
632,1.30675e-06,6.7977e-07,4.12919e-05,5.15707e-05,1.70405e-05,2.98939e-05
633,1.85847e-06,-1.01247e-05,3.9389e-05,4.90157e-05,2.0699e-05,3.01264e-05
634,-7.91602e-06,-2.03467e-05,3.89368e-05,4.67037e-05,2.26986e-05,2.4398e-05
635,-1.77698e-05,-2.75247e-05,3.9602e-05,4.45563e-05,2.24191e-05,1.72662e-05
636,-1.30418e-05,-2.97552e-05,4.24997e-05,4.23977e-05,1.91971e-05,1.6794e-05
637,8.35066e-08,-2.57205e-05,4.54368e-05,4.0981e-05,1.58151e-05,2.26854e-05
638,4.66934e-06,-1.65068e-05,4.3227e-05,4.15897e-05,1.68966e-05,2.69474e-05
639,-2.24837e-06,-5.86623e-06,3.58845e-05,4.49237e-05,2.21406e-05,2.98712e-05
640,-1.64626e-05,1.69369e-06,2.98663e-05,4.8926e-05,2.61139e-05,3.26644e-05
641,-2.6232e-05,6.44499e-06,2.97531e-05,5.24144e-05,2.27188e-05,3.16771e-05
642,-1.43114e-05,1.22461e-05,3.4895e-05,5.46883e-05,1.46363e-05,2.95514e-05
643,5.37976e-06,1.65554e-05,3.86205e-05,5.35564e-05,1.23834e-05,2.8294e-05
644,1.08047e-05,1.99119e-05,3.77141e-05,5.20199e-05,1.74895e-05,2.75163e-05
645,8.27594e-06,3.11335e-05,3.66712e-05,5.42076e-05,2.28824e-05,2.86884e-05
646,4.76931e-06,5.09786e-05,3.87511e-05,5.67305e-05,2.6926e-05,2.84113e-05
647,2.10959e-06,7.00185e-05,4.45245e-05,5.63374e-05,2.88263e-05,2.41889e-05
648,-4.52246e-06,7.81185e-05,4.80799e-05,5.23707e-05,2.64252e-05,1.77426e-05
649,-2.05362e-05,7.00039e-05,4.63052e-05,4.89661e-05,2.0594e-05,1.06882e-05
650,-3.06341e-05,4.96343e-05,4.57082e-05,5.12778e-05,1.45542e-05,6.37367e-06
651,-2.12037e-05,2.95665e-05,4.85609e-05,5.74807e-05,1.16558e-05,7.99714e-06
652,-3.40644e-06,2.00026e-05,5.02399e-05,6.21116e-05,1.4193e-05,1.3687e-05
653,7.62406e-06,2.21946e-05,4.86064e-05,6.11144e-05,1.98921e-05,1.95595e-05
654,5.58508e-06,2.97798e-05,4.5216e-05,5.58031e-05,2.47185e-05,2.08687e-05
655,-5.88387e-06,3.29295e-05,4.23177e-05,5.20078e-05,2.72539e-05,1.49379e-05
656,-1.07196e-05,2.91123e-05,4.19687e-05,5.20247e-05,2.76942e-05,7.50519e-06
657,7.17211e-07,2.36695e-05,4.4341e-05,5.22127e-05,2.73199e-05,5.88709e-06
658,1.67022e-05,2.00022e-05,4.67084e-05,5.03318e-05,2.75194e-05,9.13556e-06
659,2.10561e-05,1.62654e-05,4.57313e-05,4.73992e-05,2.90667e-05,1.10851e-05
660,1.1282e-05,9.05419e-06,4.12197e-05,4.5356e-05,3.03157e-05,8.62474e-06
661,-5.74793e-06,-1.54223e-06,3.72047e-05,4.63819e-05,3.01838e-05,3.62091e-06
662,-1.60806e-05,-1.0585e-05,3.95996e-05,5.08032e-05,2.83972e-05,8.66591e-07
663,-8.99713e-06,-1.439e-05,4.85609e-05,5.48492e-05,2.61457e-05,2.61355e-06
664,5.79992e-06,-1.68292e-05,5.53884e-05,5.58103e-05,2.75687e-05,7.97112e-06
665,1.28271e-05,-2.03351e-05,5.47702e-05,5.54301e-05,3.2212e-05,1.42413e-05
666,1.10716e-05,-2.13349e-05,5.18038e-05,5.58526e-05,3.52675e-05,1.66019e-05
667,-7.9167e-08,-1.97266e-05,4.96959e-05,5.6869e-05,3.68772e-05,1.15219e-05
668,-1.33942e-05,-1.63925e-05,4.74707e-05,5.6543e-05,3.62193e-05,3.43011e-06
669,-7.82054e-06,-6.62603e-06,4.58489e-05,5.30097e-05,3.20355e-05,7.84243e-07
670,6.61127e-06,9.14097e-06,4.40998e-05,5.01915e-05,2.98076e-05,1.38451e-06
671,7.90906e-06,2.26942e-05,4.26802e-05,5.19383e-05,3.17014e-05,-6.00912e-07
672,5.51948e-06,3.17051e-05,4.41839e-05,5.71681e-05,3.42576e-05,-2.1208e-06
673,7.29734e-06,4.10038e-05,4.78682e-05,6.1305e-05,3.63026e-05,-1.18546e-07
674,9.5407e-06,5.31601e-05,5.00959e-05,6.02381e-05,3.70342e-05,2.94492e-06
675,5.25679e-06,6.06805e-05,4.81145e-05,5.63858e-05,3.65831e-05,2.50158e-06
676,-7.97303e-06,5.4189e-05,4.36276e-05,5.43088e-05,3.51074e-05,-2.39252e-06
677,-1.65066e-05,3.90347e-05,4.03669e-05,5.38738e-05,3.02494e-05,-5.25113e-06
678,-8.41145e-06,2.74431e-05,3.94834e-05,5.17481e-05,2.45244e-05,-3.10177e-06
679,5.92487e-06,2.45148e-05,3.90598e-05,4.84858e-05,2.65833e-05,-5.48867e-07
680,1.08501e-05,2.59195e-05,3.72248e-05,4.5774e-05,3.53836e-05,1.02142e-06
681,3.21258e-06,2.02354e-05,3.31914e-05,4.50372e-05,4.11838e-05,2.18235e-06
682,-1.12553e-05,3.70615e-06,2.88341e-05,4.83325e-05,4.17756e-05,1.43002e-06
683,-2.01914e-05,-1.2839e-05,2.94026e-05,5.48954e-05,4.09719e-05,9.54131e-07
684,-1.56139e-05,-1.80505e-05,3.50379e-05,5.96217e-05,4.06101e-05,4.97859e-06
685,-2.32616e-06,-1.13727e-05,3.83875e-05,5.96621e-05,4.20428e-05,1.15759e-05
686,8.5693e-06,-3.30777e-07,3.52895e-05,5.67436e-05,4.63967e-05,1.59181e-05
687,9.00874e-06,6.63126e-06,2.97232e-05,5.30342e-05,5.02799e-05,1.58387e-05
688,-3.17702e-06,4.10704e-06,2.71297e-05,5.13961e-05,4.85151e-05,1.17326e-05
689,-1.55349e-05,-5.1955e-06,2.95116e-05,5.30427e-05,3.98068e-05,6.93993e-06
690,-1.23129e-05,-1.25062e-05,3.29875e-05,5.52819e-05,2.85671e-05,5.86914e-06
691,5.63416e-07,-1.32846e-05,3.28509e-05,5.56765e-05,2.24599e-05,9.02276e-06
692,5.01181e-06,-9.74531e-06,3.07654e-05,5.33245e-05,2.59716e-05,1.20142e-05
693,-2.80267e-06,-6.94114e-06,2.88356e-05,4.98315e-05,3.33956e-05,1.25377e-05
694,-1.60574e-05,-9.33377e-06,2.71432e-05,5.00671e-05,3.7728e-05,1.22505e-05
695,-2.28307e-05,-1.56928e-05,2.87541e-05,5.54763e-05,3.72272e-05,1.44905e-05
696,-1.2508e-05,-1.56689e-05,3.37569e-05,6.10133e-05,3.43142e-05,2.28159e-05
697,2.46317e-06,-3.9739e-06,3.65975e-05,6.12529e-05,3.45684e-05,3.10526e-05
698,5.0135e-06,8.41914e-06,3.64407e-05,5.68484e-05,3.91586e-05,3.16874e-05
699,7.10505e-07,1.20915e-05,3.64107e-05,5.54275e-05,4.43688e-05,2.84622e-05
700,-9.46752e-07,1.09692e-05,3.68404e-05,6.03201e-05,4.73299e-05,2.81451e-05
701,-1.63633e-07,1.51934e-05,3.72102e-05,6.3601e-05,4.73104e-05,3.2658e-05
702,-5.02186e-06,2.71776e-05,3.66499e-05,6.25321e-05,4.58718e-05,3.3979e-05
703,-1.91948e-05,3.83733e-05,3.44908e-05,6.13365e-05,4.36785e-05,2.67228e-05
704,-2.71494e-05,4.45708e-05,3.17301e-05,5.94272e-05,3.90772e-05,1.89109e-05
705,-1.59285e-05,4.74474e-05,2.87149e-05,5.54815e-05,3.47037e-05,1.80749e-05
706,4.73038e-07,4.95048e-05,2.44155e-05,5.11667e-05,3.67641e-05,1.9736e-05
707,5.43089e-06,5.22111e-05,2.01007e-05,4.70679e-05,4.27677e-05,1.84902e-05
708,-1.97443e-06,5.28353e-05,1.63877e-05,4.43387e-05,4.45882e-05,1.49286e-05
709,-1.41543e-05,4.58419e-05,1.28501e-05,4.41528e-05,4.03367e-05,1.08413e-05
710,-1.90004e-05,3.05845e-05,1.20534e-05,4.48197e-05,3.30374e-05,1.00598e-05
711,-1.03322e-05,1.28411e-05,1.51429e-05,4.56102e-05,2.70899e-05,1.55045e-05
712,3.94435e-06,-2.35867e-06,1.86965e-05,4.76349e-05,2.68583e-05,2.32468e-05
713,1.18412e-05,-1.38857e-05,1.98565e-05,4.92076e-05,3.09893e-05,2.66483e-05
714,8.28656e-06,-2.21658e-05,1.94753e-05,4.7912e-05,3.3192e-05,2.31714e-05
715,-5.07124e-06,-2.79949e-05,1.96899e-05,4.49444e-05,3.28147e-05,1.55766e-05
716,-1.48908e-05,-3.06349e-05,2.24858e-05,4.11192e-05,3.30735e-05,1.25401e-05
717,-8.29915e-06,-2.6215e-05,2.72794e-05,3.73024e-05,3.27513e-05,1.96187e-05
718,6.95233e-06,-1.39818e-05,2.97044e-05,3.7126e-05,3.15159e-05,2.93971e-05
719,1.44659e-05,2.10149e-06,2.74457e-05,4.20379e-05,3.13467e-05,3.0935e-05
720,1.00264e-05,1.57599e-05,2.33561e-05,4.67279e-05,3.128e-05,2.55622e-05
721,-4.42818e-06,2.17873e-05,1.90443e-05,4.71567e-05,3.35066e-05,2.13247e-05
722,-1.58255e-05,2.35171e-05,1.74689e-05,4.46057e-05,3.76385e-05,1.91126e-05
723,-7.96978e-06,3.00527e-05,2.38304e-05,4.26312e-05,3.56511e-05,1.46323e-05
724,4.51243e-06,4.26158e-05,3.24767e-05,4.4151e-05,2.65314e-05,9.24749e-06
725,3.8783e-06,5.39196e-05,3.56176e-05,4.72473e-05,1.86395e-05,6.68834e-06
726,-1.83013e-06,5.78771e-05,3.56259e-05,5.01518e-05,1.70825e-05,6.08252e-06
727,-4.74198e-06,5.47917e-05,3.44837e-05,5.15962e-05,1.9651e-05,7.1152e-06
728,-6.57961e-06,4.89011e-05,3.33856e-05,4.88382e-05,2.41304e-05,8.65178e-06
729,-1.455e-05,4.2535e-05,3.37307e-05,4.33425e-05,3.0087e-05,7.80212e-06
730,-2.79795e-05,3.55605e-05,3.52312e-05,3.96663e-05,3.39919e-05,5.86652e-06
731,-3.08816e-05,2.93271e-05,3.89416e-05,3.92571e-05,3.31969e-05,7.34418e-06
732,-1.61422e-05,2.59173e-05,4.31854e-05,4.07524e-05,2.96186e-05,1.354e-05
733,7.3438e-07,2.4675e-05,4.32258e-05,4.16302e-05,2.76983e-05,1.93189e-05
734,5.61232e-06,2.59814e-05,3.98136e-05,4.00751e-05,2.88959e-05,1.90297e-05
735,-3.5575e-06,3.17392e-05,3.74242e-05,3.86882e-05,3.06341e-05,1.51764e-05
736,-2.00025e-05,3.75706e-05,3.75862e-05,4.14381e-05,2.95133e-05,1.45561e-05
737,-2.8462e-05,3.88982e-05,4.03657e-05,4.72163e-05,2.39084e-05,1.77038e-05
738,-2.05736e-05,3.89446e-05,4.60649e-05,5.03432e-05,1.75281e-05,1.94333e-05
739,-5.38926e-06,4.1942e-05,5.29882e-05,4.90422e-05,1.59501e-05,1.69979e-05
740,2.87954e-06,4.55228e-05,5.76582e-05,4.72474e-05,1.95126e-05,1.30421e-05
741,-7.00654e-07,4.40917e-05,5.75493e-05,4.82851e-05,2.38162e-05,9.88916e-06
742,-1.24758e-05,3.42444e-05,5.28957e-05,5.19937e-05,2.53072e-05,6.84744e-06
743,-2.12874e-05,1.63585e-05,4.90698e-05,5.53271e-05,2.20038e-05,5.21824e-06
744,-1.73998e-05,-1.36448e-06,5.07373e-05,5.49917e-05,1.52305e-05,8.299e-06
745,-6.57579e-06,-1.04112e-05,5.42068e-05,5.27484e-05,1.10212e-05,1.43965e-05
746,-1.81688e-06,-1.20518e-05,5.479e-05,5.25275e-05,1.33035e-05,1.80804e-05
747,-6.27222e-06,-1.36172e-05,5.39916e-05,5.4833e-05,1.95769e-05,1.74718e-05
748,-2.10317e-05,-2.04326e-05,5.1859e-05,5.73858e-05,2.66516e-05,1.45872e-05
749,-3.49895e-05,-3.22008e-05,4.91608e-05,5.72157e-05,2.90194e-05,1.41191e-05
750,-2.65938e-05,-4.33814e-05,4.80254e-05,5.63735e-05,2.2952e-05,1.71804e-05
751,-9.16835e-06,-4.54387e-05,4.56976e-05,5.70388e-05,1.68685e-05,1.82287e-05
752,-3.60837e-06,-3.72891e-05,4.27995e-05,5.6809e-05,2.04878e-05,1.5696e-05
753,-8.04622e-07,-2.87614e-05,4.22974e-05,5.61101e-05,3.05918e-05,1.44533e-05
754,2.84983e-06,-2.5222e-05,4.23259e-05,5.70045e-05,3.77123e-05,1.61032e-05
755,2.52861e-06,-2.1223e-05,4.09871e-05,5.80981e-05,3.85818e-05,1.74554e-05
756,-5.56397e-06,-1.24615e-05,3.78245e-05,5.74989e-05,3.68535e-05,1.55285e-05
757,-2.09585e-05,-2.43073e-06,3.36078e-05,5.78721e-05,3.48711e-05,1.24792e-05
758,-2.94927e-05,5.40818e-06,3.09227e-05,6.02563e-05,2.9034e-05,1.4608e-05
759,-2.06365e-05,8.55554e-06,3.16479e-05,6.24138e-05,2.00542e-05,2.32297e-05
760,-5.32954e-06,6.54031e-06,3.48839e-05,6.40657e-05,1.56828e-05,3.18401e-05
761,1.01171e-06,2.94311e-06,3.78407e-05,6.40857e-05,1.81867e-05,3.36238e-05
762,-5.61881e-06,-2.62656e-08,3.83489e-05,6.2495e-05,2.1499e-05,2.99507e-05
763,-1.93526e-05,-3.29739e-06,3.69055e-05,6.09234e-05,2.08175e-05,2.73713e-05
764,-2.61406e-05,-6.12048e-06,3.55824e-05,5.95449e-05,1.70963e-05,2.83019e-05
765,-1.75703e-05,-6.19983e-06,3.53938e-05,5.81629e-05,1.3676e-05,2.98594e-05
766,-2.66229e-06,-3.25603e-06,3.51414e-05,5.66161e-05,1.43332e-05,2.96875e-05
767,3.87772e-06,5.03843e-07,3.3267e-05,5.4307e-05,2.00771e-05,2.89058e-05
768,-2.93842e-06,1.39005e-06,2.98203e-05,5.21248e-05,2.69536e-05,2.98442e-05
769,-1.80361e-05,-1.20617e-06,2.63004e-05,5.2457e-05,2.9621e-05,3.15343e-05
770,-2.62271e-05,-3.04772e-06,2.59958e-05,5.44844e-05,2.67353e-05,3.00247e-05
771,-1.61294e-05,-1.1203e-06,3.0279e-05,5.41544e-05,2.25308e-05,2.47765e-05
772,2.30558e-06,3.25642e-06,3.53323e-05,5.18526e-05,2.19778e-05,2.10375e-05
773,1.2081e-05,9.46023e-06,3.69809e-05,5.10251e-05,2.48012e-05,2.26154e-05
774,9.68158e-06,1.63059e-05,3.49189e-05,5.09246e-05,2.76133e-05,2.51939e-05
775,-3.61693e-06,1.79594e-05,3.18791e-05,5.00161e-05,2.66375e-05,2.21276e-05
776,-1.80596e-05,1.28552e-05,3.15728e-05,4.9857e-05,2.09109e-05,1.64056e-05
777,-1.59117e-05,1.01813e-05,3.50815e-05,5.33465e-05,1.49109e-05,1.66356e-05
778,-3.03205e-06,1.47189e-05,3.85469e-05,5.7649e-05,1.42357e-05,2.03567e-05
779,4.26157e-06,1.8401e-05,3.86669e-05,5.7835e-05,2.17623e-05,2.16184e-05
780,7.9244e-06,1.39291e-05,3.57476e-05,5.58277e-05,3.02158e-05,2.20601e-05
781,1.058e-05,5.71701e-06,3.1805e-05,5.41235e-05,3.08294e-05,2.26128e-05
782,1.06861e-05,-5.34001e-08,3.0851e-05,5.31917e-05,2.76423e-05,2.12396e-05
783,4.52812e-06,-3.07475e-06,3.12139e-05,5.40008e-05,2.58575e-05,1.82349e-05
784,-8.67444e-06,-5.64179e-06,3.06961e-05,5.83384e-05,2.30224e-05,1.45452e-05
785,-1.49239e-05,-7.36565e-06,3.27709e-05,6.32894e-05,1.59292e-05,1.21596e-05
786,-5.94392e-06,-6.55478e-06,3.69359e-05,6.36153e-05,7.26913e-06,1.43106e-05
787,6.1376e-06,-1.42731e-06,3.78222e-05,5.88493e-05,5.09485e-06,1.85426e-05
788,1.0149e-05,8.80452e-06,3.49851e-05,5.24574e-05,1.02948e-05,2.04768e-05
789,5.63487e-06,2.04515e-05,3.29025e-05,4.92306e-05,1.56805e-05,1.95717e-05
790,-4.65432e-06,2.84192e-05,3.3478e-05,5.0272e-05,1.69212e-05,1.68555e-05
791,-1.11081e-05,3.1882e-05,3.62052e-05,5.25275e-05,1.31781e-05,1.51025e-05
792,-6.01779e-06,3.52942e-05,4.00974e-05,5.30206e-05,6.8923e-06,1.80018e-05
793,4.13505e-06,4.10558e-05,4.3225e-05,5.16858e-05,4.18677e-06,2.4209e-05
794,9.51257e-06,4.79739e-05,4.44865e-05,4.87454e-05,7.95199e-06,2.79698e-05
795,7.05312e-06,5.38751e-05,4.43034e-05,4.48742e-05,1.48158e-05,2.55529e-05
796,-2.0241e-06,5.42328e-05,4.21726e-05,4.37118e-05,1.96098e-05,1.92869e-05
797,-7.34044e-06,4.47425e-05,3.97692e-05,4.66603e-05,1.85199e-05,1.54128e-05
798,1.6521e-06,2.80045e-05,4.0095e-05,5.05649e-05,1.44125e-05,1.7719e-05
799,1.58955e-05,1.3268e-05,4.11538e-05,5.47539e-05,1.45729e-05,2.31669e-05
800,2.02002e-05,1.09199e-05,4.02406e-05,5.91162e-05,1.89927e-05,2.60013e-05
801,1.24065e-05,2.21082e-05,3.88973e-05,6.02285e-05,2.23833e-05,2.28213e-05
802,-5.0032e-06,3.74794e-05,3.85721e-05,5.8238e-05,2.27837e-05,1.32395e-05
803,-1.8348e-05,4.63628e-05,4.04802e-05,5.56979e-05,1.97644e-05,4.82165e-06
804,-1.07008e-05,4.53292e-05,4.15177e-05,5.27895e-05,1.45983e-05,5.51733e-06
805,4.72598e-06,3.71414e-05,3.90978e-05,4.95367e-05,1.23511e-05,1.13123e-05
806,8.5993e-06,2.71603e-05,3.84925e-05,4.53755e-05,1.64191e-05,1.6366e-05
807,6.01423e-06,2.14737e-05,4.23633e-05,4.28055e-05,2.5694e-05,1.95135e-05
808,4.68624e-06,2.27846e-05,4.48375e-05,4.34492e-05,3.46553e-05,1.93277e-05
809,4.64371e-06,3.19237e-05,4.25911e-05,4.44811e-05,3.742e-05,1.8254e-05
810,1.05926e-06,4.48612e-05,4.02192e-05,4.53915e-05,3.60467e-05,1.62005e-05
811,-1.06286e-05,5.21673e-05,3.88377e-05,4.71155e-05,3.4005e-05,1.03279e-05
812,-1.78542e-05,5.07807e-05,3.78032e-05,4.79684e-05,3.11017e-05,6.02152e-06
813,-8.05177e-06,4.61747e-05,3.86697e-05,4.71133e-05,2.84495e-05,8.29649e-06
814,7.40016e-06,4.11033e-05,3.94519e-05,4.62378e-05,2.95578e-05,1.38678e-05
815,1.2176e-05,3.31576e-05,3.69607e-05,4.67262e-05,3.41468e-05,1.69667e-05
816,2.78794e-06,2.06966e-05,3.25667e-05,4.86305e-05,3.78301e-05,1.61122e-05
817,-1.26615e-05,7.02713e-06,3.08163e-05,5.06975e-05,3.79049e-05,1.34741e-05
818,-1.90725e-05,-2.6159e-07,3.34167e-05,5.29552e-05,3.4231e-05,1.14374e-05
819,-9.92445e-06,2.30127e-06,3.73403e-05,5.45739e-05,3.08078e-05,9.96516e-06
820,2.8225e-06,9.42092e-06,3.98931e-05,5.34057e-05,3.22388e-05,7.18364e-06
821,6.03414e-06,1.41748e-05,4.2382e-05,5.07239e-05,3.71407e-05,2.77625e-06
822,-1.02943e-06,1.49205e-05,4.50559e-05,5.01118e-05,3.9874e-05,-2.0051e-06
823,-1.3425e-05,1.25279e-05,4.51135e-05,5.10857e-05,3.82741e-05,-7.67886e-06
824,-2.03809e-05,9.20668e-06,4.32866e-05,5.06999e-05,3.53225e-05,-1.40795e-05
825,-1.34157e-05,9.3658e-06,4.35208e-05,4.91708e-05,3.4494e-05,-1.58697e-05
826,-1.99752e-06,1.19553e-05,4.35602e-05,4.94702e-05,3.69586e-05,-1.06425e-05
827,4.84974e-07,1.27414e-05,3.91473e-05,5.08826e-05,4.15107e-05,-5.48495e-06
828,-4.96711e-06,1.10139e-05,3.3756e-05,5.09932e-05,4.37358e-05,-7.09736e-06
829,-1.5376e-05,5.53577e-06,3.10611e-05,5.08072e-05,4.12855e-05,-1.5445e-05
830,-2.50611e-05,-2.25287e-06,3.32826e-05,5.23938e-05,3.62058e-05,-2.35493e-05
831,-2.12502e-05,-4.78987e-06,4.1312e-05,5.42096e-05,3.11858e-05,-2.0823e-05
832,-1.09e-05,1.24043e-07,4.66716e-05,5.13588e-05,2.96245e-05,-1.2522e-05
833,-6.61547e-06,5.3823e-06,4.37507e-05,4.51781e-05,3.22603e-05,-8.93115e-06
834,-4.07783e-06,6.80342e-06,3.7975e-05,4.33954e-05,3.3588e-05,-4.34338e-06
835,2.21212e-07,5.93188e-06,3.4758e-05,4.80474e-05,3.33423e-05,3.95899e-06
836,3.53234e-06,6.00757e-06,3.38836e-05,5.31512e-05,3.56503e-05,8.28249e-06
837,-1.43972e-06,8.15772e-06,3.28462e-05,5.39056e-05,3.88488e-05,4.86876e-06
838,-1.40942e-05,7.2927e-06,3.25108e-05,5.16145e-05,4.07576e-05,-6.19383e-07
839,-1.67467e-05,2.46085e-06,3.43792e-05,4.98946e-05,4.03605e-05,-1.10635e-06
840,-2.7373e-06,-1.52652e-08,3.85079e-05,5.06573e-05,3.93406e-05,2.91439e-06
841,1.13506e-05,2.9962e-06,4.28352e-05,5.26618e-05,4.15092e-05,5.63066e-06
842,1.40984e-05,9.96105e-06,4.38027e-05,5.24498e-05,4.62058e-05,5.51991e-06
843,6.65794e-06,1.67166e-05,4.01631e-05,5.09151e-05,4.90335e-05,5.47647e-06
844,-6.10017e-06,1.84262e-05,3.43293e-05,5.15122e-05,4.81906e-05,6.20645e-06
845,-1.37757e-05,1.74686e-05,3.15342e-05,5.42879e-05,4.3501e-05,8.17715e-06
846,-9.19787e-06,1.9054e-05,3.39277e-05,5.58338e-05,3.72098e-05,1.13797e-05
847,3.81959e-07,2.12633e-05,3.79334e-05,5.31558e-05,3.57645e-05,1.27123e-05
848,4.31128e-06,1.90758e-05,4.06726e-05,4.74505e-05,4.01138e-05,1.00083e-05
849,-4.12893e-07,1.11323e-05,4.2189e-05,4.24778e-05,4.26967e-05,5.84043e-06
850,-1.15551e-05,-2.80234e-07,4.33272e-05,4.06805e-05,3.98565e-05,3.30985e-06
851,-1.84135e-05,-9.83125e-06,4.64361e-05,4.18265e-05,3.49748e-05,2.7102e-06
852,-1.0455e-05,-1.36981e-05,5.04004e-05,4.35866e-05,3.06196e-05,5.22644e-06
853,3.79764e-06,-1.34672e-05,4.95727e-05,4.40025e-05,2.99645e-05,1.16811e-05
854,7.77232e-06,-9.4704e-06,4.45774e-05,4.42598e-05,3.53099e-05,1.82673e-05
855,-2.33504e-06,-2.97103e-06,4.20652e-05,4.51524e-05,4.15257e-05,2.12421e-05
856,-2.13526e-05,2.37422e-06,4.31864e-05,4.68285e-05,4.52119e-05,2.05738e-05
857,-3.58087e-05,5.38373e-06,4.63582e-05,4.93654e-05,4.64932e-05,1.92955e-05
858,-2.96955e-05,1.09275e-05,4.99353e-05,5.22624e-05,4.42629e-05,2.18029e-05
859,-1.33725e-05,2.38177e-05,4.86459e-05,5.48018e-05,4.19926e-05,2.65052e-05
860,-5.32388e-06,3.81378e-05,4.35457e-05,5.5407e-05,4.17873e-05,2.64349e-05
861,-4.17128e-06,4.56804e-05,4.05669e-05,5.50755e-05,4.22256e-05,2.1503e-05
862,-5.20149e-06,4.73514e-05,3.87602e-05,5.70621e-05,4.1529e-05,1.76166e-05
863,-5.15026e-06,5.08307e-05,3.70582e-05,6.00746e-05,3.86232e-05,1.96149e-05
864,-9.11605e-06,5.74383e-05,3.61165e-05,5.86881e-05,3.68037e-05,2.53061e-05
865,-2.14351e-05,5.97636e-05,3.6121e-05,5.43017e-05,3.79161e-05,2.69596e-05
866,-2.80567e-05,5.2099e-05,3.84024e-05,5.33748e-05,3.7637e-05,2.48454e-05
867,-1.85982e-05,3.64861e-05,4.18952e-05,5.73e-05,3.31738e-05,2.32179e-05
868,-5.5857e-06,2.33722e-05,4.44945e-05,6.01343e-05,2.72969e-05,2.12301e-05
869,-2.19744e-06,2.04955e-05,4.59231e-05,5.78054e-05,2.2461e-05,1.74176e-05
870,-8.64963e-06,2.54906e-05,4.43321e-05,5.49943e-05,1.95121e-05,1.2891e-05
871,-1.98537e-05,3.14695e-05,3.96117e-05,5.70204e-05,1.88671e-05,9.17967e-06
872,-2.55005e-05,3.42566e-05,3.77725e-05,6.33194e-05,1.87082e-05,8.52241e-06
873,-1.84978e-05,3.39316e-05,4.12153e-05,6.80387e-05,1.80727e-05,1.14629e-05
874,-6.09586e-06,3.36128e-05,4.43867e-05,6.67965e-05,2.00869e-05,1.44295e-05
875,-5.43304e-07,3.66645e-05,4.39809e-05,6.09197e-05,2.44039e-05,1.45139e-05
876,-5.43912e-06,4.15577e-05,4.23207e-05,5.44221e-05,2.55815e-05,1.18401e-05
877,-1.65472e-05,4.29778e-05,4.09991e-05,5.14735e-05,2.17895e-05,7.27566e-06
878,-2.21027e-05,3.85671e-05,4.02843e-05,5.36191e-05,1.58857e-05,5.58135e-06
879,-1.32585e-05,2.87497e-05,4.05599e-05,5.60216e-05,1.03717e-05,1.02349e-05
880,6.60894e-07,1.52315e-05,4.20913e-05,5.34251e-05,8.0065e-06,1.58233e-05
881,5.79181e-06,3.56501e-06,4.48557e-05,4.74497e-05,9.85343e-06,1.86202e-05
882,1.78282e-06,-3.30623e-06,4.86279e-05,4.38612e-05,1.28072e-05,1.95149e-05
883,-1.16909e-05,-9.33792e-06,5.14101e-05,4.44022e-05,1.32378e-05,1.8325e-05
884,-2.7271e-05,-1.63316e-05,5.22036e-05,4.58282e-05,1.03819e-05,1.60987e-05
885,-2.50565e-05,-2.01213e-05,5.26815e-05,4.58589e-05,9.01292e-06,1.47928e-05
886,-1.40163e-05,-1.73136e-05,5.10831e-05,4.5166e-05,1.13988e-05,1.48871e-05
887,-1.23486e-05,-1.1098e-05,4.74539e-05,4.57158e-05,1.42228e-05,1.78853e-05
888,-1.11569e-05,-1.07248e-05,4.64682e-05,4.68747e-05,1.66187e-05,2.17632e-05
889,-5.13724e-06,-1.59103e-05,4.79037e-05,4.54284e-05,1.88155e-05,2.15776e-05
890,-6.67865e-07,-1.14984e-05,4.93874e-05,4.22369e-05,2.11071e-05,1.73373e-05
891,-4.34552e-06,8.34195e-06,4.9374e-05,4.13038e-05,2.42262e-05,1.17733e-05
892,-1.60245e-05,3.00865e-05,4.75838e-05,4.29647e-05,2.66332e-05,8.35343e-06
893,-2.06323e-05,4.05586e-05,4.69314e-05,4.62846e-05,2.63496e-05,9.70486e-06
894,-9.45607e-06,3.51464e-05,4.76853e-05,5.07721e-05,2.35392e-05,1.36431e-05
895,5.53769e-06,1.64855e-05,4.66285e-05,5.50625e-05,2.134e-05,1.63698e-05
896,1.26195e-05,-3.87684e-06,4.25615e-05,5.62627e-05,2.18428e-05,1.90062e-05
897,8.3114e-06,-1.79542e-05,3.66643e-05,5.354e-05,2.44758e-05,2.21753e-05
898,-4.30875e-06,-2.95542e-05,3.11377e-05,5.03724e-05,2.65799e-05,2.22127e-05
899,-1.30045e-05,-4.23803e-05,2.9585e-05,4.99558e-05,2.55632e-05,1.94975e-05
900,-7.63096e-06,-5.32272e-05,3.16782e-05,5.12171e-05,2.3479e-05,1.95231e-05
901,5.02263e-06,-5.62645e-05,3.23e-05,5.21825e-05,2.54998e-05,2.2784e-05
902,1.04534e-05,-4.74981e-05,3.01397e-05,5.22626e-05,3.08732e-05,2.36909e-05
903,4.32811e-06,-2.92089e-05,2.77928e-05,5.04878e-05,3.38429e-05,1.98946e-05
904,-8.65553e-06,-1.05357e-05,2.55612e-05,4.89957e-05,3.32922e-05,1.52254e-05
905,-1.73403e-05,2.0499e-06,2.42407e-05,5.06699e-05,2.96526e-05,1.54409e-05
906,-1.15751e-05,1.18118e-05,2.55682e-05,5.36352e-05,2.44921e-05,2.1436e-05
907,1.88439e-06,2.35669e-05,2.80986e-05,5.51007e-05,2.4449e-05,2.63563e-05
908,6.77192e-06,3.84092e-05,3.00123e-05,5.44965e-05,3.18611e-05,2.61971e-05
909,-6.69009e-07,5.40619e-05,2.93757e-05,5.43103e-05,3.94617e-05,2.48299e-05
910,-1.50451e-05,6.0085e-05,2.47124e-05,5.67001e-05,4.12026e-05,2.14207e-05
911,-2.33308e-05,4.58361e-05,2.19916e-05,5.6712e-05,3.73915e-05,1.50664e-05
912,-1.28319e-05,1.18809e-05,2.43929e-05,5.14368e-05,3.17409e-05,1.25266e-05
913,3.33641e-06,-2.62835e-05,2.54351e-05,4.6461e-05,2.81142e-05,1.29804e-05
914,7.98954e-06,-4.95329e-05,2.30905e-05,4.64834e-05,3.04056e-05,1.37402e-05
915,5.18411e-06,-5.14521e-05,2.21151e-05,4.97348e-05,3.7618e-05,1.86525e-05
916,2.89711e-06,-3.58148e-05,2.57016e-05,5.11517e-05,4.29576e-05,2.26295e-05
917,3.08874e-06,-1.48651e-05,3.15138e-05,4.94683e-05,4.3215e-05,1.96401e-05
918,-2.12846e-06,-8.19324e-07,3.45318e-05,4.89054e-05,4.0167e-05,1.32306e-05
919,-1.67935e-05,3.09036e-06,3.26702e-05,5.29272e-05,3.78531e-05,8.44912e-06
920,-2.56196e-05,5.46501e-06,2.94579e-05,5.86845e-05,3.70049e-05,8.30958e-06
921,-1.60921e-05,1.59592e-05,2.84963e-05,6.10548e-05,3.55595e-05,1.3421e-05
922,-3.23473e-07,3.44948e-05,2.86673e-05,5.86587e-05,3.51488e-05,1.89688e-05
923,5.64405e-06,5.68407e-05,2.75706e-05,5.22771e-05,3.74384e-05,1.96327e-05
924,-1.46054e-06,7.67346e-05,2.531e-05,4.48067e-05,3.92986e-05,1.74057e-05
925,-1.58443e-05,8.68026e-05,2.41313e-05,4.12589e-05,3.69535e-05,1.63364e-05
926,-2.306e-05,8.72431e-05,2.58563e-05,4.45414e-05,3.06686e-05,1.81306e-05
927,-1.39505e-05,8.44761e-05,2.93414e-05,5.09161e-05,2.44724e-05,2.29412e-05
928,1.52317e-06,7.88263e-05,3.19984e-05,5.42519e-05,2.38138e-05,2.79317e-05
929,7.94389e-06,6.85482e-05,3.35552e-05,5.28595e-05,2.90383e-05,2.85999e-05
930,2.58142e-06,5.56996e-05,3.35954e-05,4.9581e-05,3.45554e-05,2.46564e-05
931,-8.81722e-06,4.30659e-05,3.24606e-05,4.86565e-05,3.60402e-05,1.97288e-05
932,-1.58183e-05,3.34105e-05,3.2673e-05,5.11725e-05,3.30251e-05,1.81834e-05
933,-1.05986e-05,2.93442e-05,3.45625e-05,5.37888e-05,2.72959e-05,2.1034e-05
934,1.0928e-06,2.94855e-05,3.68786e-05,5.36992e-05,2.45801e-05,2.26769e-05
935,7.66549e-06,3.04866e-05,3.93967e-05,5.1542e-05,2.88971e-05,1.96632e-05
936,3.88562e-06,2.6701e-05,4.1055e-05,4.82331e-05,3.3523e-05,1.48692e-05
937,-1.0471e-05,1.34704e-05,3.8869e-05,4.72789e-05,3.29383e-05,9.43163e-06
938,-2.35289e-05,-4.79249e-06,3.47283e-05,5.13882e-05,2.85039e-05,6.54629e-06
939,-1.90425e-05,-1.69358e-05,3.38565e-05,5.64409e-05,2.28372e-05,1.01696e-05
940,-7.23983e-06,-1.68053e-05,3.33789e-05,5.79581e-05,2.08884e-05,1.46681e-05
941,-3.64296e-06,-1.01904e-05,3.1075e-05,5.74278e-05,2.32342e-05,1.74694e-05
942,-1.74151e-06,-6.18086e-06,2.94038e-05,5.93397e-05,2.50434e-05,2.15871e-05
943,3.92038e-06,-4.93157e-06,2.86133e-05,6.34245e-05,2.5179e-05,2.36992e-05
944,9.81787e-06,-5.49039e-07,2.8661e-05,6.3778e-05,2.61914e-05,2.32659e-05
945,7.915e-06,5.38413e-06,2.79896e-05,5.93572e-05,2.7357e-05,2.19538e-05
946,-3.74056e-06,5.45625e-06,2.57585e-05,5.69458e-05,2.69237e-05,1.7894e-05
947,-9.5882e-06,-1.04275e-06,2.44677e-05,5.749e-05,2.61049e-05,1.44622e-05
948,7.17904e-07,-7.31654e-06,2.574e-05,5.66752e-05,2.65551e-05,1.62985e-05
949,1.36395e-05,-7.53718e-06,2.77799e-05,5.46126e-05,2.8975e-05,1.99536e-05
950,1.64554e-05,-2.13214e-06,2.86593e-05,5.16233e-05,3.16908e-05,2.13333e-05
951,1.14151e-05,1.89078e-06,2.69506e-05,4.84206e-05,3.32007e-05,2.12408e-05
952,3.47916e-06,-9.10538e-07,2.27146e-05,4.87709e-05,3.28469e-05,1.88459e-05
953,-7.58923e-07,-5.84777e-06,2.04318e-05,5.26824e-05,2.98228e-05,1.4908e-05
954,4.02381e-06,-5.66312e-06,2.37101e-05,5.47407e-05,2.66033e-05,1.40616e-05
955,1.20987e-05,-7.60468e-07,2.81488e-05,5.32781e-05,2.88609e-05,1.60119e-05
956,1.41055e-05,2.8442e-06,2.80201e-05,5.14493e-05,3.5309e-05,1.52661e-05
957,8.45032e-06,1.3329e-06,2.47806e-05,5.03686e-05,3.75638e-05,1.0495e-05
958,-2.34883e-06,-3.9574e-06,2.24734e-05,4.98642e-05,3.38324e-05,5.88871e-06
959,-9.28781e-06,-8.19367e-06,2.35919e-05,5.1167e-05,2.91876e-05,5.5096e-06
960,-2.84576e-06,-8.03752e-06,2.79209e-05,5.45438e-05,2.5641e-05,8.64768e-06
961,8.95633e-06,-5.50438e-06,3.15882e-05,5.76441e-05,2.48817e-05,1.0561e-05
962,1.13778e-05,-2.43203e-06,3.256e-05,5.65709e-05,2.88165e-05,8.27878e-06
963,1.79179e-06,2.77959e-07,3.24785e-05,5.21922e-05,3.16148e-05,3.95237e-06
964,-1.67018e-05,-2.14655e-07,3.17053e-05,5.19117e-05,2.8896e-05,1.55538e-06
965,-3.07402e-05,-3.7098e-06,3.12234e-05,5.5569e-05,2.38119e-05,2.02175e-06
966,-2.37404e-05,-3.83952e-06,3.54465e-05,5.44263e-05,1.99033e-05,6.13499e-06
967,-7.49998e-06,5.71324e-07,4.26499e-05,4.8957e-05,2.14598e-05,1.03375e-05
968,-8.04181e-07,4.41257e-06,4.67382e-05,4.58115e-05,2.95138e-05,1.03319e-05
969,9.22647e-07,7.45658e-06,4.93056e-05,4.53425e-05,3.69743e-05,9.04759e-06
970,3.94246e-06,1.15069e-05,5.16972e-05,4.57207e-05,3.67692e-05,8.19143e-06
971,7.11892e-06,1.77941e-05,5.14525e-05,4.63696e-05,3.11229e-05,5.61296e-06
972,3.8199e-06,2.3543e-05,4.86561e-05,4.66331e-05,2.78379e-05,-1.97619e-07
973,-9.61995e-06,2.22016e-05,4.61938e-05,4.73493e-05,2.6804e-05,-6.29521e-06
974,-1.93283e-05,1.3983e-05,4.56371e-05,4.9277e-05,2.42507e-05,-6.8282e-06
975,-1.3114e-05,6.01865e-06,4.60861e-05,5.1139e-05,2.05313e-05,1.62067e-08
976,-5.5193e-07,4.88352e-06,4.69396e-05,5.17216e-05,1.83397e-05,7.01745e-06
977,5.29206e-06,1.15074e-05,4.73641e-05,5.18601e-05,2.01174e-05,8.42555e-06
978,1.83894e-07,2.01444e-05,4.57508e-05,5.25876e-05,2.50841e-05,6.7899e-06
979,-1.24576e-05,2.25279e-05,4.29156e-05,5.38588e-05,2.88762e-05,5.84174e-06
980,-1.90092e-05,1.70977e-05,4.19177e-05,5.59697e-05,2.71218e-05,7.02794e-06
981,-1.10724e-05,1.02707e-05,4.34324e-05,5.87597e-05,2.21281e-05,9.55259e-06
982,1.13952e-06,8.42849e-06,4.60459e-05,6.12775e-05,2.18406e-05,1.17403e-05
983,3.60866e-06,1.22097e-05,4.82062e-05,6.12891e-05,2.78209e-05,1.27681e-05
984,-5.283e-06,1.82171e-05,4.91906e-05,5.82883e-05,3.322e-05,1.21279e-05
985,-1.99162e-05,2.2011e-05,4.89421e-05,5.57919e-05,3.34721e-05,1.06318e-05
986,-2.78971e-05,2.11292e-05,4.82199e-05,5.56407e-05,2.851e-05,1.11417e-05
987,-1.90145e-05,1.76746e-05,4.76279e-05,5.55839e-05,2.16123e-05,1.41813e-05
988,-3.37858e-06,1.40622e-05,4.64625e-05,5.41313e-05,2.04278e-05,1.73475e-05
989,3.71323e-06,1.10414e-05,4.44778e-05,5.30597e-05,2.57409e-05,1.85533e-05
990,5.23656e-07,8.02945e-06,4.34439e-05,5.45672e-05,2.96636e-05,1.92454e-05
991,-1.23427e-05,2.70414e-06,4.48466e-05,5.80111e-05,3.0644e-05,2.05283e-05
992,-2.60428e-05,-5.23442e-06,4.80186e-05,6.00881e-05,2.75093e-05,2.36841e-05
993,-2.33808e-05,-1.08235e-05,5.15732e-05,5.72957e-05,1.97877e-05,2.96295e-05
994,-1.18434e-05,-1.01418e-05,5.21803e-05,5.37438e-05,1.69048e-05,3.26374e-05
995,-7.54481e-06,-5.79209e-06,4.93053e-05,5.62682e-05,2.39402e-05,2.84657e-05
996,-6.83624e-06,-2.93131e-06,4.74644e-05,6.29998e-05,3.16239e-05,2.27714e-05
997,-4.66131e-06,-8.01819e-07,4.66745e-05,6.74838e-05,3.18955e-05,1.98841e-05
998,-1.76466e-06,6.67467e-06,4.42665e-05,6.45772e-05,2.81666e-05,1.90034e-05
999,-4.69493e-06,1.67927e-05,4.02175e-05,5.77465e-05,2.71052e-05,2.14233e-05
1000,-1.73916e-05,2.01987e-05,3.81093e-05,5.47074e-05,2.86847e-05,2.54187e-05
1001,-2.44412e-05,1.81848e-05,4.08721e-05,5.5765e-05,2.7494e-05,2.74884e-05
1002,-1.4294e-05,1.79624e-05,4.45641e-05,5.62566e-05,2.2689e-05,2.84852e-05
1003,1.43946e-07,2.16103e-05,4.5872e-05,5.38301e-05,1.97997e-05,3.02978e-05
1004,6.02091e-06,2.65121e-05,4.5345e-05,4.96656e-05,2.03817e-05,3.03729e-05
1005,4.16327e-07,2.80074e-05,4.26899e-05,4.60023e-05,2.13249e-05,2.54268e-05
1006,-1.26884e-05,2.49882e-05,3.92952e-05,4.49408e-05,2.16827e-05,1.91227e-05
1007,-1.97521e-05,2.2884e-05,3.89809e-05,4.55187e-05,2.01308e-05,1.93642e-05
1008,-1.13387e-05,2.61071e-05,4.13237e-05,4.43815e-05,1.69703e-05,2.8215e-05
1009,3.66643e-06,3.25713e-05,4.19392e-05,4.22646e-05,1.7034e-05,3.74696e-05
1010,9.89801e-06,3.92961e-05,3.90236e-05,4.31405e-05,2.28968e-05,3.89395e-05
1011,2.81202e-06,4.62105e-05,3.39966e-05,4.72482e-05,2.91253e-05,3.40172e-05
1012,-1.31144e-05,5.16087e-05,3.02822e-05,5.18629e-05,2.98097e-05,2.83153e-05
1013,-2.4059e-05,5.21491e-05,3.21276e-05,5.48537e-05,2.44089e-05,2.54147e-05
1014,-1.65444e-05,4.80799e-05,3.79161e-05,5.36881e-05,1.69056e-05,2.71097e-05
1015,2.65744e-07,4.25541e-05,4.10082e-05,4.9131e-05,1.43422e-05,3.09031e-05
1016,6.70204e-06,3.9641e-05,4.04164e-05,4.63979e-05,2.00682e-05,3.13295e-05
1017,-2.68598e-07,3.92342e-05,4.0244e-05,4.70914e-05,2.91203e-05,2.69787e-05
1018,-1.61002e-05,3.40274e-05,4.15079e-05,4.95735e-05,3.5117e-05,1.97179e-05
1019,-2.88761e-05,2.44865e-05,4.24664e-05,5.10254e-05,3.62537e-05,1.24058e-05
1020,-2.19139e-05,1.64106e-05,4.23237e-05,4.94492e-05,3.35643e-05,9.99409e-06
1021,-4.18904e-06,8.0538e-06,3.98678e-05,4.80028e-05,3.0025e-05,1.19748e-05
1022,5.92502e-06,7.46398e-07,3.59194e-05,4.94446e-05,2.94472e-05,1.39179e-05
1023,8.55507e-06,-2.17163e-06,3.44498e-05,5.30207e-05,3.21282e-05,1.80588e-05
1024,9.6563e-06,1.10712e-06,3.56497e-05,5.30872e-05,3.53916e-05,2.48337e-05
1025,1.29106e-05,8.95794e-06,3.58772e-05,4.73803e-05,3.7812e-05,2.82174e-05
1026,1.18153e-05,1.19573e-05,3.38494e-05,4.36347e-05,3.91929e-05,2.42314e-05
1027,-1.3118e-06,3.2709e-06,3.33563e-05,4.60775e-05,3.90021e-05,1.57281e-05
1028,-1.26799e-05,-9.70937e-06,3.68617e-05,4.99718e-05,3.72888e-05,9.05155e-06
1029,-7.64444e-06,-1.50877e-05,4.09164e-05,5.14659e-05,3.51634e-05,7.20968e-06
1030,3.83998e-06,-1.07848e-05,4.01137e-05,5.3081e-05,3.41585e-05,7.17611e-06
1031,6.33303e-06,-2.38997e-06,3.46118e-05,5.5909e-05,3.53011e-05,6.06979e-06
1032,-4.01386e-06,4.5574e-06,3.0641e-05,5.77192e-05,3.73664e-05,5.08523e-06
1033,-1.97865e-05,7.67494e-06,3.09617e-05,5.72627e-05,3.73233e-05,4.30628e-06
1034,-2.55363e-05,9.03506e-06,3.27798e-05,5.55943e-05,3.38472e-05,2.37749e-06
1035,-1.43605e-05,1.15891e-05,3.33008e-05,5.45758e-05,3.05522e-05,4.42009e-07
1036,8.67903e-07,1.47663e-05,3.23701e-05,5.36187e-05,3.23641e-05,1.53854e-06
1037,5.6167e-06,1.86676e-05,3.19478e-05,5.04946e-05,3.78438e-05,5.75972e-06
1038,-1.10273e-06,2.45127e-05,3.34794e-05,4.5598e-05,4.06007e-05,9.07735e-06
1039,-1.44426e-05,2.82546e-05,3.54082e-05,4.29507e-05,3.79732e-05,8.88239e-06
1040,-2.34187e-05,2.34796e-05,3.68218e-05,4.45755e-05,3.09622e-05,7.79341e-06
1041,-1.77141e-05,1.10611e-05,3.89785e-05,4.70005e-05,2.29158e-05,9.20967e-06
1042,-6.02311e-06,-5.91665e-07,4.0397e-05,4.68012e-05,1.9585e-05,1.20274e-05
1043,-2.00156e-06,-1.60233e-06,4.00264e-05,4.57819e-05,2.11007e-05,1.3516e-05
1044,-5.20918e-06,7.22962e-06,3.93146e-05,4.53668e-05,2.19973e-05,1.40573e-05
1045,-1.6682e-05,1.43349e-05,3.81944e-05,4.43743e-05,2.21489e-05,1.3759e-05
1046,-3.0225e-05,1.34211e-05,3.91122e-05,4.48193e-05,2.45127e-05,1.34275e-05
1047,-2.5567e-05,1.18511e-05,4.29813e-05,4.83499e-05,2.46558e-05,1.40763e-05
1048,-1.04385e-05,1.30616e-05,4.56176e-05,5.14421e-05,1.9189e-05,1.30837e-05
1049,-4.18518e-06,6.48629e-06,4.48266e-05,5.33453e-05,1.89992e-05,1.04636e-05
1050,-3.50644e-06,-1.2435e-05,4.1468e-05,5.54581e-05,3.01415e-05,9.7087e-06
1051,-3.96088e-06,-3.06258e-05,3.83566e-05,5.58169e-05,4.09851e-05,1.16565e-05
1052,-2.89794e-06,-3.4449e-05,3.7999e-05,5.25938e-05,4.25539e-05,1.50195e-05
1053,-4.31997e-06,-2.83228e-05,3.81742e-05,4.84249e-05,3.77201e-05,1.65474e-05
1054,-1.26883e-05,-2.34914e-05,3.56108e-05,4.74136e-05,3.18494e-05,1.3989e-05
1055,-1.54781e-05,-1.87267e-05,3.2531e-05,4.84601e-05,2.5203e-05,1.09955e-05
1056,-4.1603e-06,-7.4183e-06,3.17074e-05,4.78168e-05,1.83715e-05,1.05391e-05
1057,9.31674e-06,1.09271e-05,3.18373e-05,4.56837e-05,1.75625e-05,1.15668e-05
1058,1.38853e-05,3.45336e-05,3.22544e-05,4.54342e-05,2.49588e-05,1.29517e-05
1059,7.25522e-06,6.00183e-05,3.25147e-05,4.73699e-05,3.32075e-05,1.2944e-05
1060,-7.49652e-06,8.14783e-05,3.13843e-05,4.78984e-05,3.44965e-05,9.09172e-06
1061,-1.70577e-05,9.59952e-05,3.01919e-05,4.5285e-05,2.84602e-05,3.99149e-06
1062,-1.21201e-05,0.000104693,3.15198e-05,4.1969e-05,2.08357e-05,4.16985e-06
1063,-1.76726e-06,0.000107499,3.65017e-05,3.96685e-05,1.94013e-05,1.11537e-05
1064,1.93256e-06,0.000102431,4.37027e-05,3.74887e-05,2.58433e-05,1.98817e-05
1065,-2.60232e-06,8.786e-05,4.83841e-05,3.51055e-05,3.23313e-05,2.43312e-05
1066,-1.45017e-05,6.34277e-05,4.7298e-05,3.45152e-05,3.39932e-05,2.22394e-05
1067,-2.53653e-05,3.32085e-05,4.52077e-05,3.83848e-05,3.44453e-05,1.73833e-05
1068,-2.21817e-05,7.0761e-06,4.80312e-05,4.53253e-05,3.5222e-05,1.52443e-05
1069,-7.77672e-06,-8.2951e-06,5.17706e-05,5.10877e-05,3.57161e-05,1.6062e-05
1070,2.6415e-06,-1.49882e-05,4.96083e-05,5.37543e-05,3.52739e-05,1.80688e-05
1071,1.1944e-06,-1.92545e-05,4.29966e-05,5.29492e-05,3.32563e-05,2.24134e-05
1072,-1.33353e-05,-2.51824e-05,3.66825e-05,5.199e-05,3.32364e-05,2.67456e-05
1073,-2.94098e-05,-2.887e-05,3.47475e-05,5.3891e-05,3.37357e-05,2.78637e-05
1074,-2.46323e-05,-2.24704e-05,3.83863e-05,5.44585e-05,3.10294e-05,2.75497e-05
1075,-4.25097e-06,-1.06465e-05,4.08771e-05,5.26264e-05,2.99185e-05,2.3752e-05
1076,1.10735e-05,-6.7848e-06,3.94099e-05,5.317e-05,3.46255e-05,1.68856e-05
1077,1.76237e-05,-1.1098e-05,4.14144e-05,5.61646e-05,4.19997e-05,1.41751e-05
1078,1.6978e-05,-1.16057e-05,4.70462e-05,5.8162e-05,4.58229e-05,1.6574e-05
1079,1.37824e-05,-3.49226e-06,5.13959e-05,5.86925e-05,4.42191e-05,1.85633e-05
1080,8.0183e-06,4.87768e-06,5.57161e-05,5.77819e-05,4.26264e-05,1.59908e-05
1081,-5.34363e-07,5.0323e-06,6.09328e-05,5.68411e-05,4.26486e-05,1.09893e-05
1082,-1.53514e-06,7.68136e-07,6.4364e-05,5.85299e-05,4.03966e-05,1.15129e-05
1083,8.15589e-06,5.96998e-07,6.59671e-05,6.14142e-05,3.86911e-05,1.96098e-05
1084,1.68787e-05,6.60125e-06,6.75147e-05,6.26948e-05,4.24383e-05,2.82581e-05
1085,1.68996e-05,1.40423e-05,6.82673e-05,6.19121e-05,4.8537e-05,3.0886e-05
1086,8.29224e-06,1.66173e-05,6.63988e-05,6.05323e-05,5.09317e-05,2.47909e-05
1087,-4.58783e-06,1.43839e-05,6.10155e-05,5.96608e-05,4.8836e-05,1.49775e-05
1088,-1.0021e-05,1.47522e-05,5.57638e-05,5.82195e-05,4.40138e-05,1.13787e-05
1089,-1.77319e-06,2.25618e-05,5.46146e-05,5.4994e-05,3.76785e-05,1.62068e-05
1090,1.10729e-05,3.4834e-05,5.46539e-05,5.2286e-05,3.49774e-05,2.26216e-05
1091,1.56936e-05,4.51699e-05,5.10157e-05,5.15924e-05,3.85187e-05,2.47857e-05
1092,9.4098e-06,4.84752e-05,4.3912e-05,5.08831e-05,4.23945e-05,2.068e-05
1093,-3.15863e-06,4.37966e-05,3.69198e-05,4.99381e-05,4.24341e-05,1.0717e-05
1094,-9.80649e-06,3.42318e-05,3.57029e-05,5.06312e-05,3.83286e-05,1.67277e-06
1095,-6.04869e-07,2.4777e-05,4.03581e-05,5.20352e-05,3.21541e-05,2.73206e-06
1096,1.46533e-05,1.81881e-05,4.13817e-05,5.18348e-05,3.02934e-05,1.22235e-05
1097,2.00734e-05,1.64722e-05,3.38746e-05,5.10274e-05,3.27059e-05,1.96985e-05
1098,1.38857e-05,2.01714e-05,2.42735e-05,5.24321e-05,3.49977e-05,1.98106e-05
1099,-1.44765e-06,2.39871e-05,2.01486e-05,5.63658e-05,3.73486e-05,1.49556e-05
1100,-1.57937e-05,2.39963e-05,2.25047e-05,5.90849e-05,3.675e-05,1.17491e-05
1101,-1.1432e-05,2.1922e-05,2.48672e-05,5.89535e-05,2.99187e-05,1.45424e-05
1102,3.10975e-06,2.07769e-05,2.12195e-05,5.7215e-05,2.33114e-05,2.07828e-05
1103,7.99101e-06,2.17078e-05,1.61162e-05,5.47746e-05,2.38807e-05,2.65276e-05
1104,6.71024e-06,2.29948e-05,1.53692e-05,5.42954e-05,2.78567e-05,3.03075e-05
1105,6.37468e-06,2.41449e-05,1.92383e-05,5.73864e-05,3.06471e-05,3.14867e-05
1106,5.89219e-06,2.48954e-05,2.51405e-05,5.94471e-05,3.37881e-05,2.84916e-05
1107,-2.7794e-07,2.30837e-05,2.69252e-05,5.58731e-05,3.72019e-05,2.14332e-05
1108,-1.42281e-05,1.52202e-05,2.35947e-05,4.97699e-05,3.66165e-05,1.38479e-05
1109,-2.1831e-05,4.85405e-06,2.07307e-05,4.56349e-05,3.04781e-05,9.76787e-06
1110,-1.20223e-05,-8.38538e-08,1.99514e-05,4.54273e-05,2.38016e-05,9.72319e-06
1111,1.66795e-06,-1.62246e-08,1.72327e-05,4.78725e-05,2.29381e-05,1.06835e-05
1112,3.23184e-06,2.10193e-06,1.18357e-05,4.86956e-05,2.45452e-05,1.29455e-05
1113,-7.71784e-06,4.40987e-06,7.73624e-06,4.74012e-05,2.30241e-05,1.64684e-05
1114,-2.28717e-05,3.58244e-06,7.25715e-06,4.76234e-05,1.94948e-05,1.7359e-05
1115,-2.92656e-05,4.62569e-07,1.03647e-05,4.9949e-05,1.48929e-05,1.46405e-05
1116,-2.13387e-05,-2.41745e-07,1.57434e-05,5.10358e-05,1.17593e-05,1.24047e-05
1117,-9.58027e-06,1.8908e-06,2.0266e-05,4.89699e-05,1.43431e-05,1.22197e-05
1118,-5.61635e-06,4.69768e-06,2.0892e-05,4.51199e-05,1.941e-05,1.19424e-05
1119,-1.0799e-05,7.84246e-06,1.82092e-05,4.28228e-05,1.97672e-05,1.218e-05
1120,-2.3088e-05,9.68365e-06,1.51421e-05,4.4883e-05,1.58176e-05,1.28151e-05
1121,-3.20341e-05,8.89479e-06,1.56483e-05,5.06335e-05,1.14827e-05,1.18866e-05
1122,-2.41682e-05,8.80708e-06,2.02503e-05,5.62692e-05,8.70832e-06,1.17534e-05
1123,-6.8283e-06,1.09101e-05,2.27308e-05,5.78985e-05,1.06134e-05,1.40429e-05
1124,2.12702e-07,1.39354e-05,1.89587e-05,5.46005e-05,1.83908e-05,1.5323e-05
1125,-7.51608e-06,1.74338e-05,1.2939e-05,4.91022e-05,2.48426e-05,1.42785e-05
1126,-2.37709e-05,1.90641e-05,9.57376e-06,4.65027e-05,2.48685e-05,1.08926e-05
1127,-3.59214e-05,1.79576e-05,9.40449e-06,4.90167e-05,2.0128e-05,5.19434e-06
1128,-2.6318e-05,1.60335e-05,1.27034e-05,5.15208e-05,1.42812e-05,-9.59129e-07
1129,-4.84477e-06,1.37298e-05,1.56293e-05,5.13958e-05,1.20451e-05,-2.5336e-06
1130,7.55457e-06,9.8799e-06,1.55951e-05,5.19036e-05,1.52794e-05,5.48003e-07
1131,1.20249e-05,1.6677e-06,1.71362e-05,5.22673e-05,2.16184e-05,2.23625e-06
1132,1.17037e-05,-5.38576e-06,1.85449e-05,5.06759e-05,2.59788e-05,3.13439e-06
1133,9.23186e-06,-2.46396e-06,1.73172e-05,5.05121e-05,2.70817e-05,4.4632e-06
1134,3.83932e-06,4.45939e-06,1.65021e-05,5.36994e-05,2.74351e-05,4.60006e-06
1135,-7.619e-06,4.68623e-06,2.01646e-05,5.79028e-05,2.67473e-05,2.20461e-06
1136,-1.3584e-05,-3.4391e-07,2.82675e-05,5.8773e-05,2.2977e-05,8.5812e-07
1137,-4.93558e-06,-1.80461e-06,3.67883e-05,5.45345e-05,1.90187e-05,6.03832e-06
1138,7.74319e-06,3.0267e-06,4.35288e-05,4.82515e-05,1.97255e-05,1.33033e-05
1139,1.27728e-05,1.03292e-05,4.66699e-05,4.42939e-05,2.3063e-05,1.61374e-05
1140,7.05832e-06,1.59991e-05,4.49792e-05,4.54954e-05,2.52274e-05,1.31944e-05
1141,-7.38725e-06,1.74386e-05,4.03323e-05,5.01103e-05,2.64394e-05,7.67711e-06
1142,-1.86408e-05,1.5588e-05,3.77012e-05,5.43843e-05,2.62219e-05,5.02558e-06
1143,-1.47237e-05,1.48744e-05,3.94721e-05,5.5531e-05,2.3935e-05,7.78081e-06
1144,-1.94603e-06,1.77183e-05,4.28623e-05,5.29019e-05,2.29406e-05,1.30605e-05
1145,5.3005e-06,2.29983e-05,4.42587e-05,4.87041e-05,2.51934e-05,1.60851e-05
1146,2.49527e-06,2.7788e-05,4.35359e-05,4.64667e-05,2.73233e-05,1.41699e-05
1147,-8.6374e-06,2.77177e-05,4.3338e-05,4.73933e-05,2.61727e-05,8.87204e-06
1148,-1.84375e-05,2.10689e-05,4.47163e-05,4.90451e-05,2.24481e-05,6.25643e-06
1149,-1.40236e-05,1.27423e-05,4.56792e-05,4.9753e-05,1.85233e-05,1.04536e-05
1150,5.03535e-07,8.21391e-06,4.36099e-05,5.00165e-05,1.6064e-05,1.59586e-05
1151,8.21077e-06,9.57078e-06,3.87506e-05,4.99995e-05,1.62737e-05,1.52006e-05
1152,9.43567e-07,1.40245e-05,3.49467e-05,4.99196e-05,2.0095e-05,8.38785e-06
1153,-1.96827e-05,1.35388e-05,3.36507e-05,5.05624e-05,2.63169e-05,-3.32369e-07
1154,-3.72649e-05,7.04156e-06,3.45765e-05,5.13562e-05,2.95396e-05,-6.55106e-06
1155,-2.98516e-05,1.47429e-06,3.68499e-05,5.02857e-05,2.54958e-05,-9.34556e-06
1156,-1.05007e-05,1.00551e-06,3.6294e-05,4.7368e-05,2.11503e-05,-1.05196e-05
1157,-2.13378e-06,4.76853e-06,3.18859e-05,4.54012e-05,2.42943e-05,-1.06254e-05
1158,9.15096e-07,8.62223e-06,2.79354e-05,4.90209e-05,3.00277e-05,-9.01623e-06
1159,1.78461e-06,1.07682e-05,2.70387e-05,5.59507e-05,3.2238e-05,-5.30353e-06
1160,-1.73569e-06,1.07643e-05,2.87034e-05,5.86911e-05,3.1977e-05,1.38528e-06
1161,-1.04913e-05,6.50539e-06,2.97082e-05,5.69251e-05,3.30876e-05,7.98736e-06
1162,-2.57738e-05,-3.19896e-06,2.74434e-05,5.33355e-05,3.46216e-05,1.0901e-05
1163,-3.51042e-05,-1.5008e-05,2.56129e-05,5.04151e-05,3.16208e-05,1.31811e-05
1164,-2.73141e-05,-2.05713e-05,2.71528e-05,5.0483e-05,2.65862e-05,1.67236e-05
1165,-1.3755e-05,-1.50569e-05,2.84154e-05,5.21986e-05,2.76173e-05,1.80376e-05
1166,-8.21677e-06,-2.804e-06,2.46981e-05,5.37062e-05,3.41089e-05,1.55746e-05
1167,-1.10431e-05,7.02245e-06,1.78126e-05,5.60779e-05,3.93798e-05,1.21263e-05
1168,-1.70186e-05,9.93017e-06,1.40032e-05,5.90148e-05,3.95355e-05,9.62816e-06
1169,-1.69681e-05,1.11943e-05,1.70326e-05,6.17253e-05,3.35628e-05,1.1246e-05
1170,-4.40081e-06,1.6447e-05,2.33417e-05,6.42996e-05,2.52994e-05,1.91517e-05
1171,1.29057e-05,2.24585e-05,2.54097e-05,6.51983e-05,2.24839e-05,2.75904e-05
1172,1.96755e-05,2.46173e-05,2.22993e-05,6.28805e-05,2.63054e-05,2.99186e-05
1173,1.24846e-05,2.50179e-05,1.86212e-05,5.88004e-05,2.93425e-05,2.64281e-05
1174,-1.74654e-06,2.69771e-05,1.66896e-05,5.69455e-05,2.78572e-05,2.08945e-05
1175,-1.17074e-05,2.89568e-05,1.74083e-05,5.91718e-05,2.41281e-05,1.81035e-05
1176,-8.88546e-06,2.74409e-05,2.17005e-05,6.12237e-05,2.08982e-05,2.05863e-05
1177,6.98543e-07,2.11959e-05,2.71461e-05,5.89185e-05,2.2147e-05,2.46607e-05
1178,4.6481e-06,1.40401e-05,3.06392e-05,5.40337e-05,2.73885e-05,2.63738e-05
1179,-1.36743e-09,9.94444e-06,3.24243e-05,4.91655e-05,2.88652e-05,2.645e-05
1180,-1.18439e-05,8.69359e-06,3.29792e-05,4.70834e-05,2.70055e-05,2.58463e-05
1181,-2.34884e-05,1.04041e-05,3.39041e-05,4.83357e-05,2.65178e-05,2.55125e-05
1182,-1.93242e-05,1.52006e-05,3.84903e-05,4.96612e-05,2.32796e-05,2.75472e-05
1183,-4.57744e-06,2.20283e-05,4.19968e-05,5.12035e-05,1.85825e-05,2.80519e-05
1184,4.3952e-06,2.83585e-05,3.9788e-05,5.35116e-05,2.2066e-05,2.41142e-05
1185,6.80643e-06,3.10323e-05,3.6609e-05,5.43603e-05,3.14724e-05,2.16197e-05
1186,4.18948e-06,3.17456e-05,3.56386e-05,5.46177e-05,3.76362e-05,2.34947e-05
1187,-9.9891e-07,3.47192e-05,3.63619e-05,5.51519e-05,3.8797e-05,2.54496e-05
1188,-9.63081e-06,3.91975e-05,3.68948e-05,5.5214e-05,3.7381e-05,2.28866e-05
1189,-2.18452e-05,4.04184e-05,3.7123e-05,5.6144e-05,3.44476e-05,1.60615e-05
1190,-2.68194e-05,3.51639e-05,3.97062e-05,5.79592e-05,2.8007e-05,1.11534e-05
1191,-1.77031e-05,2.38329e-05,4.3721e-05,5.87322e-05,2.05553e-05,1.30811e-05
1192,-3.27418e-06,1.25796e-05,4.4841e-05,5.94908e-05,1.88977e-05,1.63467e-05
1193,5.35793e-06,8.31053e-06,4.26362e-05,6.03741e-05,2.32885e-05,1.60486e-05
1194,2.59638e-06,8.49683e-06,3.95164e-05,5.79539e-05,2.94272e-05,1.44729e-05
1195,-9.86441e-06,6.16772e-06,3.72042e-05,5.39881e-05,3.42917e-05,1.32447e-05
1196,-1.7393e-05,3.50298e-06,3.94422e-05,5.19939e-05,3.49907e-05,1.28284e-05
1197,-9.07419e-06,7.25078e-06,4.69109e-05,5.21919e-05,3.25195e-05,1.29304e-05
1198,7.21369e-06,1.63351e-05,5.25418e-05,5.48408e-05,3.31834e-05,1.22291e-05
1199,1.69165e-05,2.47997e-05,5.05322e-05,5.74909e-05,3.84505e-05,1.0703e-05
1200,1.3725e-05,2.90645e-05,4.45697e-05,5.65283e-05,4.13208e-05,9.97886e-06
1201,-5.06401e-07,2.73342e-05,4.10684e-05,5.37878e-05,3.70438e-05,9.22196e-06
1202,-1.25832e-05,2.14635e-05,4.12766e-05,5.27903e-05,2.82739e-05,7.65414e-06
1203,-9.04977e-06,1.63798e-05,4.21237e-05,5.31021e-05,1.95483e-05,7.08186e-06
1204,4.93218e-06,1.2903e-05,4.15873e-05,5.34944e-05,1.66864e-05,8.42591e-06
1205,1.45206e-05,9.35254e-06,4.24187e-05,5.43526e-05,2.22515e-05,1.1651e-05
1206,1.14338e-05,2.06849e-06,4.42418e-05,5.66685e-05,3.0316e-05,1.58508e-05
1207,-8.35951e-06,-1.26288e-05,4.21186e-05,5.93538e-05,3.49265e-05,1.8614e-05
1208,-3.08587e-05,-2.68434e-05,3.8437e-05,5.90855e-05,3.34103e-05,2.09792e-05
1209,-2.87465e-05,-3.01722e-05,3.94244e-05,5.30901e-05,2.57678e-05,2.42124e-05
1210,-8.52594e-06,-2.58606e-05,4.31413e-05,4.50413e-05,2.08951e-05,2.59976e-05
1211,4.24816e-06,-2.23351e-05,4.57441e-05,4.28525e-05,2.57673e-05,2.889e-05
1212,6.1242e-06,-2.08791e-05,4.77622e-05,4.57425e-05,3.19487e-05,3.42177e-05
1213,2.0883e-06,-1.56851e-05,4.75568e-05,4.65713e-05,3.29451e-05,3.4622e-05
1214,-3.02416e-06,-4.29938e-06,4.49402e-05,4.33711e-05,3.20658e-05,2.71822e-05
1215,-9.81622e-06,6.21751e-06,4.13043e-05,3.93519e-05,3.18781e-05,1.67604e-05
1216,-2.14117e-05,7.6552e-06,3.67781e-05,3.92521e-05,3.12197e-05,9.35818e-06
1217,-2.69987e-05,6.09441e-07,3.45933e-05,4.35458e-05,2.72197e-05,7.41167e-06
1218,-1.65857e-05,-1.17488e-05,3.77843e-05,4.79814e-05,2.02303e-05,7.44584e-06
1219,-3.80543e-07,-2.52277e-05,4.31295e-05,4.98993e-05,1.73353e-05,6.36215e-06
1220,8.31777e-06,-3.18361e-05,4.56807e-05,4.97161e-05,2.2484e-05,5.20556e-06
1221,5.36643e-06,-3.01235e-05,4.42558e-05,4.84645e-05,2.94125e-05,4.0971e-06
1222,-7.30152e-06,-2.80291e-05,4.12342e-05,4.71424e-05,3.15471e-05,1.85478e-06
1223,-1.59166e-05,-2.81271e-05,4.06963e-05,4.71858e-05,2.90954e-05,-6.07746e-07
1224,-9.52452e-06,-2.36106e-05,4.22189e-05,4.77308e-05,2.69774e-05,-2.03829e-06
1225,3.49795e-06,-1.09773e-05,4.27156e-05,4.66538e-05,2.91935e-05,-1.95789e-06
1226,9.35893e-06,5.20268e-06,4.22879e-05,4.61593e-05,3.49176e-05,9.62338e-07
1227,3.92809e-06,1.84869e-05,4.23565e-05,4.94183e-05,3.94758e-05,6.18645e-06
1228,-9.69825e-06,2.77154e-05,4.31472e-05,5.36095e-05,3.97991e-05,9.85619e-06
1229,-1.87312e-05,3.85115e-05,4.63824e-05,5.58008e-05,3.64773e-05,1.17619e-05
1230,-1.03018e-05,5.60469e-05,5.13483e-05,5.61839e-05,3.27802e-05,1.4734e-05
1231,6.98727e-06,7.59469e-05,5.31853e-05,5.36632e-05,3.3061e-05,1.84818e-05
1232,1.37921e-05,8.99322e-05,5.22575e-05,4.7667e-05,3.77916e-05,2.12803e-05
1233,5.6715e-06,9.2833e-05,5.24457e-05,4.30075e-05,4.15333e-05,2.18846e-05
1234,-1.34667e-05,8.45752e-05,5.1776e-05,4.46728e-05,4.05029e-05,1.77108e-05
1235,-3.15269e-05,7.18629e-05,4.9854e-05,4.86732e-05,3.35892e-05,1.2432e-05
1236,-2.70934e-05,6.36123e-05,5.04258e-05,4.98634e-05,2.06209e-05,1.4001e-05
1237,-7.39473e-06,6.1435e-05,5.28855e-05,4.89416e-05,1.04601e-05,1.96859e-05
1238,2.0108e-06,6.15725e-05,5.47572e-05,4.93254e-05,1.03126e-05,2.31029e-05
1239,4.17723e-07,5.83293e-05,5.45273e-05,5.28208e-05,1.45122e-05,2.31438e-05
1240,-3.10232e-06,5.04659e-05,5.28412e-05,5.58408e-05,1.95258e-05,2.01231e-05
1241,-5.59174e-06,4.55999e-05,5.246e-05,5.50139e-05,2.34029e-05,1.73719e-05
1242,-1.06691e-05,4.53695e-05,5.32073e-05,5.14936e-05,2.25939e-05,1.7298e-05
1243,-2.15425e-05,4.35604e-05,5.22342e-05,5.10566e-05,1.86041e-05,1.75088e-05
1244,-2.62361e-05,3.80716e-05,5.03821e-05,5.58658e-05,1.38605e-05,1.80606e-05
1245,-1.53249e-05,3.12539e-05,4.99418e-05,5.96796e-05,9.81503e-06,2.02168e-05
1246,-1.30345e-06,2.50888e-05,4.95547e-05,5.66809e-05,8.78631e-06,2.17971e-05
1247,2.73031e-06,2.05067e-05,4.77444e-05,4.94549e-05,1.06129e-05,2.16942e-05
1248,-3.45236e-06,1.59748e-05,4.57408e-05,4.50116e-05,1.24868e-05,1.98251e-05
1249,-1.38983e-05,1.1514e-05,4.59284e-05,4.52018e-05,1.27852e-05,1.70131e-05
1250,-1.80218e-05,1.12178e-05,4.9311e-05,4.82467e-05,1.17904e-05,1.52135e-05
1251,-9.12713e-06,1.40181e-05,5.32797e-05,5.27898e-05,1.18916e-05,1.55193e-05
1252,4.70687e-06,1.2308e-05,5.48285e-05,5.70331e-05,1.62884e-05,1.88035e-05
1253,1.0284e-05,4.41425e-06,5.42555e-05,5.82317e-05,2.45679e-05,2.46736e-05
1254,5.20515e-06,-4.29137e-06,5.22844e-05,5.69112e-05,3.14752e-05,2.94375e-05
1255,-5.12489e-06,-1.36196e-05,4.89219e-05,5.68257e-05,3.48032e-05,2.96493e-05
1256,-9.71846e-06,-2.61947e-05,4.65746e-05,5.8412e-05,3.68088e-05,2.81243e-05
1257,-1.68466e-06,-3.72462e-05,4.70624e-05,5.75296e-05,3.96309e-05,2.75142e-05
1258,1.00662e-05,-3.96063e-05,4.79761e-05,5.35099e-05,4.4278e-05,2.60391e-05
1259,1.49759e-05,-3.34756e-05,4.7658e-05,5.03822e-05,4.72525e-05,2.5732e-05
1260,1.19125e-05,-2.56362e-05,4.61269e-05,4.80721e-05,4.42493e-05,2.95844e-05
1261,-1.4641e-06,-2.29617e-05,4.24878e-05,4.53273e-05,3.98063e-05,3.20686e-05
1262,-1.70952e-05,-2.51676e-05,3.92784e-05,4.48128e-05,3.72651e-05,2.97217e-05
1263,-1.60271e-05,-2.49852e-05,3.92215e-05,4.71972e-05,3.23745e-05,3.03229e-05
1264,-3.645e-06,-1.88524e-05,4.06903e-05,5.06422e-05,2.6275e-05,3.32346e-05
1265,9.92905e-07,-9.92372e-06,4.2877e-05,5.40592e-05,2.50588e-05,3.32371e-05
1266,-2.14644e-06,-3.39708e-06,4.42511e-05,5.70204e-05,2.86094e-05,3.35025e-05
1267,-3.17236e-06,2.58037e-07,4.2969e-05,5.8193e-05,3.31363e-05,3.41355e-05
1268,4.19044e-07,3.62375e-06,4.10022e-05,5.51823e-05,3.5226e-05,3.56441e-05
1269,-1.56696e-06,4.644e-06,3.99653e-05,4.84042e-05,3.38091e-05,3.70643e-05
1270,-1.49718e-05,9.74422e-07,4.02214e-05,4.34217e-05,3.02536e-05,3.48289e-05
1271,-2.32415e-05,-3.67672e-06,4.32267e-05,4.37789e-05,2.48359e-05,3.25421e-05
1272,-1.33528e-05,-6.96297e-06,4.93892e-05,4.78922e-05,2.05332e-05,3.60226e-05
1273,-3.90278e-08,-8.36294e-06,5.49004e-05,5.28763e-05,2.16174e-05,4.21394e-05
1274,2.02474e-06,-4.38289e-06,5.53121e-05,5.38824e-05,2.61846e-05,4.38353e-05
1275,-5.23985e-06,2.69526e-06,5.12545e-05,5.01516e-05,2.94769e-05,3.8718e-05
1276,-1.63625e-05,4.57665e-06,4.73613e-05,4.74129e-05,2.90356e-05,3.00337e-05
1277,-2.26853e-05,-1.01527e-07,4.67601e-05,4.91088e-05,2.28115e-05,2.23885e-05
1278,-1.59642e-05,-4.65623e-06,4.71922e-05,5.16649e-05,1.3822e-05,1.75163e-05
1279,-1.67074e-06,-4.36307e-06,4.46066e-05,5.15491e-05,1.20687e-05,1.53446e-05
1280,5.79878e-06,1.13434e-06,3.94025e-05,4.97125e-05,2.01197e-05,1.56193e-05
1281,-9.63988e-07,8.10355e-06,3.50754e-05,4.78938e-05,2.7954e-05,1.71883e-05
1282,-1.79548e-05,9.89098e-06,3.34117e-05,4.89402e-05,2.81658e-05,1.71514e-05
1283,-2.8681e-05,5.39407e-06,3.41062e-05,5.55597e-05,2.27461e-05,1.64761e-05
1284,-1.98716e-05,9.83549e-07,3.43349e-05,6.38718e-05,1.6772e-05,1.89899e-05
1285,-2.71009e-06,1.09848e-06,3.22382e-05,6.60932e-05,1.63612e-05,2.23669e-05
1286,3.47938e-06,6.9903e-06,2.9461e-05,6.11002e-05,2.28092e-05,2.13502e-05
1287,-3.41933e-06,1.64657e-05,2.75397e-05,5.62917e-05,3.00882e-05,1.76776e-05
1288,-1.58972e-05,2.3842e-05,2.61057e-05,5.66912e-05,3.40437e-05,1.30451e-05
1289,-2.0977e-05,2.51803e-05,2.68575e-05,5.90785e-05,3.19062e-05,8.73877e-06
1290,-6.27977e-06,2.19304e-05,3.09321e-05,5.93036e-05,2.42514e-05,1.00681e-05
1291,1.16802e-05,2.25922e-05,3.12236e-05,5.79323e-05,1.96021e-05,1.40555e-05
1292,1.38562e-05,2.80075e-05,2.68345e-05,5.86224e-05,2.39954e-05,1.43079e-05
1293,9.84779e-06,3.02612e-05,2.27753e-05,5.91372e-05,3.23197e-05,1.36372e-05
1294,9.00186e-06,2.89686e-05,2.17688e-05,5.51551e-05,3.72198e-05,1.58049e-05
1295,1.12651e-05,2.90171e-05,2.42955e-05,4.80853e-05,3.63582e-05,2.02703e-05
1296,8.07804e-06,3.01977e-05,2.33114e-05,4.38865e-05,3.18649e-05,2.25562e-05
1297,-4.9362e-06,2.6167e-05,1.76349e-05,4.65826e-05,2.80398e-05,2.14639e-05
1298,-1.30195e-05,1.83855e-05,1.60048e-05,5.18116e-05,2.48751e-05,1.96697e-05
1299,-5.03401e-06,1.37366e-05,2.13052e-05,5.35775e-05,2.19671e-05,1.74776e-05
1300,6.68151e-06,1.34549e-05,2.62018e-05,5.09235e-05,2.29698e-05,1.39861e-05
1301,9.11897e-06,1.6584e-05,2.58806e-05,4.72983e-05,2.70111e-05,1.06681e-05
1302,1.45074e-06,2.11207e-05,2.36877e-05,4.73026e-05,2.85812e-05,9.46255e-06
1303,-1.21194e-05,2.27367e-05,2.36458e-05,5.14931e-05,2.54309e-05,9.907e-06
1304,-2.05278e-05,1.92507e-05,2.66098e-05,5.44809e-05,2.00469e-05,1.05996e-05
1305,-1.56663e-05,1.51203e-05,3.01087e-05,5.31044e-05,1.70274e-05,1.1079e-05
1306,-5.22592e-06,1.71613e-05,3.15709e-05,5.11263e-05,2.09407e-05,1.25498e-05
1307,-8.96993e-07,2.53768e-05,3.08271e-05,5.14108e-05,3.05728e-05,1.36669e-05
1308,-4.6818e-06,3.16945e-05,2.88488e-05,5.33136e-05,3.79919e-05,1.01962e-05
1309,-1.40713e-05,3.02525e-05,2.85621e-05,5.60345e-05,3.92854e-05,1.2848e-06
1310,-2.0818e-05,2.29099e-05,3.33172e-05,5.81431e-05,3.60776e-05,-5.11483e-06
1311,-1.62947e-05,1.64528e-05,4.02295e-05,5.83158e-05,3.13315e-05,-2.88e-06
1312,-5.51557e-06,1.43741e-05,4.27778e-05,5.59283e-05,3.1804e-05,6.8987e-07
1313,-4.67011e-07,1.50276e-05,3.94292e-05,5.18731e-05,4.07974e-05,-1.70068e-06
1314,-4.94396e-06,1.48663e-05,3.42158e-05,4.9274e-05,5.08359e-05,-5.86735e-06
1315,-1.89322e-05,9.24418e-06,3.15332e-05,5.04451e-05,5.56558e-05,-8.42683e-06
1316,-3.05112e-05,-1.44762e-06,3.13979e-05,5.37907e-05,5.42896e-05,-8.69876e-06
1317,-2.10933e-05,-8.21548e-06,3.41299e-05,5.5072e-05,4.94403e-05,-4.16561e-06
1318,-2.30216e-06,-6.26444e-06,4.09829e-05,5.36272e-05,4.66488e-05,6.21661e-07
1319,4.7917e-06,3.43896e-06,4.56587e-05,5.16641e-05,4.83093e-05,-1.59088e-07
1320,3.00989e-06,1.78124e-05,4.39609e-05,5.04638e-05,5.26565e-05,-5.92349e-06
1321,-3.45543e-07,3.04449e-05,3.99085e-05,5.03335e-05,5.60207e-05,-1.18386e-05
1322,-3.04007e-06,3.71658e-05,3.61184e-05,5.01146e-05,5.44504e-05,-1.38617e-05
1323,-9.8579e-06,3.60234e-05,3.20408e-05,4.83471e-05,5.04262e-05,-1.52289e-05
1324,-2.31231e-05,2.95243e-05,3.02918e-05,4.67837e-05,4.85967e-05,-1.54719e-05
1325,-2.74907e-05,2.27578e-05,3.48529e-05,4.71905e-05,4.72206e-05,-1.16412e-05
1326,-1.4761e-05,1.64731e-05,4.25796e-05,4.74376e-05,4.45137e-05,-6.77448e-06
1327,-6.86344e-07,9.19524e-06,4.77298e-05,4.62683e-05,4.4313e-05,-3.69634e-06
1328,2.25593e-06,3.22655e-06,4.84576e-05,4.49498e-05,4.78983e-05,-1.57823e-06
1329,-5.07704e-06,2.92225e-06,4.54357e-05,4.4906e-05,5.0214e-05,-6.87475e-07
1330,-1.68521e-05,8.28185e-06,4.12364e-05,4.82953e-05,4.6954e-05,-2.08339e-06
1331,-2.28728e-05,1.51048e-05,4.02704e-05,5.51067e-05,3.89253e-05,-2.2887e-06
1332,-1.75139e-05,2.13544e-05,4.31734e-05,6.05308e-05,3.19431e-05,8.58118e-07
1333,-8.52177e-06,2.90816e-05,4.62718e-05,6.02102e-05,3.14812e-05,5.6551e-06
1334,-5.93519e-06,3.92723e-05,4.69826e-05,5.47724e-05,3.62297e-05,1.25208e-05
1335,-1.14049e-05,4.76631e-05,4.58628e-05,4.84546e-05,3.94236e-05,2.04549e-05
1336,-2.15518e-05,4.84675e-05,4.53589e-05,4.5891e-05,3.79632e-05,2.38982e-05
1337,-2.63803e-05,4.2718e-05,4.7608e-05,4.82572e-05,3.29982e-05,2.28823e-05
1338,-1.61912e-05,3.67978e-05,5.27203e-05,5.292e-05,2.72123e-05,2.21924e-05
1339,1.99784e-06,3.66196e-05,5.78672e-05,5.64557e-05,2.46686e-05,2.21493e-05
1340,1.22726e-05,4.33683e-05,5.96194e-05,5.48175e-05,2.57747e-05,2.08494e-05
1341,9.32551e-06,4.99898e-05,5.86056e-05,4.92388e-05,2.71757e-05,1.76453e-05
1342,-6.35676e-06,4.50439e-05,5.75747e-05,4.77315e-05,2.6718e-05,1.34781e-05
1343,-2.04808e-05,2.58237e-05,5.75828e-05,5.32151e-05,2.25229e-05,1.00066e-05
1344,-1.15611e-05,6.38089e-07,5.82463e-05,5.91966e-05,1.47709e-05,8.0607e-06
1345,5.75601e-06,-1.85584e-05,5.91808e-05,5.92394e-05,1.06632e-05,8.34354e-06
1346,9.96259e-06,-2.70311e-05,6.15573e-05,5.5638e-05,1.48373e-05,7.70358e-06
1347,8.00867e-06,-3.17105e-05,6.40414e-05,5.31242e-05,2.12869e-05,3.70996e-06
1348,6.2432e-06,-3.34997e-05,6.40698e-05,5.15768e-05,2.56171e-05,-4.4047e-07
1349,6.41677e-06,-2.68e-05,6.24255e-05,5.02664e-05,2.56272e-05,-1.75741e-06
1350,3.6067e-06,-1.19949e-05,5.88074e-05,5.01003e-05,2.28072e-05,-2.18105e-06
1351,-7.34546e-06,2.85884e-06,5.23776e-05,5.26233e-05,2.1155e-05,-3.01933e-06
1352,-1.28896e-05,1.48994e-05,4.94014e-05,5.48341e-05,2.01004e-05,-1.14685e-07
1353,-3.17947e-06,3.01071e-05,5.30699e-05,5.2377e-05,2.0422e-05,5.66783e-06
1354,7.89293e-06,4.90414e-05,5.74741e-05,4.71277e-05,2.30229e-05,7.62859e-06
1355,1.02343e-05,6.48684e-05,5.61835e-05,4.30468e-05,2.52997e-05,5.25959e-06
1356,4.39416e-06,7.28559e-05,4.92502e-05,4.15806e-05,2.55556e-05,3.628e-06
1357,-7.28046e-06,7.42008e-05,4.24643e-05,4.22264e-05,2.47622e-05,4.64387e-06
1358,-1.50338e-05,7.32479e-05,4.00479e-05,4.37912e-05,2.22633e-05,7.15904e-06
1359,-1.0343e-05,7.28609e-05,4.08467e-05,4.43839e-05,1.96021e-05,9.50646e-06
1360,3.58525e-07,7.10649e-05,4.0397e-05,4.31489e-05,2.22076e-05,1.04101e-05
1361,4.19327e-06,6.37801e-05,3.70348e-05,4.21118e-05,2.99058e-05,1.01658e-05
1362,-1.99527e-06,4.92726e-05,3.22296e-05,4.34677e-05,3.4878e-05,9.45073e-06
1363,-1.33273e-05,2.91414e-05,2.75049e-05,4.63419e-05,3.25625e-05,9.17367e-06
1364,-1.85631e-05,8.36281e-06,2.57417e-05,4.84114e-05,2.57185e-05,1.06797e-05
1365,-9.15913e-06,-7.57973e-06,2.78688e-05,4.80281e-05,2.02166e-05,1.34251e-05
1366,6.54878e-06,-1.82679e-05,2.82623e-05,4.58285e-05,2.25844e-05,1.53257e-05
1367,1.3608e-05,-2.41734e-05,2.49582e-05,4.35021e-05,3.15195e-05,1.65734e-05
1368,8.98274e-06,-2.62742e-05,2.13189e-05,4.31576e-05,3.65997e-05,1.84707e-05
1369,-5.1986e-06,-2.8668e-05,1.69192e-05,4.6579e-05,3.46353e-05,1.98714e-05
1370,-1.74373e-05,-3.26516e-05,1.21653e-05,5.19831e-05,2.88941e-05,2.06613e-05
1371,-9.97476e-06,-3.24868e-05,1.33086e-05,5.40862e-05,2.17624e-05,2.35737e-05
1372,7.65349e-06,-2.81593e-05,1.71066e-05,5.07135e-05,1.85798e-05,2.63621e-05
1373,1.63271e-05,-2.59331e-05,1.78964e-05,4.85081e-05,2.06266e-05,2.59024e-05
1374,2.00789e-05,-2.61335e-05,1.82747e-05,4.98795e-05,2.25154e-05,2.52291e-05
1375,2.14439e-05,-2.40105e-05,1.82971e-05,4.95038e-05,2.15634e-05,2.50421e-05
1376,1.65319e-05,-1.56413e-05,1.81576e-05,4.76775e-05,1.89779e-05,2.51242e-05
1377,1.99289e-06,-5.66043e-06,1.69953e-05,4.70406e-05,1.77434e-05,2.57109e-05
1378,-1.77553e-05,-2.47211e-06,1.568e-05,4.8574e-05,1.69482e-05,2.58599e-05
1379,-2.31579e-05,-5.34213e-06,1.91094e-05,5.21377e-05,1.36699e-05,2.84526e-05
1380,-7.08775e-06,-6.75083e-06,2.62698e-05,5.65215e-05,1.16321e-05,3.50083e-05
1381,1.10904e-05,-3.9806e-06,2.9238e-05,5.95305e-05,1.48568e-05,3.88214e-05
1382,1.46974e-05,9.50815e-07,2.50393e-05,5.82321e-05,1.98398e-05,3.57139e-05
1383,4.84503e-06,3.14596e-06,1.89887e-05,5.28051e-05,2.14153e-05,2.92808e-05
1384,-9.57604e-06,-5.56831e-07,1.65559e-05,4.74987e-05,1.94203e-05,2.38554e-05
1385,-1.57311e-05,-4.22979e-06,1.95518e-05,4.68102e-05,1.59869e-05,2.04524e-05
1386,-7.63177e-06,-2.06264e-06,2.70406e-05,5.05794e-05,1.40378e-05,1.77457e-05
1387,4.18697e-06,3.02843e-06,3.41781e-05,5.3973e-05,1.67187e-05,1.6972e-05
1388,7.04981e-06,7.79598e-06,3.54459e-05,5.24129e-05,2.36888e-05,2.07275e-05
1389,8.59472e-10,1.24173e-05,3.03173e-05,4.7874e-05,3.07965e-05,2.63421e-05
1390,-1.26135e-05,1.50135e-05,2.39875e-05,4.66859e-05,3.57184e-05,2.66678e-05
1391,-1.92691e-05,1.5383e-05,2.39957e-05,5.0045e-05,3.63803e-05,2.03211e-05
1392,-9.7946e-06,1.70704e-05,2.99818e-05,5.40675e-05,3.2182e-05,1.31349e-05
1393,4.89131e-06,2.10417e-05,3.28431e-05,5.6692e-05,2.86417e-05,9.01414e-06
1394,6.91941e-06,2.80294e-05,2.82711e-05,5.78917e-05,2.88134e-05,7.46341e-06
1395,-5.03663e-06,3.72132e-05,2.16755e-05,5.75925e-05,3.06263e-05,8.21786e-06
1396,-2.46717e-05,4.14565e-05,1.8097e-05,5.63017e-05,3.23997e-05,9.40551e-06
1397,-3.58036e-05,3.88274e-05,1.79933e-05,5.5201e-05,2.99086e-05,9.3859e-06
1398,-1.96969e-05,3.4001e-05,2.07433e-05,5.47162e-05,2.29328e-05,7.77056e-06
1399,5.35199e-06,2.7623e-05,2.45541e-05,5.44088e-05,2.08309e-05,4.65473e-06
1400,1.39717e-05,2.00363e-05,2.79497e-05,5.49542e-05,2.5027e-05,3.7945e-06
1401,1.30882e-05,1.35783e-05,2.89005e-05,5.87198e-05,2.88222e-05,7.25602e-06
1402,1.09365e-05,1.19215e-05,2.69992e-05,6.26478e-05,2.99908e-05,9.83864e-06
1403,7.44395e-06,1.72934e-05,2.75347e-05,6.09074e-05,3.03995e-05,8.45815e-06
1404,4.1262e-07,2.38682e-05,3.11612e-05,5.53827e-05,3.35071e-05,6.57202e-06
1405,-1.09787e-05,2.2148e-05,3.444e-05,5.22045e-05,3.69828e-05,7.27292e-06
1406,-1.64868e-05,1.40998e-05,3.56745e-05,5.37696e-05,3.59696e-05,1.19165e-05
1407,-7.99452e-06,9.49449e-06,3.37602e-05,5.7773e-05,3.19981e-05,1.79914e-05
1408,4.98405e-06,1.18246e-05,3.20064e-05,6.04726e-05,3.12832e-05,1.97703e-05
1409,1.0595e-05,1.87595e-05,3.33129e-05,6.06129e-05,3.57688e-05,1.67625e-05
1410,4.89896e-06,2.36168e-05,3.4753e-05,5.92371e-05,4.16621e-05,1.38521e-05
1411,-9.06158e-06,2.14085e-05,3.40284e-05,5.75229e-05,4.50768e-05,1.42728e-05
1412,-1.80263e-05,1.56448e-05,3.32067e-05,5.62441e-05,4.34747e-05,1.78639e-05
1413,-1.26261e-05,1.21186e-05,3.28286e-05,5.63516e-05,3.72381e-05,2.25281e-05
1414,-1.23478e-06,1.20781e-05,3.06583e-05,5.87539e-05,3.21122e-05,2.59277e-05
1415,2.9876e-06,1.48138e-05,2.75118e-05,6.15867e-05,3.24096e-05,2.6253e-05
1416,-2.61789e-06,1.98257e-05,2.6398e-05,6.22871e-05,3.53709e-05,2.2479e-05
1417,-1.53397e-05,2.45394e-05,2.80689e-05,6.15244e-05,3.7064e-05,1.74185e-05
1418,-2.61032e-05,2.4669e-05,3.30161e-05,6.17006e-05,3.52445e-05,1.49688e-05
1419,-2.23785e-05,1.81821e-05,3.97033e-05,6.21975e-05,3.19089e-05,1.45283e-05
1420,-8.46461e-06,7.67981e-06,4.29993e-05,6.08833e-05,3.36928e-05,1.39663e-05
1421,1.32583e-06,-9.06161e-07,4.08724e-05,5.91378e-05,4.15278e-05,1.19451e-05
1422,1.65597e-06,-4.24537e-06,3.74458e-05,5.8475e-05,4.86489e-05,7.38522e-06
1423,-9.32643e-06,-7.96046e-06,3.65552e-05,5.74671e-05,5.05605e-05,3.59964e-07
1424,-2.04666e-05,-1.54721e-05,3.83364e-05,5.6206e-05,4.63306e-05,-3.01758e-06
1425,-1.52291e-05,-1.73882e-05,4.12506e-05,5.55638e-05,3.84178e-05,2.83196e-06
1426,-3.87777e-06,-7.93122e-06,4.20187e-05,5.47678e-05,3.4344e-05,1.01389e-05
1427,-1.81041e-07,7.402e-06,3.95135e-05,5.43668e-05,3.83496e-05,9.76653e-06
1428,1.03868e-06,2.1644e-05,3.68348e-05,5.55584e-05,4.37919e-05,4.64539e-06
1429,1.50801e-06,3.29513e-05,3.77804e-05,5.74471e-05,4.37366e-05,2.44063e-06
1430,6.80876e-07,3.84773e-05,4.07569e-05,5.84648e-05,3.96187e-05,6.1284e-06
1431,-5.28608e-06,3.50431e-05,4.20996e-05,5.83172e-05,3.80008e-05,1.07851e-05
1432,-1.94018e-05,2.74669e-05,4.3378e-05,5.83509e-05,3.85092e-05,1.25409e-05
1433,-2.67013e-05,2.30862e-05,4.74141e-05,5.68484e-05,3.51462e-05,1.43313e-05
1434,-1.57556e-05,2.27937e-05,5.34191e-05,5.203e-05,2.94604e-05,1.82646e-05
1435,1.0803e-06,2.02559e-05,5.72318e-05,4.86257e-05,2.74282e-05,2.19522e-05
1436,8.23041e-06,1.18269e-05,5.58625e-05,4.95032e-05,3.00126e-05,2.40821e-05
1437,1.88122e-06,-1.52011e-06,4.91195e-05,5.06737e-05,3.43413e-05,2.27241e-05
1438,-1.1581e-05,-1.75001e-05,4.09629e-05,5.02216e-05,3.68688e-05,1.73665e-05
1439,-1.7193e-05,-3.06771e-05,3.81262e-05,5.07165e-05,3.37623e-05,1.42933e-05
1440,-7.4509e-06,-3.63405e-05,4.25389e-05,5.30471e-05,2.69015e-05,1.80497e-05
1441,7.70267e-06,-3.5515e-05,4.92189e-05,5.41183e-05,2.40158e-05,2.46726e-05
1442,1.53916e-05,-2.93785e-05,5.26488e-05,5.03138e-05,2.79122e-05,2.98147e-05
1443,1.15682e-05,-1.69715e-05,5.08429e-05,4.40735e-05,3.30968e-05,3.30154e-05
1444,-1.13486e-06,-4.15598e-06,4.48742e-05,4.16783e-05,3.54489e-05,3.2896e-05
1445,-1.00364e-05,-1.16267e-06,3.93747e-05,4.46154e-05,3.43895e-05,3.00515e-05
1446,-2.27268e-06,-9.61211e-06,3.84429e-05,5.00584e-05,3.06492e-05,2.7657e-05
1447,1.36569e-05,-2.07153e-05,4.05564e-05,5.44111e-05,2.88646e-05,2.81675e-05
1448,1.88958e-05,-2.33236e-05,4.11731e-05,5.42532e-05,3.29556e-05,2.99912e-05
1449,1.16841e-05,-1.02604e-05,3.77646e-05,4.87734e-05,3.83607e-05,2.7642e-05
1450,-3.21629e-06,1.44409e-05,3.2204e-05,4.2929e-05,4.15312e-05,1.98222e-05
1451,-1.35118e-05,3.92926e-05,3.0239e-05,4.30488e-05,4.00088e-05,1.42164e-05
1452,-4.05422e-06,5.99424e-05,3.73552e-05,4.61271e-05,3.06103e-05,1.6011e-05
1453,8.30969e-06,7.57447e-05,4.7752e-05,4.67117e-05,2.23982e-05,1.8667e-05
1454,7.61116e-06,8.56643e-05,5.18776e-05,4.63108e-05,2.58069e-05,1.93461e-05
1455,3.16382e-06,8.85337e-05,4.84566e-05,4.63539e-05,3.4224e-05,2.2282e-05
1456,1.4597e-06,8.5241e-05,4.09341e-05,4.60262e-05,3.61217e-05,2.47335e-05
1457,1.24509e-06,8.21649e-05,3.57152e-05,4.599e-05,3.21244e-05,2.54097e-05
1458,-4.62631e-06,8.20025e-05,3.42229e-05,4.47423e-05,2.94164e-05,2.52923e-05
1459,-1.78695e-05,8.06625e-05,3.38426e-05,4.2645e-05,2.87163e-05,2.22621e-05
1460,-2.42287e-05,7.53894e-05,3.26919e-05,4.25651e-05,2.35975e-05,1.73256e-05
1461,-1.5454e-05,6.64422e-05,3.141e-05,4.46842e-05,1.52648e-05,1.62994e-05
1462,-4.18473e-06,5.41999e-05,3.16612e-05,4.67709e-05,1.17752e-05,2.06123e-05
1463,-2.80348e-06,3.85888e-05,3.31591e-05,4.75127e-05,1.29145e-05,2.33527e-05
1464,-1.30942e-05,1.9735e-05,3.35022e-05,4.80539e-05,1.31557e-05,2.07123e-05
1465,-2.78027e-05,2.15094e-07,3.29021e-05,4.868e-05,1.16004e-05,1.83299e-05
1466,-3.14872e-05,-1.45327e-05,3.41287e-05,4.97323e-05,1.01085e-05,2.24609e-05
1467,-1.73817e-05,-2.08263e-05,3.52377e-05,5.14191e-05,9.64636e-06,2.99315e-05
1468,1.51614e-06,-1.80928e-05,3.3947e-05,5.30994e-05,1.22261e-05,3.4147e-05
1469,9.93004e-06,-7.80351e-06,3.30032e-05,5.4129e-05,1.64006e-05,3.50894e-05
1470,4.90735e-06,3.9399e-06,3.42958e-05,5.44006e-05,1.66334e-05,3.45753e-05
1471,-9.02644e-06,1.07407e-05,3.43129e-05,5.38361e-05,1.36315e-05,3.0885e-05
1472,-1.97361e-05,1.33432e-05,3.29173e-05,5.36263e-05,1.1711e-05,2.5485e-05
1473,-1.58991e-05,1.69156e-05,3.32967e-05,5.45446e-05,9.63943e-06,2.24567e-05
1474,-3.23792e-06,2.27323e-05,3.39338e-05,5.4757e-05,8.4532e-06,2.15865e-05
1475,3.62914e-06,2.91819e-05,3.28107e-05,5.28789e-05,9.6169e-06,2.00995e-05
1476,-2.02492e-06,3.47976e-05,2.98496e-05,4.98012e-05,9.70599e-06,1.75016e-05
1477,-1.99468e-05,3.4106e-05,2.54944e-05,4.82946e-05,9.50903e-06,1.35983e-05
1478,-3.59734e-05,2.3159e-05,2.57765e-05,5.00873e-05,8.68491e-06,1.17598e-05
1479,-2.89966e-05,1.02331e-05,3.48387e-05,5.12257e-05,5.92153e-06,1.40459e-05
1480,-1.26765e-05,3.00736e-06,4.12046e-05,4.95916e-05,5.29039e-06,1.39237e-05
1481,-1.00206e-05,-4.17065e-06,3.91143e-05,4.91313e-05,7.9897e-06,9.7191e-06
1482,-1.12371e-05,-1.50262e-05,3.78284e-05,4.99599e-05,1.15103e-05,7.22472e-06
1483,-8.82559e-06,-2.09548e-05,3.835e-05,5.02913e-05,1.64379e-05,7.60153e-06
1484,-7.10078e-06,-1.53918e-05,3.88378e-05,5.11651e-05,2.3308e-05,7.11134e-06
1485,-1.17676e-05,-4.53058e-06,4.02233e-05,5.32863e-05,2.95591e-05,2.52379e-06
1486,-2.33894e-05,2.33406e-06,4.22451e-05,5.63788e-05,3.1749e-05,-3.3883e-06
1487,-2.63633e-05,3.63429e-06,4.30908e-05,5.69932e-05,2.87475e-05,-3.72656e-06
1488,-1.21561e-05,3.13986e-06,4.009e-05,5.40324e-05,2.51388e-05,3.51882e-06
1489,4.49455e-06,5.88813e-06,3.17405e-05,5.15918e-05,2.52866e-05,1.23907e-05
1490,1.08315e-05,1.12748e-05,2.28595e-05,5.1226e-05,2.78271e-05,1.50808e-05
1491,5.43826e-06,1.16199e-05,2.10116e-05,5.13702e-05,3.07033e-05,8.64474e-06
1492,-7.57451e-06,4.65095e-06,2.59732e-05,5.18537e-05,3.27268e-05,-1.91569e-06
1493,-1.50591e-05,-1.80988e-06,3.25046e-05,5.35034e-05,3.10395e-05,-6.53731e-06
1494,-7.84427e-06,-2.13742e-06,3.63735e-05,5.51925e-05,2.59473e-05,-2.29882e-06
1495,4.06713e-06,1.84462e-06,3.58175e-05,5.45442e-05,2.31565e-05,4.762e-06
1496,7.17386e-06,7.04241e-06,3.15494e-05,5.14199e-05,2.58247e-05,9.17332e-06
1497,-4.30646e-10,1.03676e-05,2.64264e-05,4.97574e-05,2.98255e-05,9.87467e-06
1498,-1.48834e-05,7.87092e-06,2.13072e-05,5.19751e-05,2.98623e-05,7.5409e-06
1499,-2.67633e-05,9.35456e-07,1.78767e-05,5.5866e-05,2.60081e-05,3.89499e-06
1500,-2.23424e-05,-3.12981e-06,2.01128e-05,5.79466e-05,2.18155e-05,1.65938e-06
1501,-8.14967e-06,-6.37649e-07,2.8462e-05,5.67633e-05,2.15677e-05,2.37402e-06
1502,-1.73332e-06,7.94084e-06,3.65697e-05,5.36318e-05,2.55536e-05,6.24267e-06
1503,-7.82305e-06,1.72848e-05,3.87066e-05,5.28136e-05,2.86557e-05,9.96388e-06
1504,-2.17432e-05,2.09362e-05,3.47596e-05,5.68368e-05,2.9349e-05,7.01181e-06
1505,-3.07765e-05,2.01054e-05,2.85727e-05,6.01111e-05,2.67548e-05,2.29167e-06
1506,-2.07297e-05,2.07619e-05,2.64635e-05,5.87861e-05,2.05834e-05,7.49464e-06
1507,-2.78409e-06,2.2789e-05,2.77046e-05,5.72466e-05,2.02137e-05,1.87783e-05
1508,3.98066e-06,1.9441e-05,2.81416e-05,5.70766e-05,2.79265e-05,2.61098e-05
1509,2.15217e-06,9.44193e-06,2.96656e-05,5.74961e-05,3.54677e-05,2.93883e-05
1510,1.99616e-07,3.65154e-07,3.24454e-05,5.83001e-05,4.0044e-05,3.062e-05
1511,-2.5674e-07,-2.07829e-06,3.40632e-05,5.79042e-05,4.05777e-05,2.99106e-05
1512,-6.00082e-06,-1.9832e-07,3.32164e-05,5.592e-05,3.85893e-05,2.85287e-05
1513,-1.97049e-05,-1.98302e-07,3.25893e-05,5.4824e-05,3.67441e-05,2.68405e-05
1514,-2.66193e-05,-3.23085e-06,3.37503e-05,5.54477e-05,3.25574e-05,2.52618e-05
1515,-1.6989e-05,-6.08392e-06,3.63265e-05,5.4986e-05,2.7305e-05,2.5252e-05
1516,-2.57264e-06,-5.49545e-06,3.94937e-05,5.16319e-05,2.66498e-05,2.69905e-05
1517,4.82425e-06,-3.64328e-07,4.04632e-05,4.74851e-05,2.97859e-05,2.94585e-05
1518,1.90015e-06,4.41408e-06,3.79968e-05,4.59632e-05,3.26191e-05,2.95414e-05
1519,-9.72297e-06,3.83181e-06,3.47714e-05,4.73541e-05,3.33564e-05,2.3952e-05
1520,-1.73407e-05,2.61787e-07,3.52471e-05,4.98507e-05,3.10709e-05,1.59897e-05
1521,-9.40555e-06,-1.68006e-06,3.80928e-05,5.14691e-05,2.73253e-05,1.2319e-05
1522,5.18981e-06,-6.47329e-08,3.88649e-05,5.21226e-05,2.74592e-05,1.42422e-05
1523,1.01782e-05,6.22557e-06,3.68012e-05,5.11136e-05,3.34156e-05,1.6324e-05
1524,1.31293e-06,1.42962e-05,3.37997e-05,4.84584e-05,3.78515e-05,1.27369e-05
1525,-1.63333e-05,1.71058e-05,3.10685e-05,4.79366e-05,3.50114e-05,4.76376e-06
1526,-2.90804e-05,1.287e-05,3.04293e-05,5.04479e-05,2.85228e-05,8.78557e-07
1527,-2.4183e-05,8.19499e-06,3.23289e-05,5.15044e-05,2.41546e-05,5.22094e-06
1528,-8.337e-06,7.04984e-06,3.56019e-05,4.86349e-05,2.44531e-05,1.03385e-05
1529,1.35859e-07,7.10014e-06,3.74675e-05,4.44698e-05,2.86786e-05,8.98566e-06
1530,-6.58764e-06,7.25774e-06,3.49166e-05,4.28751e-05,3.23729e-05,4.33961e-06
1531,-2.60589e-05,5.93824e-06,2.93729e-05,4.53255e-05,3.33067e-05,1.63518e-06
1532,-4.26957e-05,2.25129e-06,2.7738e-05,4.96092e-05,3.20043e-05,1.17836e-06
1533,-3.57058e-05,3.34225e-07,3.2608e-05,5.26744e-05,2.89261e-05,3.43842e-06
1534,-1.62963e-05,3.4354e-06,3.53445e-05,5.23183e-05,2.81126e-05,5.88017e-06
1535,-5.94809e-06,9.03298e-06,3.23217e-05,4.86511e-05,3.24593e-05,5.28061e-06
1536,-1.4641e-06,1.40027e-05,2.98978e-05,4.61578e-05,3.68989e-05,4.28478e-06
1537,1.32651e-06,2.057e-05,3.07957e-05,4.55904e-05,3.48371e-05,4.04851e-06
1538,1.19937e-06,2.90286e-05,3.33868e-05,4.46548e-05,3.05669e-05,2.32237e-06
1539,-4.4605e-06,3.45394e-05,3.37471e-05,4.6831e-05,2.82204e-05,-3.05392e-06
1540,-1.32718e-05,3.29039e-05,2.97602e-05,5.33867e-05,2.36553e-05,-8.61933e-06
1541,-1.07166e-05,2.60175e-05,2.53282e-05,5.76742e-05,1.65964e-05,-8.03905e-06
1542,8.88179e-06,1.77528e-05,2.4986e-05,5.5343e-05,1.2004e-05,-1.46089e-06
1543,3.08072e-05,1.2706e-05,2.89716e-05,4.95656e-05,1.38536e-05,6.44739e-06
1544,4.15381e-05,1.36109e-05,3.44668e-05,4.4347e-05,1.88582e-05,1.18696e-05
1545,3.74459e-05,1.69465e-05,3.63369e-05,3.99682e-05,2.14992e-05,1.14869e-05
1546,2.25016e-05,1.63094e-05,3.26814e-05,3.68917e-05,2.0376e-05,6.04296e-06
1547,1.13122e-05,1.1141e-05,3.00804e-05,3.84458e-05,1.70136e-05,2.17828e-06
1548,1.2547e-05,6.59656e-06,3.38829e-05,4.4071e-05,1.56557e-05,3.56321e-06
1549,1.66363e-05,5.19625e-06,4.07518e-05,4.88713e-05,2.01815e-05,6.23762e-06
1550,1.35431e-05,6.5996e-06,4.55574e-05,4.99439e-05,2.67695e-05,6.50046e-06
1551,2.9809e-06,9.01937e-06,4.72554e-05,4.74444e-05,2.85446e-05,5.49205e-06
1552,-1.22839e-05,9.68855e-06,4.7157e-05,4.40195e-05,2.6967e-05,4.77058e-06
1553,-2.21992e-05,7.32969e-06,4.92059e-05,4.27971e-05,2.64447e-05,5.68588e-06
1554,-1.62523e-05,4.53116e-06,5.51503e-05,4.307e-05,2.59979e-05,8.32984e-06
1555,-1.97765e-06,3.96313e-06,6.01679e-05,4.16885e-05,2.59883e-05,1.17098e-05
1556,4.61955e-06,7.9335e-06,5.96639e-05,4.0074e-05,2.97769e-05,1.4882e-05
1557,4.90251e-07,1.42871e-05,5.57594e-05,4.25906e-05,3.38208e-05,1.76703e-05
1558,-1.31333e-05,1.68985e-05,5.19697e-05,4.78997e-05,3.25466e-05,1.94288e-05
1559,-2.62015e-05,1.59097e-05,5.14008e-05,5.05252e-05,2.79226e-05,2.10316e-05
1560,-1.97291e-05,1.72179e-05,5.49698e-05,4.85819e-05,2.58286e-05,2.47536e-05
1561,-3.87241e-06,1.97652e-05,5.52509e-05,4.71109e-05,2.88202e-05,2.55049e-05
1562,3.4229e-06,1.8218e-05,5.02369e-05,5.06409e-05,3.58178e-05,2.22032e-05
1563,8.44357e-06,1.31916e-05,4.69294e-05,5.65659e-05,4.41976e-05,2.28858e-05
1564,1.25946e-05,9.09486e-06,4.70473e-05,5.92286e-05,4.97035e-05,2.88364e-05
1565,1.15592e-05,1.29305e-05,4.84057e-05,5.64802e-05,4.96324e-05,3.48764e-05
1566,2.40817e-06,2.61129e-05,4.95947e-05,5.42759e-05,4.6213e-05,3.64252e-05
